CH1,CH2,CH3,CH4,CH5,CH6,CH7,CH8
2048,2051,2065,2044,2077,2061,2042,2010
2051,2054,2071,2063,2090,2050,2040,2013
2051,2052,2066,2037,1986,2006,2030,1995
2034,2023,2036,1994,1913,1976,2012,1969
2021,2015,2028,2003,2029,2001,2006,1971
2037,2046,2050,2043,2095,2038,2036,1995
2051,2057,2057,2057,2080,2041,2043,2002
2058,2064,2054,2064,2080,2043,2039,2012
2055,2063,2049,2060,2075,2046,2039,2013
2053,2054,2039,2065,2089,2053,2061,2013
2053,2055,2038,2066,2093,2057,2068,2016
2052,2053,2052,2084,2083,2059,2037,2025
2044,2050,2053,2087,2092,2073,2045,2040
2045,2051,2060,2092,2102,2086,2066,2056
2052,2052,2060,2099,2118,2096,2078,2073
2060,2063,2064,2108,2123,2092,2077,2084
2059,2059,2050,2086,2085,2085,2059,2092
2054,2047,2026,2075,2014,2074,2076,2103
2052,2043,2027,2079,2028,2081,2064,2102
2038,2024,2009,2056,2032,2052,2051,2092
2023,2018,2019,2058,2032,2043,2040,2091
2029,2048,2039,2062,2050,2070,2070,2099
2047,2051,2032,2050,2037,2053,2065,2091
2047,2052,2025,2035,2025,2052,2048,2086
2045,2047,2042,2024,2009,2044,2043,2080
2057,2054,2055,2036,2015,2012,2026,2078
2057,2059,2058,2023,2020,2017,2026,2068
2063,2062,2056,2026,2022,2019,2028,2051
2059,2058,2066,2024,2012,2008,2004,2037
2048,2056,2065,2034,2018,2017,2001,2021
2045,2052,2062,2045,2057,2042,2024,2018
2057,2058,2061,2052,2084,2059,2035,2011
2055,2051,2059,2055,2057,2048,2029,2005
2044,2052,2061,2056,2039,2049,2049,1992
2048,2048,2054,2055,2031,2042,2044,1990
2042,2038,2040,2038,1992,2011,2018,1969
2021,2021,2035,2033,1976,2006,2013,1965
2022,2031,2042,2047,1992,2022,2024,1986
2044,2050,2049,2047,1991,2025,2030,1991
2053,2055,2038,2055,2029,2032,2025,2001
2059,2062,2048,2077,2077,2047,2034,2012
2068,2066,2046,2086,2103,2066,2068,2027
2061,2065,2061,2085,2123,2098,2079,2035
2065,2068,2068,2085,2125,2103,2080,2051
2065,2063,2057,2083,2103,2093,2071,2050
2055,2053,2050,2068,2082,2075,2067,2056
2057,2050,2041,2061,2070,2072,2063,2060
2057,2051,2028,2051,2060,2057,2051,2068
2054,2042,2018,2039,2068,2050,2046,2077
2052,2048,2019,2046,2085,2070,2052,2086
2050,2045,2016,2056,2103,2085,2050,2086
2043,2036,2013,2036,2041,2059,2013,2075
2018,2006,1995,2020,1997,2048,2006,2072
2013,2008,2005,2021,2033,2045,2031,2090
2041,2039,2019,2042,2064,2009,2037,2090
2043,2042,2030,2042,2079,2007,2025,2085
2039,2048,2044,2055,2049,2022,2027,2070
2042,2046,2034,2046,2021,2025,2014,2064
2036,2039,2041,2049,2014,2032,2024,2052
2039,2035,2050,2048,2023,2052,2027,2036
2029,2033,2062,2053,2016,2061,2032,2030
2041,2041,2076,2043,1994,2067,2023,2028
2045,2050,2075,2039,1987,2068,2047,2025
2048,2055,2073,2031,1988,2058,2038,2022
2053,2060,2062,2033,1990,2020,2045,2027
2056,2060,2062,2042,2000,2029,2040,2015
2054,2052,2056,2049,2012,2032,2049,2015
2057,2060,2056,2047,2006,2015,2032,1989
2025,2031,2042,2038,1983,2008,2018,1993
2024,2030,2043,2051,2004,2030,2036,2003
2056,2065,2062,2063,2011,2028,2059,2009
2056,2067,2051,2041,1980,2027,2058,2014
2054,2061,2044,2034,1970,2053,2046,2016
2047,2055,2030,2028,2024,2102,2069,2020
2042,2057,2027,2037,2093,2145,2071,2032
2056,2061,2028,2077,2204,2168,2088,2034
2055,2051,2024,2061,2180,2149,2091,2044
2042,2031,2010,2017,2050,2073,2071,2050
2041,2030,2018,2018,2064,2006,2060,2065
2043,2036,2029,2015,2073,2001,2066,2067
2044,2038,2039,2013,2066,2037,2058,2081
2043,2035,2041,2031,2087,2075,2056,2094
2042,2038,2038,2040,2100,2074,2044,2096
2044,2053,2057,2052,2080,2056,2033,2091
2031,2043,2056,2046,2052,2040,2033,2096
2040,2046,2068,2060,2061,2049,2064,2113
2063,2067,2093,2069,2060,2040,2045,2102
2050,2055,2078,2060,2059,2027,2036,2099
2048,2055,2073,2061,2080,2020,2016,2091
2053,2056,2072,2064,2091,2039,2025,2083
2055,2059,2070,2070,2084,2051,2035,2068
2054,2070,2081,2080,2111,2063,2034,2056
2052,2077,2091,2089,2147,2070,2020,2045
2055,2074,2084,2092,2162,2069,2061,2037
2056,2065,2074,2094,2186,2073,2053,2037
2054,2062,2065,2093,2189,2069,2065,2020
2048,2056,2039,2083,2184,2052,2041,2012
2039,2042,2043,2064,2111,2016,2042,2004
2043,2037,2036,2041,1999,2003,2038,2007
2040,2035,2034,2041,1876,1996,2028,1987
2031,2015,2019,2028,1864,1994,2026,1980
2026,2018,2011,2034,1970,2017,2044,2003
2050,2049,2031,2063,2050,2045,2073,2012
2058,2049,2030,2063,2070,2046,2076,2010
2053,2057,2028,2067,2076,2048,2080,2018
2053,2054,2023,2074,2072,2049,2074,2023
2051,2050,2017,2078,2055,2046,2072,2026
2052,2049,2030,2086,2047,2048,2077,2034
2054,2056,2032,2073,2014,2031,2060,2038
2048,2053,2023,2046,1976,2016,2064,2037
2045,2053,2019,2052,2064,2042,2058,2050
2039,2047,2023,2060,2119,2075,2053,2066
2041,2051,2028,2059,2115,2096,2069,2082
2054,2060,2039,2041,2013,2084,2044,2093
2052,2074,2049,2025,1973,2088,2053,2106
2060,2085,2072,2060,2062,2102,2074,2114
2054,2058,2055,2039,2052,2075,2055,2101
2039,2038,2034,2011,2033,2052,2045,2104
2041,2039,2039,1989,1995,2012,2062,2116
2046,2046,2036,1984,1953,1977,2050,2104
2046,2041,2054,2011,1983,2003,2052,2107
2047,2056,2070,2043,2028,2048,2064,2087
2040,2052,2072,2051,2094,2075,2068,2078
2039,2050,2067,2025,2090,2074,2064,2070
2049,2058,2073,2024,2057,2068,2064,2074
2058,2072,2090,2031,2039,2058,2078,2066
2061,2076,2100,2041,2034,2061,2073,2058
2065,2076,2082,2042,2017,2043,2079,2047
2062,2073,2068,2034,1980,2003,2036,2029
2055,2066,2061,2015,1982,1978,2021,2016
2053,2068,2063,2028,2022,1998,2036,2007
2043,2065,2068,2036,1983,2033,2053,2005
2045,2057,2065,2058,2026,2049,2043,1998
2026,2029,2044,2041,2018,2037,2020,1985
2025,2022,2031,2035,2040,2039,2030,1988
2046,2047,2031,2054,2099,2067,2042,2001
2045,2053,2028,2055,2051,2062,2048,1996
2048,2046,2033,2047,1980,2044,2056,2008
2046,2048,2045,2052,2002,2050,2037,2003
2040,2045,2039,2059,2037,2070,2021,2005
2045,2046,2040,2070,2056,2094,2028,2017
2051,2046,2028,2064,2034,2088,2044,2024
2057,2043,2018,2057,2012,2059,2046,2040
2042,2040,2011,2059,2035,2032,2041,2052
2045,2047,2016,2071,2088,1993,2039,2073
2048,2049,2020,2082,2147,2009,2072,2085
2045,2047,2021,2076,2157,2047,2069,2100
2047,2044,2021,2061,2097,2069,2069,2112
2047,2051,2025,2041,2070,2066,2063,2109
2035,2028,2001,2004,2048,2032,2041,2104
2028,2010,1985,1981,2017,2020,2033,2115
2039,2032,1998,1982,2023,2029,2040,2114
2040,2035,2010,1983,2032,2036,2026,2106
2042,2048,2045,1996,2052,2042,2017,2098
2043,2055,2066,2007,2058,2050,2052,2086
2057,2068,2104,2038,2066,2053,2055,2081
2068,2082,2122,2057,2067,2059,2062,2072
2067,2085,2112,2062,2068,2070,2066,2064
2064,2082,2106,2053,2037,2066,2061,2060
2053,2074,2093,2040,2006,2060,2058,2046
2062,2070,2085,2035,1989,2062,2059,2037
2056,2068,2080,2034,1973,2055,2050,2030
2058,2066,2068,2027,1960,2040,2034,2021
2051,2055,2051,2030,1966,2033,2045,2014
2054,2058,2052,2048,1973,2035,2046,2011
2063,2053,2043,2049,1982,2014,2034,1985
2029,2020,2020,2036,1966,2006,2022,1977
2023,2026,2036,2054,2028,2043,2043,2008
2047,2063,2068,2068,2088,2067,2053,2010
2052,2060,2060,2075,2127,2076,2043,2010
2045,2056,2047,2036,2118,2055,2054,2008
2046,2054,2041,2013,1997,2036,2038,2008
2050,2058,2049,2003,1916,2024,2060,2026
2049,2062,2049,2009,1932,2024,2060,2029
2055,2062,2046,2013,1956,2023,2039,2042
2060,2059,2040,2019,2000,2015,2046,2057
2052,2055,2028,2035,2057,2030,2049,2071
2054,2052,2032,2082,2151,2066,2069,2075
2056,2055,2037,2099,2181,2075,2070,2088
2053,2050,2030,2102,2180,2074,2058,2087
2039,2036,2020,2098,2209,2065,2054,2090
2038,2032,2020,2085,2210,2063,2050,2089
2018,2010,1986,2062,2184,2048,2035,2089
2010,2000,1984,2062,2174,2053,2037,2107
2030,2041,2017,2082,2175,2076,2037,2105
2035,2042,2029,2084,2151,2078,2059,2107
2045,2044,2025,2077,2113,2068,2052,2096
2041,2030,2016,2056,2046,2052,2049,2086
2042,2043,2034,2051,1929,2026,2052,2080
2047,2056,2060,2055,1956,2033,2037,2065
2049,2061,2080,2056,2037,2046,2022,2050
2044,2057,2087,2058,2105,2034,2029,2039
2037,2051,2085,2055,2045,2012,2035,2030
2045,2067,2102,2058,1979,2014,2039,2034
2053,2063,2087,2050,1963,2020,2035,2024
2050,2058,2060,2040,1980,2031,2026,2012
2046,2056,2049,2039,2010,2051,2051,2008
2048,2049,2046,2031,2009,2055,2038,2003
2052,2046,2035,2015,1995,2050,2028,1982
2036,2032,2027,2011,1979,2041,2011,1987
2038,2032,2039,2031,2005,2041,2034,2017
2067,2069,2061,2068,2055,2016,2061,2024
2074,2069,2062,2084,2086,2027,2064,2029
2072,2063,2064,2083,2090,2055,2063,2029
2066,2046,2053,2082,2090,2079,2051,2026
2064,2040,2048,2085,2104,2093,2038,2021
2052,2051,2041,2078,2115,2093,2044,2028
2051,2044,2039,2069,2090,2086,2036,2029
2047,2033,2037,2070,2068,2077,2053,2038
2045,2042,2045,2082,2061,2045,2050,2068
2042,2046,2044,2077,2041,2026,2052,2076
2041,2047,2035,2081,2039,2047,2060,2076
2039,2044,2028,2083,2068,2062,2042,2082
2035,2041,2019,2060,2067,2051,2052,2086
2029,2042,2018,2044,2055,2057,2048,2090
2019,2021,1996,2006,2031,2043,2034,2091
2018,2010,1994,1986,2008,2003,2010,2107
2040,2043,2021,1985,2006,2011,2033,2118
2054,2061,2050,1987,2007,2017,2034,2125
2052,2060,2058,1986,2010,2026,2041,2112
2043,2063,2058,1988,2031,2044,2041,2097
2043,2060,2059,2016,2038,2063,2054,2076
2046,2057,2065,2034,2041,2063,2044,2066
2047,2061,2077,2042,2045,2066,2049,2056
2046,2064,2081,2041,2044,2064,2053,2055
2043,2054,2077,2040,2028,2059,2033,2044
2046,2056,2067,2036,2046,2048,2037,2038
2048,2046,2054,2034,2075,2053,2057,2034
2045,2044,2044,2038,2080,2058,2040,2018
2045,2044,2035,2033,2059,2052,2035,2017
2044,2041,2036,2032,2060,2046,2039,2015
2044,2035,2035,2040,2092,2043,2021,2005
2030,2010,2023,2033,2105,2040,2021,1998
2023,2016,2032,2037,2080,2042,2053,2015
2054,2052,2047,2055,2048,2036,2054,2018
2061,2058,2045,2061,2065,2048,2052,2023
2067,2053,2047,2071,2068,2045,2034,2021
2060,2054,2043,2059,2056,2040,2035,2021
2050,2048,2039,2056,2047,2045,2049,2027
2053,2045,2040,2060,2008,2053,2045,2031
2049,2052,2039,2076,1988,2067,2060,2046
2058,2060,2035,2086,2029,2064,2062,2050
2055,2054,2040,2078,2028,2056,2055,2055
2055,2055,2043,2075,2040,2056,2061,2065
2057,2046,2048,2064,2062,2059,2060,2084
2041,2042,2041,2054,2064,2055,2063,2091
2052,2054,2052,2045,2023,2043,2070,2093
2045,2058,2069,2044,2032,2046,2066,2101
2050,2054,2067,2032,2012,2036,2043,2098
2029,2033,2044,2011,2001,2028,2043,2100
2030,2025,2039,2012,2000,2036,2046,2115
2049,2053,2068,2021,2010,2034,2043,2110
2050,2050,2069,2025,2022,2039,2040,2099
2044,2050,2067,2046,2070,2050,2042,2096
2045,2043,2057,2050,2086,2049,2047,2085
2040,2038,2053,2054,2065,2046,2041,2075
2038,2034,2060,2053,2060,2042,2038,2069
2041,2039,2048,2056,2081,2049,2059,2054
2047,2039,2049,2062,2107,2060,2057,2045
2047,2035,2043,2058,2088,2057,2070,2041
2046,2031,2031,2047,2073,2062,2072,2031
2045,2029,2014,2047,2078,2061,2069,2023
2043,2022,2011,2041,2071,2063,2056,2021
2040,2024,2018,2053,2063,2058,2045,2014
2044,2029,2032,2063,2088,2061,2053,2013
2045,2021,2015,2049,2079,2050,2036,1994
2027,2006,2002,2037,2071,2047,2023,1995
2032,2012,2008,2039,2072,2050,2063,2012
2047,2029,2010,2037,2047,2025,2048,2009
2047,2027,2003,2032,2035,2030,2062,2005
2045,2022,2002,2030,2039,2044,2065,2009
2041,2020,2003,2023,2006,2035,2051,2010
2041,2022,2006,2011,1971,2027,2058,2018
2032,2014,2007,2013,1993,2037,2049,2022
2034,2023,2006,2015,2041,2049,2054,2039
2047,2023,2014,2021,2070,2059,2055,2047
2049,2038,2018,2031,2091,2064,2063,2073
2049,2043,2029,2032,2113,2062,2056,2091
2054,2056,2041,2039,2129,2062,2060,2104
2057,2061,2051,2038,2113,2061,2058,2112
2052,2062,2068,2047,2118,2064,2073,2118
2056,2066,2077,2064,2100,2056,2051,2114
2027,2038,2068,2053,2062,2027,2035,2112
2026,2033,2057,2043,2064,2020,2033,2124
2047,2054,2061,2052,2076,2033,2027,2123
2042,2055,2054,2059,2089,2056,2055,2122
2050,2065,2045,2062,2056,2066,2059,2116
2052,2062,2045,2042,1970,2050,2057,2103
2059,2072,2056,2016,1873,2034,2052,2093
2056,2074,2056,2005,1917,2020,2036,2078
2060,2072,2046,2004,1977,2011,2035,2071
2058,2061,2038,2017,2008,2032,2045,2058
2061,2056,2042,2030,2016,2044,2034,2055
2061,2058,2047,2033,1998,2037,2038,2043
2057,2052,2051,2031,1994,2028,2060,2029
2047,2047,2060,2047,1998,2036,2048,2026
2047,2041,2065,2073,2034,2043,2039,2017
2047,2039,2069,2078,2024,2049,2055,1999
2038,2029,2041,2042,1960,2027,2032,1980
2016,2010,2026,2027,1929,2033,2029,1980
2017,2032,2053,2055,2001,2073,2054,1993
2040,2055,2066,2068,2033,2072,2054,1995
2039,2051,2064,2070,2074,2047,2051,2014
2050,2051,2064,2093,2135,2052,2061,2026
2056,2056,2058,2104,2167,2061,2063,2033
2053,2053,2039,2089,2161,2073,2077,2040
2043,2044,2034,2068,2154,2060,2069,2038
2035,2046,2017,2037,2113,2020,2056,2036
2032,2030,1996,2007,2050,2015,2059,2045
2030,2026,1987,2011,2037,2033,2076,2063
2034,2036,2001,2032,2052,2054,2076,2088
2044,2054,2045,2052,2058,2068,2088,2103
2056,2078,2058,2060,2053,2076,2079,2109
2058,2071,2055,2050,2045,2070,2075,2115
2047,2052,2037,2034,2042,2033,2037,2096
2026,2021,2002,1991,2029,2016,2028,2100
2024,2017,1995,1982,2003,2011,2056,2116
2043,2045,2019,2000,2026,2031,2038,2111
2036,2042,2021,2003,2039,2044,2050,2119
2052,2059,2039,2009,2066,2042,2060,2116
2064,2069,2052,2032,2102,2055,2065,2110
2065,2076,2064,2056,2137,2061,2056,2093
2062,2064,2063,2074,2174,2091,2051,2073
2059,2051,2054,2090,2174,2097,2068,2054
2051,2046,2048,2096,2181,2099,2061,2042
2050,2049,2055,2099,2156,2083,2045,2036
2055,2052,2056,2088,2138,2077,2054,2024
2049,2047,2047,2078,2121,2060,2046,2013
2041,2037,2025,2064,2057,2033,2046,2006
2037,2031,2024,2055,1967,2022,2051,1994
2042,2031,2018,2046,1970,2028,2040,1981
2033,2012,1997,2043,1975,2011,2023,1978
2032,2007,1975,2039,1991,2015,2026,1982
2041,2035,1985,2052,2012,2041,2044,1990
2046,2039,1981,2039,1987,2042,2047,1989
2041,2035,1981,2021,1959,2032,2009,1992
2040,2032,1969,1983,1928,2029,2005,1986
2037,2030,1966,1973,1926,2041,2024,2003
2040,2039,1970,1981,1951,2048,2045,2019
2051,2040,1983,2000,2022,2060,2044,2040
2048,2043,1984,1993,2072,2101,2047,2035
2039,2030,1986,1988,2086,2126,2061,2054
2053,2050,2052,2045,2131,2109,2060,2078
2070,2076,2111,2088,2148,2070,2054,2095
2072,2088,2114,2104,2156,2028,2079,2124
2070,2082,2115,2099,2144,2043,2078,2122
2070,2069,2111,2063,2090,2048,2064,2115
2052,2044,2086,2019,2042,2015,2016,2094
2027,2024,2065,2019,2025,2006,2036,2101
2041,2038,2074,2042,2052,2050,2060,2119
2058,2056,2070,2063,2111,2078,2066,2120
2061,2060,2073,2087,2155,2088,2068,2112
2054,2059,2068,2080,2147,2083,2069,2105
2054,2056,2056,2051,2121,2071,2039,2089
2053,2053,2050,2050,2125,2064,2049,2076
2050,2049,2051,2051,2124,2050,2047,2062
2053,2053,2053,2037,2082,2033,2048,2050
2052,2061,2061,2030,2038,2031,2042,2050
2059,2063,2075,2042,2034,2039,2044,2047
2064,2065,2083,2040,2036,2045,2048,2045
2062,2065,2073,2031,2063,2067,2064,2028
2055,2059,2063,2020,2049,2077,2052,2018
2057,2056,2055,2005,2018,2077,2060,2021
2057,2051,2058,1989,1878,2044,2040,2001
2051,2034,2035,1980,1776,2018,2035,2006
2048,2026,2032,2014,1874,1993,2053,2019
2067,2045,2049,2052,2014,2000,2036,2014
2058,2040,2029,2059,2101,2012,2047,2010
2059,2042,2029,2082,2137,2047,2052,2011
2060,2041,2038,2074,2109,2054,2045,2002
2058,2040,2035,2061,2098,2054,2059,2017
2050,2047,2045,2064,2072,2025,2050,2033
2050,2052,2041,2065,2074,2025,2052,2036
2045,2040,2028,2056,2104,2028,2042,2048
2050,2036,2036,2060,2114,2041,2051,2067
2051,2048,2055,2075,2117,2062,2044,2075
2052,2053,2085,2088,2118,2070,2065,2082
2059,2056,2089,2092,2133,2067,2050,2082
2047,2055,2070,2094,2128,2059,2019,2095
2052,2047,2047,2080,2097,2051,2039,2100
2037,2017,2000,2056,2056,2030,2023,2093
2024,2003,1991,2073,2085,2031,2021,2100
2043,2035,2015,2106,2104,2062,2046,2120
2052,2052,2027,2111,2088,2074,2065,2115
2053,2054,2028,2106,2066,2068,2057,2104
2053,2053,2021,2087,2020,2054,2057,2097
2049,2047,2015,2081,1999,2045,2048,2079
2047,2045,2011,2064,2031,2048,2057,2072
2053,2049,2025,2031,1988,2046,2054,2058
2048,2048,2015,1978,1884,2029,2050,2044
2052,2054,2028,1967,1954,2030,2041,2041
2054,2059,2037,1975,1994,2054,2061,2044
2068,2076,2055,1992,1947,2056,2074,2035
2062,2064,2066,1994,1933,2047,2060,2028
2061,2047,2069,2001,1964,2040,2061,2020
2049,2050,2067,2012,1967,2025,2034,2006
2042,2026,2064,2001,1918,1981,2011,1984
2028,2020,2071,1993,1915,1969,1995,1981
2029,2045,2097,2026,2006,2009,2014,1993
2054,2066,2103,2079,2144,2034,2040,2000
2059,2066,2102,2112,2190,2056,2058,2006
2058,2063,2099,2106,2138,2058,2055,2017
2061,2062,2080,2084,2077,2055,2045,2028
2055,2060,2069,2074,2073,2045,2040,2028
2051,2053,2054,2060,2081,2051,2054,2038
2055,2053,2052,2046,2070,2053,2069,2044
2051,2057,2053,2039,2042,2059,2061,2055
2054,2058,2065,2042,2047,2056,2056,2073
2052,2058,2065,2039,2080,2074,2061,2088
2053,2049,2055,2034,2073,2078,2041,2104
2056,2055,2050,2028,2055,2071,2053,2107
2065,2051,2044,2029,2033,2065,2069,2110
2058,2042,2024,2036,2045,2054,2045,2109
2027,2009,2013,2035,2035,2044,2028,2106
2031,2022,2030,2040,2005,2040,2044,2126
2052,2049,2045,2036,1997,2037,2043,2120
2054,2051,2053,2025,2008,2041,2050,2107
2058,2048,2057,2034,2074,2053,2058,2095
2061,2055,2047,2039,2104,2062,2047,2082
2054,2050,2047,2042,2116,2074,2048,2074
2052,2048,2051,2053,2122,2077,2055,2062
2059,2045,2045,2060,2114,2073,2058,2050
2055,2039,2043,2053,2094,2063,2050,2033
2053,2040,2048,2052,2071,2058,2035,2031
2053,2050,2046,2045,2057,2042,2038,2025
2057,2053,2048,2043,2045,2040,2036,2011
2051,2041,2042,2034,2031,2034,2022,2002
2049,2037,2039,2025,2041,2041,2025,2009
2056,2041,2037,2030,2045,2041,2027,1989
2034,2013,2012,2019,2024,2033,2020,1980
2026,2004,2008,2011,2029,2043,2042,1988
2038,2027,2036,2031,2043,2057,2045,1990
2037,2029,2031,2031,2048,2058,2048,2002
2037,2036,2034,2035,2057,2057,2040,2011
2041,2045,2036,2046,2056,2055,2053,2020
2052,2050,2046,2045,2047,2053,2049,2026
2055,2050,2051,2046,2060,2057,2058,2041
2059,2044,2051,2047,2050,2053,2045,2040
2053,2044,2053,2049,2060,2049,2047,2052
2053,2038,2050,2053,2065,2038,2048,2059
2046,2041,2048,2050,2062,2041,2046,2069
2041,2040,2052,2046,2064,2044,2052,2081
2040,2045,2049,2041,2061,2048,2035,2089
2036,2042,2050,2034,2060,2047,2039,2097
2042,2037,2040,2036,2055,2045,2034,2101
2031,2020,2015,2016,2036,2025,2035,2096
2025,2012,2012,2024,2036,2028,2053,2108
2039,2034,2027,2051,2054,2055,2054,2116
2050,2044,2041,2054,2055,2059,2050,2110
2056,2050,2043,2052,2046,2045,2058,2100
2050,2042,2034,2055,2037,2042,2043,2091
2047,2038,2028,2056,2040,2040,2036,2078
2046,2039,2030,2056,2039,2045,2042,2075
2051,2033,2033,2062,2050,2049,2030,2053
2049,2029,2030,2071,2039,2049,2038,2049
2048,2030,2042,2078,2045,2046,2049,2034
2050,2038,2062,2088,2050,2052,2037,2028
2047,2034,2059,2092,2055,2053,2039,2029
2040,2034,2065,2085,2052,2058,2039,2013
2052,2034,2070,2072,2049,2052,2040,2013
2051,2041,2075,2066,2040,2044,2040,2010
2041,2020,2048,2042,2029,2027,2023,1992
2037,2022,2046,2036,2024,2030,2040,1993
2059,2060,2072,2053,2045,2057,2051,2017
2062,2066,2070,2057,2043,2050,2038,2012
2060,2063,2057,2051,2042,2053,2049,2024
2062,2059,2052,2047,2049,2064,2066,2027
2067,2066,2052,2044,2042,2060,2068,2043
2073,2072,2060,2041,2054,2070,2074,2052
2069,2064,2051,2014,2051,2060,2074,2056
2065,2061,2039,2009,2047,2061,2071,2061
2061,2057,2041,2000,2044,2057,2064,2070
2058,2061,2039,2003,2049,2058,2059,2084
2069,2066,2042,2006,2051,2064,2061,2097
2060,2061,2035,2009,2066,2053,2035,2111
2054,2058,2043,2018,2079,2053,2046,2108
2056,2059,2051,2024,2053,2056,2037,2107
2037,2037,2038,2010,1993,2034,2029,2100
2034,2031,2040,2005,1957,2021,2017,2110
2040,2050,2052,2002,1928,2030,2021,2105
2037,2051,2049,1994,1899,2005,2023,2105
2048,2057,2054,2006,1924,1993,2027,2097
2052,2058,2056,2019,1978,2026,2044,2089
2061,2063,2068,2046,2034,2073,2057,2084
2061,2067,2080,2056,2074,2099,2048,2080
2065,2072,2076,2064,2094,2100,2062,2071
2064,2062,2065,2063,2087,2062,2059,2061
2063,2057,2048,2069,2107,2036,2070,2050
2060,2054,2040,2076,2102,2040,2060,2041
2051,2043,2035,2061,2117,2053,2046,2024
2049,2031,2019,2052,2125,2056,2043,2016
2049,2030,2019,2055,2104,2058,2050,2012
2054,2037,2024,2066,2068,2058,2055,2008
2046,2019,2006,2062,2041,2045,2026,1999
2035,2013,2009,2056,2043,2056,2033,2010
2056,2040,2029,2069,2053,2076,2047,2012
2061,2040,2035,2062,2060,2074,2036,2013
2058,2037,2036,2075,2067,2075,2043,2013
2057,2033,2038,2085,2064,2083,2059,2021
2053,2034,2034,2088,2060,2074,2058,2015
2046,2037,2034,2083,2069,2067,2058,2029
2047,2045,2041,2082,2083,2050,2046,2035
2054,2058,2058,2096,2096,2054,2058,2056
2064,2061,2064,2102,2101,2059,2064,2064
2045,2054,2057,2086,2070,2061,2063,2067
2047,2037,2034,2062,2066,2072,2062,2081
2037,2024,2013,2036,2081,2081,2061,2092
2037,2027,2010,2019,2098,2080,2039,2098
2032,2035,2030,2001,2073,2072,2029,2101
2028,2034,2049,1984,2024,2026,2030,2109
2032,2051,2072,1994,2029,1998,2042,2124
2061,2084,2116,2008,2025,2019,2052,2122
2061,2076,2105,1994,1998,2024,2053,2114
2051,2071,2096,1968,1917,2021,2016,2100
2054,2075,2085,1966,1808,2023,2024,2087
2055,2074,2083,1973,1772,2027,2026,2078
2052,2068,2079,1986,1838,2042,2057,2062
2055,2062,2069,2003,1949,2016,2033,2052
2054,2064,2068,2047,2120,2004,2045,2047
2048,2063,2069,2059,2145,2020,2040,2029
2052,2065,2068,2045,2115,2040,2044,2033
2053,2064,2065,2041,2114,2071,2038,2019
2041,2051,2044,2024,2118,2079,2036,2013
2044,2055,2058,2054,2134,2055,2062,2020
2055,2068,2066,2082,2152,2045,2055,2014
2048,2041,2042,2075,2129,2023,2034,2012
2043,2036,2023,2068,2131,2040,2039,2003
2050,2056,2044,2071,2128,2079,2061,2004
2057,2054,2044,2038,2010,2056,2058,2004
2044,2053,2047,2028,1927,2049,2058,2005
2042,2057,2057,2037,1967,2053,2064,2004
2054,2058,2043,2038,2020,2053,2054,2015
2050,2057,2040,2050,2056,2054,2050,2022
2057,2059,2028,2052,2067,2058,2068,2034
2059,2050,2028,2043,2071,2058,2082,2047
2052,2050,2033,2035,2044,2056,2072,2052
2053,2054,2041,2047,2052,2065,2051,2068
2054,2057,2050,2056,2060,2082,2074,2089
2056,2055,2051,2067,2057,2098,2072,2101
2059,2067,2074,2085,2080,2118,2083,2117
2069,2084,2094,2096,2094,2140,2093,2127
2063,2065,2085,2084,2099,2130,2061,2120
2045,2050,2068,2070,2150,2118,2052,2112
2041,2068,2077,2073,2177,2120,2059,2118
2053,2060,2072,2039,2011,2056,2044,2100
2045,2048,2051,1974,1795,1968,2020,2084
2038,2042,2049,1969,1733,1924,2017,2076
2040,2050,2061,2021,1864,1979,2007,2065
2035,2049,2053,2040,1918,2008,2004,2049
2037,2039,2050,2030,1973,2040,2029,2042
2049,2047,2054,2036,2002,2064,2046,2031
2052,2055,2064,2044,2050,2057,2048,2037
2056,2059,2070,2054,2135,2022,2072,2039
2055,2061,2061,2062,2182,2032,2066,2031
2044,2052,2044,2048,2152,2048,2053,2016
2049,2040,2039,2044,2156,2049,2037,2009
2046,2048,2040,2040,2128,2043,2054,2002
2042,2030,2026,2025,2087,2045,2032,1989
2021,2017,2019,2028,2034,2041,2029,1974
2015,2023,2031,2041,1998,2041,2055,1984
2029,2047,2042,2046,1983,2030,2062,1987
2032,2047,2042,2032,1965,2027,2053,1981
2025,2042,2042,2021,1990,2041,2054,1991
2030,2039,2039,2022,2003,2048,2066,2006
2035,2044,2043,2029,2011,2058,2079,2016
2048,2052,2041,2038,2021,2064,2075,2029
2058,2045,2040,2037,2032,2062,2087,2045
2053,2053,2043,2039,2048,2058,2088,2059
2056,2053,2046,2054,2043,2062,2082,2069
2049,2044,2046,2047,2032,2058,2085,2081
2042,2038,2042,2043,2022,2048,2072,2086
2044,2030,2039,2042,2004,2042,2071,2092
2047,2034,2037,2043,1998,2040,2044,2093
2038,2033,2032,2032,1990,2023,2042,2098
2019,2022,2023,2033,2008,2025,2039,2104
2028,2026,2042,2052,2033,2052,2061,2119
2050,2069,2063,2063,2073,2060,2056,2111
2039,2061,2062,2069,2074,2064,2059,2111
2036,2062,2058,2064,2069,2064,2075,2106
2042,2061,2047,2052,2070,2056,2072,2094
2055,2064,2049,2034,2064,2053,2064,2085
2057,2066,2052,2031,2060,2063,2072,2076
2057,2070,2056,2048,2051,2063,2071,2067
2056,2063,2058,2046,2034,2056,2065,2054
2052,2059,2057,2039,2026,2044,2056,2038
2049,2069,2057,2038,2027,2043,2057,2033
2060,2067,2060,2040,2032,2046,2058,2027
2052,2066,2057,2046,2037,2044,2055,2023
2054,2063,2054,2051,2039,2046,2056,2021
2052,2064,2054,2046,2045,2039,2022,2000
2037,2034,2032,2031,2029,2036,2031,1995
2043,2034,2031,2029,2032,2042,2046,2007
2056,2058,2052,2047,2046,2050,2061,2009
2063,2064,2054,2046,2050,2054,2057,2015
2052,2065,2056,2043,2047,2059,2044,2014
2047,2060,2057,2049,2053,2059,2042,2026
2048,2058,2052,2055,2057,2058,2049,2028
2052,2057,2053,2048,2060,2058,2039,2042
2054,2059,2052,2052,2057,2060,2036,2049
2058,2061,2052,2051,2061,2061,2040,2058
2059,2055,2054,2055,2067,2064,2038,2072
2059,2056,2057,2051,2062,2062,2053,2082
2055,2056,2051,2047,2056,2063,2063,2086
2056,2053,2041,2061,2060,2059,2074,2098
2045,2049,2059,2076,2066,2058,2057,2104
2048,2044,2065,2087,2060,2048,2045,2097
2027,2016,2049,2079,2047,2037,2042,2100
2025,2016,2048,2085,2055,2055,2057,2110
2047,2044,2073,2106,2054,2055,2056,2107
2047,2043,2065,2117,2058,2052,2054,2097
2050,2039,2053,2120,2052,2055,2054,2088
2045,2041,2034,2125,2056,2054,2052,2082
2051,2041,2012,2115,2046,2050,2051,2074
2052,2044,2011,2112,2055,2047,2052,2061
2056,2044,2005,2109,2051,2049,2055,2046
2051,2029,1982,2080,2045,2044,2056,2033
2043,2015,1968,2050,2026,2042,2046,2020
2042,2022,1988,2029,2025,2046,2039,2012
2041,2031,2006,2012,2019,2040,2042,2003
2043,2037,2013,1989,2020,2043,2045,2002
2055,2052,2024,1982,2028,2047,2050,2009
2060,2069,2045,1986,2008,2027,2023,2000
2052,2054,2044,1982,1991,2023,2029,1997
2053,2056,2046,1999,2005,2038,2039,2009
2069,2080,2065,2019,2009,2038,2041,2002
2067,2073,2061,2020,2016,2045,2059,2006
2064,2067,2071,2031,2034,2059,2057,2014
2068,2072,2078,2046,2054,2068,2052,2030
2069,2083,2087,2039,2049,2065,2042,2033
2074,2088,2096,2035,2052,2064,2067,2041
2071,2080,2089,2026,2058,2061,2060,2046
2068,2068,2081,2013,2059,2050,2053,2052
2054,2064,2072,2012,2056,2042,2049,2063
2058,2057,2063,2010,2057,2037,2051,2071
2054,2064,2056,2019,2066,2046,2062,2091
2054,2068,2063,2027,2073,2059,2060,2092
2058,2062,2060,2020,2058,2072,2050,2097
2047,2052,2049,2000,2024,2055,2033,2092
2026,2018,2038,1981,1997,2048,2031,2092
2021,2007,2044,1992,2013,2040,2046,2110
2045,2034,2067,2023,2027,2010,2063,2115
2042,2034,2070,2026,2036,2007,2056,2104
2044,2039,2065,2024,2014,2008,2039,2089
2048,2043,2068,2040,1997,2011,2047,2083
2050,2042,2068,2041,1996,2011,2047,2060
2045,2033,2057,2034,2006,2022,2029,2042
2037,2026,2050,2040,2040,2058,2065,2035
2047,2025,2040,2050,2065,2070,2066,2031
2041,2028,2028,2055,2082,2073,2049,2028
2045,2030,2025,2064,2090,2084,2041,2026
2048,2037,2013,2062,2079,2076,2043,2013
2050,2035,1990,2055,2058,2052,2046,2012
2043,2028,1979,2041,2049,2045,2050,2010
2040,2020,1971,2016,2033,2035,2009,1991
2022,1993,1932,1987,2016,2030,2016,1979
2021,2002,1936,1973,2016,2055,2059,1994
2046,2035,1960,1982,2035,2063,2072,2001
2045,2042,1974,1975,2025,2067,2090,2008
2058,2059,2008,1997,2040,2072,2073,2020
2057,2069,2049,2012,2055,2070,2070,2019
2072,2075,2081,2022,2066,2069,2069,2022
2063,2073,2082,2022,2067,2065,2065,2025
2057,2076,2082,2031,2073,2057,2063,2033
2064,2076,2099,2042,2076,2061,2059,2051
2065,2074,2103,2041,2063,2060,2042,2062
2065,2074,2096,2032,2050,2068,2054,2067
2056,2066,2093,2019,2025,2071,2062,2079
2053,2058,2092,2005,1994,2066,2064,2090
2048,2052,2108,2004,1982,2059,2041,2095
2048,2048,2096,2000,1974,2030,2024,2090
2030,2025,2071,2006,1994,2006,2008,2094
2031,2036,2068,2042,2061,2028,2050,2114
2052,2074,2101,2063,2095,2061,2079,2113
2053,2071,2096,2057,2111,2077,2072,2104
2053,2066,2085,2055,2112,2084,2076,2096
2052,2057,2078,2056,2087,2076,2066,2083
2055,2052,2075,2049,2071,2067,2056,2071
2050,2059,2078,2052,2087,2060,2068,2069
2053,2063,2081,2052,2084,2046,2056,2049
2047,2063,2077,2047,2080,2034,2056,2040
2052,2057,2073,2043,2086,2043,2052,2029
2058,2055,2063,2044,2094,2058,2035,2019
2058,2056,2056,2044,2079,2052,2023,2013
2058,2052,2056,2048,2056,2056,2025,2009
2053,2049,2060,2051,1956,2035,2034,1999
2049,2041,2055,2049,1917,2005,2023,1981
2022,2005,2031,2053,1989,2024,2016,1980
2019,2009,2042,2067,1998,2045,2046,1990
2045,2047,2060,2088,2024,2050,2051,1986
2048,2049,2062,2094,2038,2053,2042,1995
2045,2053,2079,2099,2044,2042,2037,2005
2055,2055,2066,2092,2043,2038,2037,2017
2054,2047,2068,2088,2078,2040,2064,2025
2058,2040,2055,2092,2132,2044,2058,2030
2048,2030,2036,2086,2140,2068,2065,2029
2049,2030,2034,2075,2112,2075,2070,2035
2050,2043,2054,2071,2021,2028,2042,2054
2058,2063,2074,2058,2002,2030,2045,2074
2060,2061,2068,2055,2029,2035,2045,2086
2049,2046,2049,2046,2046,2022,2049,2084
2041,2043,2035,2039,2059,2044,2061,2084
2035,2036,2014,1997,2036,2031,2033,2082
2016,2010,1990,1979,2038,2030,2036,2084
2020,2021,2022,1999,2067,2056,2036,2108
2047,2066,2053,2010,2065,2055,2034,2096
2055,2062,2049,2005,2051,2040,2033,2095
2049,2061,2044,1998,2044,2036,2036,2084
2045,2056,2039,1989,2036,2035,2031,2070
2049,2054,2047,2000,2036,2037,2035,2063
2051,2062,2063,2030,2044,2046,2047,2057
2054,2061,2060,2036,2055,2052,2040,2054
2052,2066,2061,2038,2059,2059,2042,2036
2060,2053,2056,2037,2059,2055,2055,2027
2056,2052,2055,2042,2058,2058,2070,2022
2050,2056,2059,2038,2053,2051,2049,2011
2049,2054,2057,2035,2047,2042,2049,2010
2038,2049,2052,2036,2042,2033,2049,2000
2045,2055,2047,2032,2043,2026,2016,1981
2026,2024,2029,2024,2042,2030,2015,1979
2024,2023,2028,2030,2035,2060,2045,1982
2045,2049,2055,2046,2024,2076,2047,1991
2044,2055,2065,2050,2014,2069,2057,1991
2049,2048,2060,2050,2004,2061,2045,1996
2040,2048,2060,2049,2021,2034,2045,2000
2050,2052,2053,2066,2056,2022,2053,2028
2060,2059,2065,2080,2100,2039,2058,2029
2058,2062,2059,2085,2113,2062,2075,2047
2053,2058,2064,2104,2116,2082,2061,2055
2050,2051,2070,2116,2102,2074,2086,2058
2057,2046,2079,2108,2082,2069,2086,2081
2052,2046,2078,2102,2089,2072,2078,2086
2049,2045,2073,2098,2100,2063,2059,2100
2045,2039,2060,2078,2102,2042,2065,2097
2042,2032,2055,2063,2075,2028,2040,2095
2026,2015,2023,2034,2035,2028,2030,2098
2018,2012,2012,2030,2035,2042,2038,2108
2048,2038,2013,2051,2044,2053,2053,2109
2043,2035,1999,2051,2018,2052,2052,2101
2040,2032,1994,2052,2006,2049,2069,2084
2034,2025,1983,2009,1922,2041,2065,2071
2026,2021,1971,1967,1839,2028,2060,2056
2026,2026,1970,1947,1861,2015,2017,2038
2025,2031,1981,1941,1972,2041,2026,2025
2032,2049,2001,1972,2068,2068,2056,2019
2044,2058,2024,2004,2102,2074,2052,2022
2050,2057,2022,2020,2098,2056,2037,2012
2043,2056,2016,2025,2100,2038,2035,2001
2033,2050,2007,2026,2085,2026,2055,1994
2033,2036,1993,2028,2059,2016,2057,1983
2027,2026,1996,2028,2045,2012,2024,1962
2010,2006,1991,2007,1975,2004,2028,1963
2019,2009,1998,2008,1978,2027,2054,1983
2053,2057,2060,2049,2030,2043,2066,1998
2056,2080,2102,2064,2050,2044,2056,2006
2061,2093,2123,2069,2058,2043,2058,2009
2054,2090,2116,2069,2074,2046,2053,2006
2053,2074,2109,2078,2105,2047,2063,2022
2063,2071,2097,2072,2109,2046,2070,2040
2063,2065,2080,2066,2108,2044,2073,2046
2065,2064,2080,2086,2158,2061,2080,2063
2072,2061,2079,2092,2144,2059,2076,2076
2068,2057,2075,2074,2093,2052,2085,2086
2063,2060,2074,2048,2064,2045,2075,2092
2063,2068,2087,2045,2046,2048,2071,2105
2063,2074,2085,2047,2038,2042,2069,2110
2061,2069,2078,2042,2028,2035,2061,2109
2048,2043,2048,2025,2017,2026,2049,2106
2047,2040,2052,2033,2025,2032,2065,2119
2062,2067,2075,2055,2048,2051,2072,2117
2062,2075,2079,2051,2048,2050,2070,2111
2063,2067,2075,2047,2053,2048,2041,2103
2059,2071,2078,2038,2047,2044,2057,2096
2060,2065,2069,2041,2054,2050,2047,2084
2056,2059,2059,2033,2041,2037,2038,2069
2056,2056,2047,2030,2040,2036,2041,2054
2053,2049,2042,2033,2037,2038,2038,2049
2056,2050,2040,2034,2039,2042,2052,2042
2055,2053,2046,2046,2048,2040,2050,2033
2057,2054,2043,2039,2047,2038,2049,2025
2053,2051,2037,2046,2051,2040,2039,2020
2050,2052,2036,2043,2049,2039,2042,2013
2056,2053,2044,2046,2047,2033,2043,2000
2040,2030,2023,2032,2033,2016,2021,1986
2043,2024,2020,2031,2044,2019,2028,1999
2061,2057,2035,2055,2066,2041,2055,2008
2061,2055,2036,2049,2068,2046,2045,2011
2060,2059,2042,2044,2071,2048,2030,2017
2060,2051,2043,2040,2070,2049,2033,2016
2054,2045,2038,2040,2071,2048,2048,2023
2055,2046,2054,2053,2080,2054,2055,2035
2054,2046,2058,2051,2073,2055,2049,2042
2055,2050,2060,2060,2076,2049,2048,2049
2051,2046,2059,2067,2085,2058,2037,2056
2050,2049,2060,2066,2077,2057,2056,2061
2056,2041,2044,2064,2081,2054,2040,2065
2042,2032,2029,2070,2071,2041,2034,2078
2030,2022,2030,2070,2060,2036,2029,2083
2030,2014,2029,2066,2055,2029,2037,2084
2015,1992,2007,2054,2039,2015,1997,2080
2009,1992,2005,2049,2044,2022,2019,2086
2025,2015,2026,2066,2054,2051,2031,2096
2039,2027,2035,2067,2050,2049,2064,2089
2042,2031,2042,2054,2046,2045,2049,2084
2038,2033,2041,2043,2042,2044,2036,2077
2038,2033,2052,2034,2037,2044,2042,2069
2042,2044,2060,2038,2044,2044,2063,2063
2053,2060,2068,2043,2045,2056,2060,2058
2064,2077,2083,2046,2058,2053,2048,2054
2061,2071,2082,2044,2059,2060,2059,2042
2057,2069,2073,2032,2054,2059,2053,2033
2060,2070,2077,2041,2069,2058,2033,2033
2060,2069,2078,2038,2056,2053,2056,2012
2058,2072,2071,2033,2052,2056,2045,2005
2060,2077,2080,2039,2047,2053,2050,2011
2058,2065,2078,2036,2028,2036,2034,1990
2036,2051,2081,2044,2029,2035,2031,1987
2041,2064,2094,2061,2047,2047,2049,2002
2058,2075,2088,2063,2060,2053,2046,2007
2063,2069,2076,2063,2059,2051,2050,2009
2057,2071,2071,2069,2058,2051,2053,2018
2060,2066,2067,2062,2057,2050,2055,2023
2058,2065,2064,2060,2053,2054,2052,2031
2053,2069,2057,2059,2062,2051,2051,2027
2048,2061,2053,2059,2063,2049,2060,2037
2041,2061,2050,2049,2071,2055,2066,2057
2045,2056,2047,2053,2070,2057,2057,2068
2049,2056,2043,2043,2070,2059,2076,2077
2049,2054,2045,2042,2070,2054,2060,2088
2050,2060,2050,2035,2070,2053,2061,2095
2047,2059,2039,2028,2063,2054,2058,2101
2055,2053,2033,2016,2058,2032,2035,2101
2021,2023,2018,2003,2041,2018,2014,2097
2023,2023,2038,2011,2050,2033,2032,2114
2045,2058,2077,2032,2054,2038,2043,2104
2052,2062,2075,2034,2057,2039,2039,2104
2055,2070,2083,2040,2052,2041,2040,2099
2056,2066,2068,2043,2047,2041,2053,2087
2051,2064,2062,2052,2050,2038,2045,2078
2044,2057,2064,2049,2053,2036,2039,2060
2052,2057,2065,2050,2056,2036,2037,2056
2052,2063,2059,2051,2052,2039,2042,2041
2048,2061,2056,2055,2054,2043,2046,2039
2050,2060,2056,2054,2058,2050,2046,2023
2054,2054,2041,2048,2056,2051,2045,2015
2046,2051,2032,2048,2050,2051,2035,2009
2036,2043,2033,2046,2056,2058,2027,2006
2048,2046,2027,2048,2060,2060,2045,1997
2037,2032,2013,2033,2041,2046,2027,1987
2032,2023,2015,2024,2037,2039,2016,1987
2028,2037,2036,2039,2058,2057,2043,1998
2047,2056,2043,2045,2062,2056,2029,2001
2044,2053,2040,2051,2058,2049,2046,2008
2050,2053,2025,2053,2060,2047,2038,2017
2048,2047,2027,2056,2059,2047,2048,2015
2052,2050,2033,2071,2060,2052,2032,2027
2049,2048,2039,2072,2067,2056,2044,2032
2052,2046,2026,2075,2074,2050,2049,2044
2047,2048,2028,2078,2071,2046,2056,2053
2044,2050,2031,2075,2072,2052,2053,2059
2050,2048,2033,2080,2072,2054,2060,2076
2051,2042,2032,2080,2074,2049,2054,2088
2051,2040,2021,2068,2078,2053,2058,2096
2045,2037,2016,2058,2073,2050,2045,2099
2043,2029,2004,2021,2040,2021,2020,2083
2023,1999,1969,1968,2019,2008,2009,2079
2019,2004,1981,1971,2026,2025,2049,2109
2051,2052,2051,1992,2037,2037,2050,2102
2057,2080,2099,2009,2042,2047,2037,2095
2055,2075,2104,2022,2043,2046,2045,2088
2051,2066,2090,2029,2036,2044,2039,2076
2043,2053,2071,2027,2037,2042,2033,2068
2038,2039,2045,2023,2036,2038,2037,2050
2039,2038,2042,2029,2039,2039,2043,2046
2037,2049,2063,2034,2041,2041,2049,2041
2044,2051,2073,2050,2043,2049,2045,2035
2046,2057,2075,2056,2054,2047,2037,2035
2056,2068,2084,2044,2042,2040,2025,2018
2047,2072,2082,2029,2034,2033,2025,2015
2047,2067,2080,2036,2028,2031,2010,2007
2047,2066,2071,2033,2023,2022,2021,1990
2030,2032,2034,2013,2016,2016,2019,1985
2022,2033,2034,2026,2041,2044,2034,2001
2053,2070,2067,2055,2074,2071,2059,2002
2054,2073,2066,2056,2054,2057,2058,2013
2054,2070,2068,2050,2049,2051,2071,2014
2056,2070,2066,2056,2048,2050,2080,2012
2059,2073,2067,2052,2044,2052,2071,2023
2056,2068,2065,2050,2051,2050,2063,2027
2053,2062,2056,2042,2051,2047,2053,2028
2048,2054,2051,2044,2072,2064,2050,2034
2044,2058,2061,2052,2088,2080,2054,2048
2040,2058,2064,2049,2092,2083,2053,2060
2039,2061,2056,2048,2106,2079,2072,2075
2041,2050,2049,2049,2109,2059,2074,2082
2039,2048,2046,2061,2115,2032,2082,2096
2035,2051,2046,2056,2100,2038,2082,2101
2037,2037,2030,2038,2059,2043,2051,2103
2027,2025,2020,2022,2034,2042,2059,2101
2048,2059,2042,2038,2043,2064,2082,2120
2057,2061,2044,2040,2057,2067,2075,2113
2052,2057,2034,2041,2049,2063,2079,2107
2046,2055,2032,2041,2044,2054,2086,2094
2044,2054,2030,2043,2042,2052,2081,2084
2054,2059,2035,2050,2047,2058,2083,2082
2059,2062,2031,2059,2043,2052,2066,2077
2064,2063,2036,2055,2049,2054,2060,2063
2063,2062,2039,2058,2060,2051,2063,2058
2062,2057,2033,2057,2053,2050,2054,2039
2056,2049,2037,2057,2056,2049,2035,2027
2052,2049,2036,2057,2048,2050,2028,2017
2046,2043,2043,2066,2053,2049,2040,2005
2048,2047,2052,2066,2045,2049,2035,1997
2046,2044,2055,2062,2031,2037,2013,1982
2020,2013,2029,2046,2012,2024,2013,1981
2014,2008,2018,2043,2011,2035,2014,1992
2038,2041,2039,2065,2028,2055,2027,1996
2041,2044,2045,2062,2027,2046,2029,1998
2043,2048,2042,2062,2029,2041,2043,2001
2046,2051,2042,2061,2027,2049,2049,2010
2042,2051,2050,2063,2024,2052,2029,2014
2045,2054,2045,2057,2014,2037,2044,2027
2049,2049,2045,2054,2016,2033,2037,2040
2053,2052,2060,2062,2046,2040,2046,2051
2058,2060,2069,2059,2056,2045,2020,2066
2056,2065,2076,2044,2071,2045,2027,2084
2055,2066,2076,2049,2093,2046,2056,2095
2058,2062,2082,2044,2094,2048,2059,2105
2057,2063,2078,2049,2084,2049,2056,2126
2058,2057,2068,2043,2078,2056,2041,2125
2046,2034,2054,2027,2041,2031,2026,2109
2035,2026,2051,2033,2038,2012,2021,2122
2051,2049,2074,2038,2049,2034,2048,2136
2057,2055,2072,2031,2035,2045,2035,2123
2045,2053,2068,2018,2013,2040,2060,2112
2044,2055,2069,2026,2007,2037,2051,2096
2049,2057,2080,2038,1961,2007,2058,2085
2047,2055,2080,2028,1928,1962,2036,2069
2042,2050,2066,2031,1947,1968,2047,2050
2045,2054,2069,2060,2033,2014,2047,2047
2057,2059,2069,2078,2086,2061,2056,2046
2056,2057,2056,2077,2115,2108,2068,2038
2050,2049,2045,2062,2113,2132,2090,2031
2047,2042,2038,2043,2087,2128,2076,2012
2037,2043,2027,2032,2068,2105,2054,2004
2043,2046,2028,2022,2052,2049,2020,1997
2042,2033,2005,2003,2035,1987,2007,1984
2028,2015,2002,2004,2029,1991,2001,1979
2025,2029,2017,2029,2050,2026,2030,2001
2049,2051,2033,2034,2053,2038,2042,2005
2046,2051,2036,2035,2056,2040,2037,2009
2050,2060,2039,2035,2054,2046,2053,2018
2056,2057,2038,2037,2050,2046,2055,2028
2051,2057,2041,2039,2052,2054,2053,2039
2055,2057,2045,2037,2055,2050,2056,2049
2052,2067,2052,2042,2056,2052,2054,2064
2054,2066,2051,2050,2049,2055,2049,2071
2065,2070,2052,2050,2054,2052,2060,2077
2063,2062,2042,2043,2041,2044,2055,2087
2055,2059,2034,2043,2054,2042,2056,2106
2060,2055,2037,2037,2086,2058,2054,2107
2054,2051,2031,2040,2118,2077,2039,2112
2047,2042,2009,2029,2101,2061,2034,2097
2022,2019,1999,2024,2080,2057,2029,2101
2020,2030,2020,2049,2064,2042,2048,2116
2048,2058,2042,2055,2047,2012,2047,2109
2050,2057,2045,2056,2003,2014,2048,2100
2044,2051,2043,2049,1941,2018,2040,2094
2044,2042,2036,2046,1895,2023,2039,2080
2041,2036,2046,2063,1974,2034,2053,2063
2044,2039,2060,2087,2055,2046,2045,2049
2041,2034,2057,2091,2083,2042,2044,2037
2043,2032,2060,2092,2104,2050,2037,2032
2056,2040,2073,2088,2091,2052,2039,2022
2044,2047,2078,2078,2074,2056,2020,2017
2043,2047,2075,2063,2074,2051,2035,2004
2043,2043,2057,2044,2048,2032,2015,1993
2036,2041,2055,2015,2019,2025,2034,1992
2030,2041,2042,2008,2021,2018,2030,1973
2017,2019,2014,1981,1943,2010,2030,1970
2014,2012,2008,1998,1965,2036,2056,1991
2036,2047,2026,2025,2027,2058,2064,1999
2046,2062,2032,2032,2056,2068,2084,2010
2056,2072,2043,2029,2072,2063,2081,2017
2061,2064,2037,2029,2085,2061,2077,2029
2059,2070,2040,2031,2098,2056,2065,2032
2061,2069,2040,2041,2079,2057,2055,2037
2049,2057,2036,2030,2062,2056,2073,2051
2046,2047,2032,2029,2028,2045,2069,2060
2045,2045,2032,2029,2018,2045,2076,2078
2049,2053,2039,2043,2040,2049,2066,2086
2042,2041,2015,2041,2103,2048,2065,2087
2035,2032,2003,2029,2106,2039,2062,2089
2033,2032,2009,2028,2071,2025,2052,2096
2043,2043,2020,2022,2036,2013,2037,2085
2032,2025,2022,2029,2065,2029,2037,2085
2033,2038,2064,2054,2106,2053,2057,2095
2051,2063,2080,2052,2124,2078,2064,2092
2048,2066,2101,2055,2128,2085,2042,2087
2046,2068,2100,2049,2047,2078,2052,2085
2047,2073,2097,2036,1922,2074,2047,2080
2051,2077,2099,2046,1952,2061,2062,2072
2056,2077,2103,2055,1985,2017,2049,2062
2055,2076,2092,2054,2004,2016,2053,2049
2053,2077,2090,2066,2035,2018,2045,2042
2050,2066,2081,2069,2049,2032,2057,2037
2048,2054,2061,2066,2046,2045,2064,2016
2043,2039,2047,2049,2040,2048,2053,1996
2038,2033,2038,2043,2046,2052,2050,1995
2031,2028,2025,2032,2054,2045,2053,1989
2027,2021,2006,2011,2035,2016,2025,1976
2019,2001,2006,1996,2047,2021,2043,1978
2025,2026,2019,1998,2034,2048,2067,1996
2050,2049,2020,1992,1977,2045,2059,1994
2045,2043,2030,1998,1966,2040,2050,1991
2036,2042,2026,2010,1994,2045,2062,1997
2036,2048,2026,2019,2014,2061,2044,2001
2044,2049,2027,2022,2016,2071,2076,2020
2045,2048,2020,2031,2019,2077,2072,2040
2046,2049,2002,2030,2025,2068,2062,2043
2046,2041,1984,2025,2025,2062,2060,2052
2049,2038,1987,2018,2045,2045,2072,2070
2050,2053,2002,2020,2073,2049,2073,2094
2059,2067,2019,2034,2090,2058,2076,2110
2063,2070,2029,2037,2080,2052,2073,2112
2060,2056,2028,2030,2046,2033,2057,2097
2045,2038,2006,2008,2014,2009,2032,2082
2015,2006,1996,1999,2010,2016,2029,2081
2016,2020,2009,2010,2026,2039,2052,2093
2027,2031,2033,2018,2036,2044,2042,2100
2041,2047,2067,2043,2057,2051,2046,2095
2038,2058,2094,2061,2065,2047,2040,2082
2045,2061,2096,2050,2047,2038,2034,2066
2043,2052,2078,2038,2040,2030,2027,2065
2030,2044,2063,2030,2038,2040,2039,2040
2030,2040,2065,2035,2038,2043,2031,2037
2037,2039,2076,2046,2043,2047,2037,2033
2048,2048,2090,2052,2047,2047,2033,2029
2046,2056,2087,2052,2050,2052,2041,2023
2043,2053,2086,2049,2050,2049,2043,2008
2045,2057,2076,2043,2046,2050,2047,2002
2046,2060,2067,2045,2038,2051,2048,2006
2035,2037,2048,2028,2020,2029,2022,1985
2027,2031,2043,2025,2016,2024,2023,1979
2032,2048,2062,2041,2036,2040,2049,2000
2045,2061,2071,2049,2038,2046,2057,2013
2047,2065,2082,2047,2041,2045,2053,2011
2052,2068,2086,2043,2046,2046,2057,2019
2054,2065,2081,2044,2050,2048,2065,2024
2056,2061,2069,2042,2066,2059,2061,2034
2046,2057,2062,2041,2067,2060,2063,2044
2044,2051,2055,2047,2077,2059,2056,2059
2040,2048,2058,2049,2073,2053,2048,2063
2041,2049,2057,2045,2061,2045,2034,2074
2048,2049,2060,2049,2057,2043,2029,2087
2045,2046,2057,2048,2058,2042,2035,2093
2041,2047,2058,2037,2046,2052,2025,2095
2033,2043,2049,2029,2047,2067,2049,2098
2024,2031,2033,2022,2020,2052,2039,2096
2020,2023,2034,2026,2003,2048,2024,2097
2027,2042,2055,2042,2001,2065,2035,2095
2030,2046,2062,2043,2011,2043,2021,2094
2033,2046,2065,2056,2033,2011,2017,2090
2040,2054,2062,2069,2071,2022,2012,2089
2040,2053,2064,2075,2089,2046,2028,2080
2041,2049,2061,2076,2082,2055,2017,2060
2037,2046,2059,2073,2074,2043,2018,2047
2040,2045,2054,2070,2063,2035,2014,2034
2040,2043,2058,2081,2065,2031,2019,2026
2043,2049,2062,2074,2065,2035,2036,2023
2045,2045,2052,2066,2063,2043,2048,2016
2042,2044,2030,2044,2049,2052,2033,2000
2037,2042,2011,2033,2044,2073,2054,1997
2035,2042,2006,2021,2037,2076,2047,1991
2028,2024,1994,2011,1993,2054,2024,1980
2024,2029,1995,2014,2021,2050,2033,1994
2046,2050,2013,2041,2080,2034,2066,2011
2055,2057,2019,2042,2073,2038,2070,2012
2053,2053,2006,2034,2069,2039,2049,2011
2052,2052,2008,2010,2046,2040,2056,2020
2048,2050,2018,2016,2047,2045,2036,2015
2052,2059,2045,2028,2070,2051,2048,2028
2056,2069,2062,2021,2057,2043,2044,2035
2054,2065,2056,2012,2058,2043,2048,2049
2046,2061,2046,2025,2081,2065,2058,2069
2046,2060,2060,2041,2080,2074,2058,2077
2052,2054,2065,2045,2079,2077,2056,2090
2049,2051,2068,2044,2083,2075,2054,2100
2049,2053,2082,2042,2080,2069,2051,2112
2050,2056,2097,2049,2077,2059,2046,2103
2032,2031,2083,2028,2061,2043,2030,2102
2032,2035,2084,2029,2058,2043,2048,2120
2054,2059,2099,2048,2073,2054,2050,2115
2052,2058,2090,2042,2068,2043,2045,2109
2050,2059,2079,2039,2062,2029,2048,2103
2041,2050,2070,2037,2055,2026,2045,2092
2044,2045,2062,2039,2047,2021,2042,2073
2043,2044,2058,2035,2046,2014,2033,2068
2043,2037,2057,2035,2032,2010,2032,2058
2044,2042,2056,2033,2032,2011,2038,2048
2046,2039,2048,2029,2017,2010,2032,2039
2040,2044,2048,2020,2018,2021,2037,2029
2041,2035,2048,2023,2047,2034,2028,2011
2033,2034,2041,2022,2071,2053,2042,2005
2039,2034,2037,2025,2057,2063,2040,2004
2040,2030,2041,2031,2068,2056,2042,1990
2021,2011,2019,2022,2047,2052,2041,1985
2017,2003,2016,2020,2029,2052,2042,1985
2034,2033,2027,2040,2056,2056,2051,1987
2033,2029,2017,2040,2052,2056,2053,1993
2040,2032,2013,2040,1995,2044,2051,2002
2036,2032,2012,2027,1903,2019,2047,2007
2034,2032,2008,2031,1954,2025,2056,2011
2045,2041,2019,2045,2048,2048,2035,2026
2048,2042,2021,2046,2061,2042,2025,2036
2048,2041,2016,2042,2076,2052,2042,2050
2044,2041,2014,2049,2102,2060,2043,2059
2038,2037,2017,2051,2109,2060,2042,2069
2042,2040,2024,2049,2103,2066,2038,2083
2045,2038,2030,2040,2067,2075,2046,2097
2041,2055,2046,2034,2056,2068,2034,2104
2043,2051,2056,2028,2026,2036,2002,2085
2020,2027,2032,2007,1995,2012,1987,2078
2017,2019,2017,2007,2015,2023,2011,2099
2038,2045,2041,2026,2068,2036,2026,2095
2039,2043,2047,2030,2077,2024,2032,2097
2037,2042,2056,2032,2067,2020,2037,2096
2045,2050,2071,2026,2006,2001,2037,2084
2043,2052,2086,2027,1939,1995,2036,2068
2047,2061,2083,2036,1974,2010,2030,2056
2045,2058,2085,2050,2039,2026,2041,2045
2052,2055,2080,2056,2066,2036,2033,2033
2047,2051,2075,2067,2115,2036,2038,2026
2043,2047,2067,2068,2152,2039,2039,2017
2043,2048,2063,2056,2146,2036,2034,2004
2031,2045,2066,2032,2096,2024,2021,1991
2034,2036,2062,2018,2010,2021,2014,1986
2034,2035,2058,2026,2012,2009,2007,1974
2026,2014,2048,2021,1998,1983,2010,1975
2025,2026,2058,2039,2020,1997,2034,1998
2054,2064,2091,2073,2072,2028,2042,2007
2056,2064,2092,2056,1993,2044,2054,2008
2055,2067,2097,2061,1995,2065,2069,2019
2067,2073,2096,2078,2066,2088,2067,2022
2065,2076,2096,2087,2091,2094,2064,2028
2064,2078,2088,2085,2121,2088,2062,2038
2070,2071,2085,2084,2151,2070,2064,2050
2064,2067,2071,2070,2137,2052,2055,2056
2057,2064,2065,2048,2076,2043,2050,2068
2058,2067,2058,2048,2081,2050,2076,2083
2057,2058,2047,2043,2046,2054,2062,2090
2048,2056,2034,2023,1990,2039,2067,2096
2045,2047,2019,2004,1929,2010,2068,2107
2040,2040,2020,1999,1919,1994,2045,2106
2017,2015,2006,1998,1947,2017,2041,2107
2030,2026,2020,2018,1996,2054,2054,2124
2053,2060,2033,2019,2009,2062,2038,2110
2054,2064,2032,1998,1994,2066,2040,2101
2057,2069,2038,1986,2016,2077,2041,2103
2057,2070,2036,1996,2081,2083,2037,2092
2058,2061,2030,2007,2090,2056,2032,2074
2053,2055,2031,2040,2209,2085,2056,2067
2054,2052,2036,2068,2280,2126,2041,2056
2050,2045,2031,2064,2216,2132,2038,2041
2036,2032,2026,2042,2059,2102,2027,2029
2044,2039,2037,2054,2033,2085,2047,2022
2042,2042,2054,2073,2071,2074,2034,2014
2042,2038,2053,2068,2062,2007,2027,2011
2040,2035,2039,2048,1986,1995,2018,1992
2037,2027,2026,2024,1995,1993,1994,1952
2006,1987,1992,1996,2008,1955,1971,1937
1991,1974,1980,1993,1959,1963,1983,1958
2016,2017,2013,2047,2035,2021,2004,1975
2034,2019,2018,2082,2111,2049,2033,1979
2035,2020,2015,2065,2114,2046,2040,1981
2023,2015,2011,2042,2074,2040,2036,1963
2019,2016,2005,2021,2049,2037,2047,1977
2015,2013,2013,2005,2043,2043,2052,1996
2029,2031,2020,1996,2038,2032,2065,2015
2042,2041,2036,1996,2044,2029,2065,2039
2052,2059,2063,2017,2055,2059,2059,2053
2057,2060,2069,2016,2056,2067,2061,2062
2053,2059,2056,2026,2057,2069,2055,2085
2056,2061,2057,2036,2057,2072,2052,2106
2066,2064,2066,2045,2056,2066,2043,2104
2071,2063,2064,2051,2070,2052,2040,2095
2052,2030,2036,2035,2055,2048,2030,2102
2054,2041,2034,2041,2050,2058,2058,2115
2068,2060,2036,2030,1994,2029,2043,2105
2057,2048,2026,2015,1935,2016,2038,2087
2055,2051,2030,2032,1978,2035,2054,2082
2045,2047,2027,2035,1980,2017,2031,2069
2049,2037,2019,2011,1964,2005,2054,2050
2039,2046,2029,2023,2043,2023,2050,2041
2039,2059,2030,2029,2092,2042,2052,2032
2043,2049,2019,2041,2121,2051,2046,2020
2043,2050,2017,2065,2164,2060,2042,2006
2043,2045,2014,2070,2154,2040,2045,1993
2051,2047,2019,2043,2053,2008,2027,1987
2036,2038,2010,2005,1935,2001,2028,1974
2026,2025,2002,1983,1906,2000,2017,1977
2027,2019,1988,1976,1959,2008,2010,1958
2012,1992,1986,1998,2015,2040,2025,1975
2020,2014,2020,2042,2065,2049,2058,2001
2065,2057,2060,2055,2079,2030,2042,2004
2063,2063,2066,2057,2127,2051,2031,1997
2060,2058,2064,2062,2155,2065,2031,1988
2050,2047,2052,2062,2103,2066,2019,1989
2042,2042,2039,2037,2038,2067,2037,1986
2036,2041,2036,2050,2167,2076,2037,1998
2029,2032,2024,2062,2237,2088,2071,2010
2035,2028,2011,2056,2212,2080,2035,2022
2027,2025,2002,2050,2162,2081,2036,2028
2027,2026,1998,2072,2181,2091,2046,2037
2032,2025,2009,2071,2055,2074,2014,2041
2021,2020,2005,2052,2050,2061,2010,2045
2024,2021,2007,2022,2050,2027,2017,2058
2024,2017,2001,2010,2055,1991,2001,2060
2007,2004,2006,2034,2033,1998,2015,2063
2013,2024,2034,2056,1996,2015,2028,2070
2035,2036,2060,2042,1892,2008,2037,2066
2029,2036,2053,2033,1913,2014,2021,2055
2024,2030,2045,2019,1975,2020,2038,2036
2026,2033,2052,2020,1993,2014,2035,2041
2028,2050,2076,2031,1992,2017,2044,2037
2029,2059,2092,2026,1988,2018,2038,2031
2033,2061,2094,2033,1980,2012,2036,2015
2032,2054,2086,2030,1978,2015,2032,2002
2023,2051,2074,2034,1994,2027,2041,1997
2032,2050,2078,2053,2025,2044,2054,1998
2032,2040,2072,2057,2046,2047,2046,1989
2032,2034,2052,2051,2037,2047,2049,1982
2038,2032,2052,2058,2053,2061,2031,1969
2030,2022,2043,2054,2032,2047,2024,1947
2009,2000,2036,2059,2029,2038,2031,1943
2017,2015,2053,2075,2058,2065,2029,1960
2039,2033,2063,2087,2063,2060,2048,1966
2039,2039,2064,2092,2071,2066,2059,1973
2042,2037,2056,2087,2072,2063,2043,1972
2035,2034,2051,2076,2010,2062,2046,1974
2044,2037,2052,2080,2006,2068,2041,1992
2044,2041,2058,2070,1991,2062,2028,2011
2042,2044,2066,2069,2000,2069,2034,2022
2040,2049,2074,2080,2061,2041,2017,2042
2048,2049,2059,2083,2111,2028,2026,2057
2044,2048,2060,2076,2154,2053,2048,2073
2044,2046,2046,2045,2148,2060,2053,2075
2041,2039,2033,1997,2048,2043,2034,2075
2039,2040,2034,1984,2006,2047,2037,2075
2034,2018,2019,1983,2043,2049,2024,2075
2015,2001,2005,1981,2044,2038,2026,2081
2024,2019,2033,2005,2006,2032,2045,2087
2042,2034,2057,2032,2026,2035,2032,2086
2041,2035,2053,2038,2030,2036,2017,2074
2036,2030,2044,2033,2043,2041,2027,2061
2040,2031,2032,2037,2074,2055,2034,2054
2039,2033,2031,2035,2064,2060,2033,2041
2045,2042,2034,2046,2072,2063,2017,2037
2049,2043,2037,2044,2071,2056,2013,2023
2041,2048,2040,2050,2060,2055,2030,2015
2039,2047,2048,2059,2048,2049,2039,2011
2035,2048,2062,2054,2040,2046,2014,1987
2026,2025,2037,2048,1983,2038,2009,1973
2022,2017,2025,2028,1962,2033,2010,1965
2031,2028,2030,2037,2001,2054,2018,1965
2022,2008,2017,2038,2011,2060,1999,1940
2005,2000,2007,2034,2010,2083,2007,1943
2024,2031,2040,2065,2072,2111,2050,1970
2038,2048,2069,2079,2129,2115,2033,1972
2043,2063,2094,2104,2162,2131,2065,1983
2059,2060,2094,2081,2137,2111,2043,1988
2053,2051,2075,2046,2123,2048,2054,1995
2050,2062,2086,2073,2172,1974,2039,2010
2054,2068,2081,2073,2185,1987,2056,2016
2056,2069,2071,2062,2130,2029,2062,2031
2051,2050,2054,2033,2060,2039,2058,2034
2043,2042,2036,2025,2043,2023,2050,2040
2041,2038,2035,2018,1993,2024,2046,2052
2039,2044,2044,2029,2003,2025,2049,2060
2048,2060,2043,2018,1978,2020,2038,2069
2045,2056,2044,2018,1974,2029,2055,2080
2034,2035,2041,2029,2023,2029,2031,2071
2027,2027,2048,2047,2029,2022,2021,2066
2032,2040,2066,2054,1977,2036,2040,2073
2038,2044,2072,2056,1989,2043,2046,2074
2034,2052,2077,2078,1998,2054,2059,2067
2037,2052,2077,2081,2017,2058,2061,2056
2042,2057,2076,2086,2030,2055,2061,2049
2048,2056,2068,2088,2040,2055,2057,2039
2048,2055,2067,2088,2028,2052,2056,2024
2055,2057,2063,2080,2035,2056,2051,2011
2042,2044,2056,2062,2020,2036,2052,2004
2044,2045,2052,2052,1989,2023,2046,1994
2045,2047,2049,2045,1935,2033,2038,1990
2045,2044,2046,2027,1918,2028,2028,1981
2049,2036,2033,2014,1912,2028,2045,1979
2044,2040,2030,2018,1953,2046,2039,1975
2023,2008,2012,2003,1961,2024,2019,1960
2025,2003,2017,1993,1948,2017,2017,1962
2045,2034,2043,2009,1957,2032,2048,1980
2059,2039,2042,2012,1977,2035,2027,1973
2051,2032,2033,2021,2051,2036,2028,1971
2041,2022,2033,2035,2174,2051,2030,1975
2038,2021,2034,2049,2217,2056,2030,1979
2042,2031,2044,2059,2201,2065,2023,1988
2053,2038,2047,2066,2169,2066,2048,2001
2045,2049,2047,2061,2137,2072,2043,2014
2052,2062,2056,2060,2104,2072,2047,2034
2049,2059,2052,2043,2079,2063,2060,2039
2043,2046,2040,2018,2094,2054,2052,2054
2045,2045,2029,2019,2103,2052,2054,2071
2041,2036,2030,2018,2111,2053,2057,2075
2041,2030,2030,2015,2121,2056,2039,2078
2025,2012,2022,2007,2129,2041,2021,2064
2017,2011,2016,2020,2121,2043,2018,2073
2028,2042,2045,2046,2119,2061,2030,2068
2034,2042,2047,2067,2101,2059,2033,2066
2036,2046,2053,2053,1985,2034,2028,2064
2038,2043,2060,2029,1937,2028,2040,2051
2042,2045,2058,2033,1935,2039,2051,2040
2039,2044,2059,2032,1917,2037,2050,2031
2036,2040,2053,2048,1929,2033,2041,2020
2037,2037,2047,2047,1956,2046,2064,2007
2044,2034,2039,2055,1993,2055,2052,2003
2039,2039,2039,2074,2054,2078,2046,2004
2052,2053,2053,2086,2082,2090,2041,1986
2046,2061,2061,2092,2077,2089,2032,1972
2046,2057,2061,2078,2035,2081,2039,1977
2040,2052,2052,2061,2020,2078,2049,1961
2026,2016,2012,2025,1992,2045,2026,1949
2011,2002,2003,2021,1992,2043,2037,1954
2030,2037,2032,2057,2047,2074,2065,1965
2045,2050,2044,2084,2159,2093,2044,1968
2050,2049,2038,2079,2148,2106,2070,1981
2051,2043,2040,2076,2107,2102,2041,1985
2052,2037,2036,2066,2072,2081,2029,1981
2043,2042,2035,2065,2083,2068,2043,1990
2041,2043,2040,2056,2080,2038,2015,1999
2042,2046,2045,2053,2098,2012,2015,2009
2044,2054,2042,2050,2069,1998,2011,2012
2042,2043,2030,2044,2036,2002,2020,2030
2046,2044,2022,2063,2040,2030,2025,2042
2041,2039,2021,2057,2024,2035,2049,2055
2039,2031,2019,2048,1997,2031,2024,2062
2032,2026,2023,2038,2007,2038,2043,2065
2021,2003,2013,2020,1990,2028,2033,2064
2013,2000,2006,2025,2040,2043,2036,2072
2021,2027,2026,2055,2074,2082,2057,2079
2031,2038,2029,2063,2077,2091,2059,2072
2038,2040,2041,2078,2098,2097,2062,2070
2047,2050,2040,2068,2092,2095,2046,2046
2049,2046,2040,2032,2006,2074,2035,2041
2048,2035,2034,2001,1902,2068,2051,2029
2058,2032,2024,1993,1906,2039,2045,2015
2048,2024,2020,1987,1940,1981,2025,2002
2036,2009,2027,2017,1983,1975,2022,1974
2025,2008,2038,2057,2036,1970,2030,1963
2023,2013,2037,2077,2109,2013,2046,1967
2017,2016,2047,2070,2129,2045,2052,1967
2023,2024,2053,2071,2124,2057,2061,1962
2027,2045,2070,2077,2115,2066,2066,1962
2025,2030,2061,2063,2096,2047,2041,1951
2027,2032,2055,2075,2186,2052,2041,1954
2038,2053,2081,2097,2274,2076,2066,1967
2044,2054,2085,2094,2288,2080,2054,1972
2045,2048,2088,2095,2291,2076,2056,1972
2036,2041,2093,2090,2292,2059,2055,1979
2036,2041,2096,2088,2284,2066,2062,1990
2038,2030,2077,2072,2253,2062,2064,2005
2038,2043,2072,2063,2218,2059,2067,2022
2050,2058,2082,2060,2066,2051,2069,2037
2059,2069,2088,1996,1646,2010,2061,2045
2062,2075,2077,1998,1653,2004,2058,2055
2060,2079,2073,2026,1780,1993,2059,2059
2051,2062,2059,2037,1854,1994,2048,2060
2052,2056,2051,2056,1943,2023,2052,2069
2049,2054,2043,2079,2009,2042,2060,2065
2028,2022,2028,2062,1994,2017,2035,2056
2020,2019,2028,2057,1977,2006,2045,2072
2033,2045,2051,2049,1955,2006,2055,2075
2029,2049,2046,2040,2024,2018,2056,2071
2040,2048,2037,2025,2059,2047,2058,2067
2041,2056,2052,2023,2066,2078,2072,2064
2050,2066,2072,2051,2053,2081,2069,2058
2053,2075,2077,2062,2080,2096,2068,2044
2050,2071,2069,2046,2063,2097,2068,2035
2047,2059,2060,2018,2028,2087,2066,2027
2050,2063,2064,2029,2056,2086,2075,2022
2059,2078,2091,2072,2167,2104,2081,2017
2063,2078,2096,2104,2248,2108,2063,2001
2055,2068,2083,2099,2264,2083,2044,1979
2033,2048,2070,2096,2200,2056,2044,1970
2022,2039,2063,2082,2050,2030,2040,1957
2002,2014,2040,2070,2003,2010,2011,1949
2006,2012,2042,2064,1974,2024,2039,1956
2026,2053,2062,2099,2065,2063,2062,1965
2037,2051,2065,2090,2039,2054,2057,1964
2035,2042,2053,2083,2012,2035,2052,1970
2032,2033,2054,2073,1974,2014,2054,1972
2023,2023,2050,2058,1940,1988,2040,1972
2012,2014,2047,2044,1931,1987,2035,1976
2015,2015,2043,2043,1997,2025,2022,1980
2020,2021,2039,2073,2086,2084,2039,2003
2029,2036,2050,2094,2144,2112,2073,2026
2037,2046,2055,2120,2187,2102,2071,2043
2038,2045,2041,2109,2140,2086,2074,2056
2042,2038,2028,2085,2098,2073,2069,2066
2043,2040,2019,2070,2082,2055,2064,2070
2032,2035,2003,2038,1982,2024,2039,2057
2014,2000,1966,2005,1937,1983,2019,2070
2008,1998,1967,1998,1962,1966,2014,2080
2030,2028,1981,1996,1972,1985,2031,2083
2038,2048,1997,1980,2014,2004,2047,2085
2052,2061,2022,1987,2068,2032,2044,2076
2045,2069,2052,2002,2088,2053,2051,2069
2057,2078,2064,2011,2076,2062,2060,2070
2070,2084,2072,2014,2047,2053,2057,2057
2070,2082,2075,2028,2033,2054,2077,2036
2060,2080,2071,2040,2038,2066,2077,2023
2053,2071,2075,2050,2050,2078,2056,2009
2047,2066,2068,2036,2041,2097,2057,2011
2045,2058,2069,2025,1990,2092,2060,2003
2043,2051,2068,2031,2046,2090,2057,1994
2040,2057,2083,2042,2073,2081,2069,1992
2046,2056,2087,2049,2033,2033,2028,1980
2035,2024,2064,2025,2020,1982,2002,1964
2027,2020,2063,2026,2010,1989,2034,1972
2042,2046,2082,2044,2005,1999,2032,1973
2035,2036,2072,2032,1933,1984,2026,1970
2035,2034,2068,2047,1972,2006,2034,1979
2042,2034,2064,2062,2038,2058,2029,1985
2050,2028,2056,2072,2115,2072,2051,1999
2047,2029,2048,2088,2141,2064,2066,2002
2045,2030,2063,2109,2161,2087,2064,2017
2040,2033,2070,2106,2127,2097,2068,2028
2040,2039,2072,2085,2077,2090,2054,2037
2037,2037,2070,2065,2034,2097,2044,2044
2043,2041,2062,2050,1999,2093,2054,2057
2050,2058,2047,2038,1935,2054,2039,2071
2051,2055,2036,2035,1949,2034,2032,2095
2060,2058,2035,2034,1999,2028,2048,2089
2051,2029,2010,2050,2036,2010,2050,2094
2046,2021,2008,2089,2120,2044,2070,2098
2059,2053,2035,2123,2155,2070,2043,2087
2052,2050,2028,2108,2134,2078,2037,2080
2049,2047,2023,2088,2103,2063,2057,2072
2042,2047,2017,2059,2088,2030,2058,2064
2037,2037,2012,2033,2060,2005,2037,2044
2049,2035,2023,2019,1958,2017,2043,2029
2040,2047,2036,2025,2008,2065,2051,2022
2036,2044,2029,2046,2131,2102,2061,2017
2031,2046,2035,2069,2173,2121,2058,2009
2041,2049,2054,2082,2185,2116,2064,2005
2040,2052,2072,2081,2166,2107,2057,2004
2041,2046,2080,2073,2098,2081,2032,1997
2041,2058,2085,2075,2038,2035,2029,1987
2044,2053,2071,2060,2000,1999,2009,1967
2025,2011,2038,2028,2037,1997,2018,1964
2032,2020,2040,2022,2042,2024,2037,1989
2053,2059,2072,2024,1957,2034,2028,1987
2059,2063,2082,2022,1937,2039,2032,1987
2053,2055,2074,2023,2000,2048,2032,1996
2055,2052,2066,2022,2043,2051,2049,2000
2062,2062,2074,2043,2092,2067,2066,2020
2068,2067,2075,2059,2137,2080,2064,2028
2068,2074,2076,2072,2162,2084,2065,2043
2068,2075,2081,2076,2128,2090,2080,2049
2071,2076,2083,2056,2046,2068,2050,2064
2057,2049,2064,2018,1933,2043,2053,2058
2039,2039,2069,1987,1890,2028,2038,2068
2037,2048,2077,1996,1947,2018,2025,2066
2045,2047,2086,2014,1962,2014,2025,2071
2039,2044,2081,2027,2000,1994,2026,2066
2014,2019,2053,2034,2151,2016,2009,2072
2019,2015,2049,2088,2236,2056,2041,2087
2043,2056,2056,2095,2214,2057,2040,2084
2047,2043,2047,2074,2138,2036,2015,2076
2035,2032,2038,2059,2115,2037,2008,2062
2047,2029,2035,2059,2069,2050,2033,2058
2046,2032,2033,2046,2073,2056,2038,2044
2047,2026,2033,2043,2052,2045,2044,2036
2043,2032,2048,2035,2006,2040,2038,2036
2052,2051,2067,2038,1989,2040,2049,2029
2054,2063,2079,2048,2035,2052,2054,2029
2066,2066,2077,2058,2093,2076,2064,2018
2063,2064,2060,2066,2105,2080,2063,2005
2049,2049,2056,2055,2056,2075,2049,1999
2056,2043,2057,2064,2073,2081,2063,1984
2052,2041,2062,2085,2156,2076,2049,1964
2036,2003,2040,2108,2256,2090,2049,1964
2029,2008,2052,2130,2289,2093,2063,1972
2042,2031,2062,2078,2043,2044,2037,1979
2045,2021,2044,2042,1844,1997,2025,1978
2044,2027,2052,2059,1875,1980,2015,1976
2037,2033,2056,2070,1936,1999,2018,1985
2046,2034,2055,2090,2046,2031,2030,1992
2046,2036,2046,2105,2097,2052,2039,1994
2045,2028,2037,2122,2109,2058,2040,2020
2050,2035,2056,2118,2101,2060,2047,2039
2045,2034,2056,2097,2074,2056,2044,2046
2047,2027,2045,2077,2061,2047,2045,2062
2048,2035,2057,2078,2057,2046,2047,2076
2051,2038,2055,2062,2052,2050,2059,2092
2053,2049,2052,2052,2044,2053,2072,2100
2053,2047,2049,2033,2030,2035,2036,2077
2026,2015,2029,2020,2029,2034,2028,2083
2018,2022,2033,2025,2039,2048,2062,2096
2048,2049,2044,2019,2035,2056,2064,2088
2066,2057,2060,2025,2028,2051,2056,2083
2054,2059,2071,2025,2024,2058,2070,2076
2049,2058,2056,2021,2030,2055,2062,2073
2060,2047,2057,2011,2030,2054,2047,2064
2052,2050,2074,2018,2029,2052,2059,2053
2060,2049,2076,2013,2025,2049,2052,2041
2058,2043,2072,2026,2023,2044,2043,2019
2052,2034,2086,2046,2018,2060,2037,2005
2046,2029,2090,2056,2020,2072,2056,2004
2062,2052,2101,2068,2022,2082,2050,1991
2059,2054,2092,2064,2019,2068,2048,1995
2050,2053,2078,2068,2026,2029,2058,1994
2053,2045,2057,2061,2030,2000,2038,1974
2026,2029,2042,2058,2023,2010,2039,1971
2023,2028,2051,2079,2045,2042,2045,1987
2053,2044,2061,2095,2052,2053,2049,2000
2053,2051,2073,2113,2063,2059,2055,1998
2060,2056,2082,2117,2074,2064,2066,2008
2057,2043,2074,2116,2077,2067,2070,2006
2045,2045,2060,2108,2074,2060,2062,2008
2045,2039,2047,2099,2065,2059,2057,2004
2043,2039,2037,2078,2059,2053,2064,2025
2049,2033,2024,2060,2053,2052,2071,2051
2058,2046,2032,2064,2053,2056,2066,2067
2057,2046,2025,2065,2060,2063,2062,2081
2052,2052,2022,2074,2059,2062,2058,2097
2053,2053,2014,2072,2060,2058,2058,2094
2057,2042,2011,2048,2044,2044,2056,2097
2045,2021,1992,2010,2013,2016,2039,2084
2017,2010,1998,1996,2003,2015,2031,2085
2035,2037,2026,2003,2019,2037,2055,2107
2050,2060,2049,1998,2014,2042,2057,2105
2055,2073,2078,2017,2022,2057,2055,2104
2066,2092,2109,2048,2040,2058,2046,2102
2070,2091,2112,2056,2043,2054,2042,2090
2070,2084,2099,2061,2040,2049,2039,2074
2061,2072,2094,2057,2044,2045,2051,2050
2060,2069,2089,2054,2034,2039,2043,2041
2052,2068,2093,2056,2036,2040,2053,2034
2054,2062,2091,2059,2034,2038,2036,2027
2052,2058,2086,2049,2025,2033,2048,2022
2049,2052,2077,2057,2028,2034,2039,2013
2046,2057,2071,2056,2027,2038,2051,2003
2050,2064,2079,2042,2022,2035,2046,1996
2045,2041,2053,2007,2000,2030,2025,1975
2031,2019,2039,2006,2008,2052,2041,1977
2036,2047,2055,2026,2025,2080,2033,1995
2056,2062,2062,2036,2038,2080,2042,2001
2056,2064,2059,2053,2036,2078,2061,2002
2054,2064,2062,2058,2033,2045,2059,2020
2061,2068,2078,2067,2032,2024,2068,2018
2052,2068,2074,2075,2069,2043,2078,2039
2060,2069,2084,2105,2095,2058,2068,2055
2069,2081,2088,2110,2086,2069,2085,2063
2069,2083,2073,2099,2082,2067,2057,2070
2071,2074,2051,2071,2000,2063,2049,2077
2068,2061,2046,2046,1969,2066,2067,2090
2060,2059,2033,2041,2022,2061,2058,2098
2058,2059,2037,2054,2039,2069,2054,2107
2051,2053,2029,2063,2065,2074,2070,2108
2039,2038,2011,2043,2041,2037,2045,2104
2024,2016,2003,2020,2000,2021,2042,2101
2042,2042,2032,2043,2029,2039,2030,2113
2059,2052,2034,2058,2019,2038,2055,2103
2055,2043,2036,2060,2040,2043,2056,2098
2058,2042,2048,2058,2065,2058,2062,2088
2058,2049,2053,2061,2086,2073,2058,2067
2062,2054,2069,2064,2085,2071,2035,2057
2059,2066,2086,2072,2093,2080,2028,2050
2064,2081,2097,2078,2090,2076,2036,2037
2055,2071,2093,2076,2090,2071,2036,2024
2054,2065,2087,2068,2062,2041,2029,2018
2046,2054,2060,2062,2014,2011,2021,2010
2032,2046,2048,2054,1966,2000,2017,2014
2035,2048,2053,2039,1897,2000,2027,2013
2049,2059,2064,2016,1889,2004,2013,2001
2030,2035,2041,1993,1897,2009,2006,1987
2025,2020,2036,1997,1933,2032,2015,1992
2048,2052,2064,2040,1962,2077,2059,2014
2059,2064,2081,2057,1990,2084,2064,2024
2067,2068,2082,2067,1996,2092,2073,2027
2079,2076,2086,2069,1985,2104,2078,2033
2062,2070,2080,2050,1956,2101,2053,2024
2056,2061,2060,2030,1976,2090,2058,2026
2052,2051,2050,2029,2052,2103,2078,2032
2049,2049,2053,2070,2200,2117,2059,2046
2046,2056,2064,2091,2241,2060,2053,2065
2056,2057,2073,2094,2212,2029,2054,2082
2053,2059,2074,2102,2167,2020,2041,2097
2055,2065,2074,2092,2102,2042,2034,2101
2054,2057,2069,2080,2106,2069,2044,2086
2040,2044,2058,2074,2105,2072,2003,2066
2014,2005,2009,2033,2066,2029,1986,2058
2004,2002,2009,2054,2086,1993,2023,2094
2039,2041,2030,2089,2126,2014,2039,2101
2044,2044,2030,2087,2145,2045,2036,2098
2051,2046,2032,2068,2135,2080,2057,2097
2052,2045,2032,2064,2105,2094,2058,2078
2047,2037,2029,2041,1965,2097,2032,2057
2039,2032,2025,2036,1931,2100,2026,2040
2036,2028,2024,2043,1984,2113,2028,2035
2035,2030,2023,2043,2010,2102,2038,2029
2039,2030,2025,2052,2008,2045,2038,2028
2050,2045,2038,2061,2038,2006,2042,2030
2049,2049,2039,2058,2020,2021,2048,2019
2052,2054,2044,2052,2007,2029,2046,2011
2049,2056,2041,2049,2008,2035,2065,2004
2057,2055,2055,2059,2007,2030,2052,1997
2043,2032,2035,2041,1992,2013,2024,1987
2034,2019,2017,2037,1992,2026,2048,1995
2056,2050,2041,2052,2010,2033,2050,2003
2062,2046,2037,2044,2010,2028,2018,1996
2056,2042,2030,2040,2006,2031,2035,2013
2061,2044,2032,2046,2041,2042,2046,2014
2056,2047,2043,2061,2093,2059,2062,2021
2055,2049,2058,2070,2094,2065,2051,2032
2054,2059,2066,2071,2087,2067,2043,2040
2061,2062,2078,2075,2090,2071,2054,2057
2070,2075,2084,2085,2088,2070,2054,2069
2073,2073,2085,2081,2090,2074,2056,2092
2070,2074,2093,2083,2085,2062,2054,2100
2061,2071,2097,2076,2080,2055,2046,2108
2056,2069,2088,2075,2088,2067,2060,2104
2056,2062,2075,2078,2076,2057,2043,2107
2042,2040,2055,2055,2038,2036,2021,2107
2037,2039,2053,2046,2011,2037,2035,2115
2059,2064,2065,2056,2025,2049,2032,2121
2067,2068,2061,2053,2037,2060,2064,2116
2062,2074,2062,2055,2050,2062,2050,2104
2066,2062,2053,2052,2044,2064,2052,2099
2067,2061,2051,2058,2047,2060,2059,2080
2059,2059,2050,2061,2042,2060,2060,2070
2060,2056,2052,2066,2043,2065,2044,2065
2057,2053,2047,2071,2040,2062,2028,2051
2058,2056,2044,2073,2045,2069,2060,2036
2062,2064,2049,2076,2051,2071,2063,2024
2071,2071,2051,2075,2046,2085,2030,2017
2062,2064,2048,2069,2044,2086,2038,2016
2055,2063,2051,2063,2055,2095,2052,2012
2058,2055,2046,2067,2060,2082,2041,2004
2045,2031,2026,2055,2045,2034,2048,2014
2047,2039,2026,2054,2058,2040,2052,2029
2074,2070,2053,2069,2047,2057,2059,2023
2071,2066,2054,2057,2020,2053,2060,2025
2063,2059,2058,2044,2008,2046,2047,2015
2061,2054,2066,2031,2018,2034,2062,2021
2054,2060,2056,2014,1975,2030,2043,2029
2058,2056,2043,1996,1921,2006,2028,2039
2049,2046,2037,2000,1933,2003,2047,2044
2055,2050,2031,2023,2018,2037,2052,2064
2071,2061,2047,2047,2112,2062,2058,2063
2062,2058,2047,2057,2130,2068,2026,2068
2059,2048,2037,2051,2046,2051,2041,2077
2050,2039,2041,2059,2075,2051,2049,2082
2051,2044,2051,2079,2102,2057,2049,2099
2045,2043,2052,2080,2094,2064,2028,2100
2033,2016,2024,2058,2086,2047,2024,2095
2030,2010,2015,2051,2081,2048,2020,2108
2049,2040,2043,2066,2084,2054,2051,2110
2053,2050,2052,2063,2033,2042,2060,2111
2066,2065,2067,2075,1989,2030,2059,2107
2068,2071,2076,2081,1960,2033,2069,2089
2073,2064,2081,2073,1965,2026,2055,2084
2067,2064,2076,2066,1990,2032,2072,2080
2067,2066,2084,2062,2026,2034,2052,2066
2068,2067,2077,2053,2035,2032,2057,2054
2069,2061,2072,2038,2022,2020,2042,2040
2070,2063,2071,2045,2059,2035,2056,2038
2082,2073,2072,2046,2088,2049,2066,2039
2078,2068,2062,2042,2110,2054,2047,2025
2064,2064,2052,2050,2122,2058,2052,2019
2066,2061,2053,2059,2112,2066,2058,2001
2048,2030,2034,2036,2066,2057,2015,1998
2050,2032,2030,2030,2049,2061,2057,2010
2069,2056,2050,2060,2088,2061,2060,2005
2060,2041,2044,2064,2092,2042,2027,2003
2066,2043,2049,2077,2100,2060,2051,2007
2057,2051,2054,2076,2101,2091,2060,2017
2060,2060,2056,2060,2003,2094,2058,2028
2066,2060,2056,2037,1955,2095,2063,2039
2067,2056,2060,2040,2028,2103,2070,2043
2074,2060,2067,2052,2093,2124,2060,2055
2070,2065,2062,2054,2098,2086,2046,2066
2066,2066,2061,2058,2092,2035,2046,2067
2059,2059,2061,2052,2078,2026,2059,2082
2054,2059,2061,2060,2051,2039,2057,2112
2062,2061,2068,2064,2040,2014,2055,2116
2062,2068,2069,2061,2043,2025,2059,2115
2051,2036,2045,2054,2063,2035,2035,2113
2042,2037,2046,2058,2082,2034,2044,2124
2061,2064,2069,2071,2109,2051,2047,2128
2075,2074,2066,2078,2145,2080,2059,2131
2078,2073,2064,2086,2138,2075,2061,2118
2073,2072,2075,2092,2081,2056,2063,2105
2071,2070,2072,2080,2024,2029,2043,2086
2069,2054,2063,2071,1995,2018,2066,2064
2062,2050,2061,2080,1995,2024,2063,2061
2065,2060,2070,2088,1996,2022,2059,2049
2069,2063,2065,2085,2001,2021,2041,2041
2065,2053,2058,2079,2005,2036,2042,2032
2060,2048,2044,2079,2021,2063,2050,2020
2053,2035,2028,2084,2075,2077,2050,2008
2041,2035,2033,2086,2083,2090,2050,2009
2055,2047,2032,2083,2068,2094,2063,2007
2047,2029,2026,2080,2093,2086,2050,2000
2036,2030,2023,2084,2126,2089,2047,2001
2059,2052,2041,2085,2117,2101,2089,2008
2062,2054,2035,2057,2052,2050,2052,2004
2052,2047,2022,2045,2035,2023,2062,1999
2045,2042,2015,2052,2094,2043,2037,2004
2054,2047,2013,2064,2141,2059,2039,2007
2050,2051,2012,2057,2129,2066,2032,2027
2063,2053,2029,2078,2177,2068,2058,2040
2059,2052,2045,2090,2167,2035,2045,2049
2050,2048,2050,2068,2128,2032,2060,2057
2046,2040,2057,2061,2121,2040,2063,2061
2047,2041,2062,2046,2109,2051,2070,2074
2050,2040,2066,2017,2044,2049,2074,2091
2040,2039,2072,1996,1951,2044,2065,2090
2040,2050,2081,2002,1904,2025,2054,2097
2034,2036,2062,2010,1949,1962,2021,2094
2022,2033,2053,2039,2035,1965,2046,2120
2044,2057,2080,2081,2103,2004,2066,2136
2067,2067,2081,2089,2103,2031,2084,2124
2065,2064,2069,2053,1973,2044,2077,2106
2056,2054,2056,2044,1973,2058,2072,2092
2054,2057,2054,2048,2011,2054,2080,2082
2050,2044,2045,2045,2031,2042,2075,2067
2053,2048,2040,2031,2049,2039,2048,2057
2051,2046,2042,2017,2047,2038,2049,2048
2053,2053,2057,2032,2075,2048,2066,2039
2061,2059,2070,2047,2096,2056,2065,2032
2062,2067,2074,2047,2071,2056,2061,2027
2060,2057,2064,2041,2029,2042,2067,2020
2054,2055,2055,2033,2012,2030,2069,2017
2051,2056,2064,2037,2001,2033,2047,2003
2037,2041,2045,2034,2028,2024,2039,1987
2031,2033,2046,2033,2067,2028,2034,1995
2055,2059,2067,2056,2089,2057,2072,2003
2059,2060,2067,2062,2102,2062,2075,2015
2059,2061,2069,2054,2075,2066,2068,2018
2058,2057,2057,2048,2037,2066,2067,2021
2058,2049,2054,2037,1991,2055,2069,2026
2053,2047,2047,2004,1877,2036,2057,2028
2048,2043,2046,2002,1841,2031,2057,2039
2051,2053,2056,2018,1889,2019,2076,2057
2054,2057,2068,2045,1924,2041,2095,2082
2059,2062,2069,2053,1959,2074,2079,2090
2064,2053,2059,2046,1994,2085,2088,2093
2054,2043,2046,2032,2000,2057,2087,2100
2054,2033,2038,2021,2005,2036,2061,2104
2047,2032,2034,2019,2056,2018,2044,2096
2024,2004,2010,2012,2055,1979,2028,2094
2017,2003,2011,2034,2060,1998,2052,2112
2048,2043,2048,2070,2094,2024,2062,2126
2055,2047,2047,2070,2121,2027,2072,2121
2048,2044,2045,2074,2131,2034,2057,2120
2059,2048,2036,2063,2088,2032,2070,2107
2058,2046,2028,2064,2076,2033,2053,2094
2058,2042,2018,2044,2029,2032,2038,2072
2056,2039,2010,2030,1955,2050,2062,2064
2051,2040,2019,2054,1979,2057,2059,2048
2055,2036,2011,2065,2008,2043,2044,2038
2055,2028,2000,2078,2116,2032,2056,2029
2047,2025,2004,2082,2198,2031,2043,2025
2049,2025,1997,2064,2090,2031,2049,2027
2050,2019,1990,2032,1993,2019,2052,2012
2052,2025,2003,2021,2040,2019,2032,2002
2041,2015,2001,2029,2104,2046,2043,2001
2057,2034,2030,2054,2162,2112,2060,2019
2072,2065,2061,2083,2171,2137,2060,2023
2072,2067,2070,2077,2171,2142,2059,2016
2071,2074,2074,2083,2161,2136,2059,2025
2077,2074,2082,2087,2174,2095,2071,2033
2080,2076,2084,2090,2191,2038,2047,2046
2077,2076,2078,2088,2163,2044,2053,2043
2070,2071,2082,2084,2154,2067,2031,2042
2070,2068,2073,2078,2118,2071,2059,2058
2067,2076,2081,2079,2058,2072,2076,2065
2071,2070,2092,2082,1994,2048,2064,2081
2072,2080,2101,2071,1936,2007,2047,2097
2058,2073,2102,2069,1885,1985,2053,2103
2054,2070,2097,2070,1876,2000,2059,2119
2068,2062,2079,2078,1927,2018,2039,2119
2041,2027,2039,2059,1953,2020,2040,2113
2036,2017,2021,2039,1938,2033,2058,2134
2050,2043,2040,2039,1923,2039,2061,2128
2053,2038,2036,2036,1988,2053,2070,2121
2052,2051,2048,2058,2063,2058,2061,2109
2056,2049,2047,2056,2153,2063,2050,2093
2054,2043,2036,2065,2221,2078,2053,2087
2050,2050,2045,2081,2211,2090,2063,2078
2054,2039,2036,2062,2139,2073,2074,2062
2053,2042,2027,2045,2096,2054,2056,2045
2047,2032,2012,2022,2082,2044,2061,2035
2057,2042,2027,2049,2133,2062,2068,2030
2060,2051,2037,2059,2098,2069,2075,2018
2062,2046,2028,2038,2003,2048,2060,2013
2053,2041,2027,2034,1971,2020,2050,2002
2054,2042,2028,2030,2005,1996,1999,1986
2038,2022,2026,2019,2018,1973,2012,1978
2028,2025,2021,2039,2043,1996,2047,1998
2061,2054,2038,2062,2119,2040,2049,2000
2067,2054,2046,2066,2179,2064,2069,2010
2066,2049,2049,2066,2166,2068,2057,2012
2054,2051,2048,2074,2188,2069,2069,2016
2052,2049,2056,2081,2145,2055,2064,2025
2052,2052,2055,2073,2143,2044,2073,2037
2058,2043,2054,2067,2154,2023,2062,2043
2059,2052,2046,2055,2164,2000,2055,2044
2050,2043,2034,2027,2144,1973,2031,2039
2043,2038,2030,2020,2058,1990,2052,2063
2044,2042,2045,2047,2083,2025,2059,2074
2054,2048,2047,2055,2040,2040,2067,2094
2048,2045,2051,2035,1858,2044,2079,2110
2052,2054,2051,2019,1804,2030,2057,2095
2035,2019,2022,2027,1887,2014,2039,2106
2035,2021,2030,2048,1966,2032,2055,2118
2062,2058,2058,2068,2006,2033,2037,2114
2059,2059,2054,2065,1999,2030,2044,2100
2050,2060,2056,2064,2009,2033,2050,2087
2053,2062,2053,2066,2026,2033,2049,2083
2056,2055,2051,2062,2014,2035,2047,2075
2049,2053,2047,2068,2052,2040,2064,2061
2052,2054,2054,2070,2040,2045,2041,2056
2052,2053,2048,2066,2024,2038,2031,2049
2057,2047,2048,2057,2026,2032,2026,2043
2065,2058,2040,2064,2030,2039,2057,2033
2066,2058,2040,2058,2025,2041,2064,2019
2061,2060,2045,2053,2034,2036,2055,2014
2064,2052,2045,2047,2024,2036,2053,2003
2054,2043,2048,2028,2008,2002,2020,1987
2027,2020,2032,2002,1988,1996,2030,1983
2032,2016,2031,2006,1992,2008,2066,1992
2045,2038,2028,2011,1994,2022,2050,1999
2039,2028,2035,2018,1986,2036,2047,2001
2045,2033,2045,2030,2018,2055,2057,2000
2045,2033,2058,2065,2045,2066,2056,2005
2057,2047,2074,2086,2069,2038,2062,2031
2061,2053,2083,2095,2079,2035,2077,2041
2059,2053,2078,2101,2084,2057,2081,2052
2058,2052,2076,2108,2081,2066,2078,2062
2056,2055,2087,2095,2070,2061,2074,2066
2062,2052,2074,2098,2062,2057,2068,2084
2065,2058,2067,2091,2043,2046,2064,2092
2061,2057,2060,2078,2022,2038,2068,2106
2066,2054,2049,2066,2016,2049,2079,2121
2057,2053,2034,2054,2023,2039,2041,2111
2040,2022,2009,2037,2016,2035,2047,2111
2036,2024,2012,2034,1997,2057,2066,2129
2064,2045,2014,2010,1967,2071,2063,2125
2062,2050,2011,1996,1962,2079,2067,2111
2067,2063,2019,1985,1973,2077,2040,2105
2074,2063,2014,1990,2001,2048,2046,2101
2073,2056,2013,2008,2024,2009,2053,2088
2066,2053,2021,2025,1987,2013,2067,2075
2066,2053,2013,2052,2042,2041,2066,2061
2075,2054,2008,2071,2130,2060,2059,2046
2065,2034,1997,2058,2072,2041,2046,2034
2058,2028,2003,2042,2045,2032,2030,2018
2045,2023,1994,2031,2014,2014,2015,2007
2042,2015,2000,2040,2004,2022,2036,1998
2041,2020,2014,2054,2027,2046,2035,2007
2050,2025,2019,2033,2021,2044,2027,1987
2022,2015,2020,2028,2003,2041,2017,1979
2024,2018,2036,2057,2058,2069,2037,1996
2050,2049,2069,2072,2097,2088,2052,1996
2047,2045,2068,2070,2061,2055,2031,2002
2048,2052,2070,2064,2027,2035,2005,2008
2055,2064,2084,2058,2000,2038,2014,2013
2059,2076,2092,2051,1976,2029,2028,2027
2068,2082,2100,2055,2013,2005,2030,2038
2067,2084,2096,2073,2088,2022,2037,2056
2069,2076,2097,2080,2141,2056,2066,2066
2063,2069,2083,2082,2156,2084,2064,2071
2064,2070,2076,2075,2135,2074,2064,2085
2061,2067,2076,2061,2109,2047,2030,2085
2060,2064,2066,2058,2135,2038,2048,2086
2044,2060,2061,2050,2110,2029,2039,2102
2046,2040,2049,2036,2072,2011,2010,2093
2019,2014,2026,2026,2032,2017,2024,2093
2026,2025,2037,2023,1967,2033,2036,2106
2050,2039,2042,2037,1988,2035,2058,2108
2048,2044,2050,2052,2038,2050,2050,2109
2054,2031,2059,2063,2064,2051,2042,2094
2055,2032,2060,2069,2064,2050,2049,2091
2052,2048,2053,2071,2025,2045,2030,2068
2055,2049,2057,2072,2020,2048,2019,2056
2056,2052,2058,2077,2032,2049,2037,2046
2054,2051,2053,2077,2021,2053,2044,2028
2047,2048,2048,2076,2015,2052,2038,2024
2040,2040,2041,2050,2017,2049,2046,2022
2034,2028,2032,2045,2024,2040,2032,2013
2037,2029,2037,2023,2034,2026,2041,2004
2041,2029,2028,2019,2030,2026,2030,2001
2047,2024,2022,2021,2070,2033,2032,1987
2029,2015,2029,2058,2104,2043,2026,1977
2043,2037,2043,2067,2106,2065,2047,1996
2055,2046,2040,2054,2099,2075,2055,2000
2056,2048,2047,2036,2083,2086,2053,2003
2060,2055,2059,2039,2078,2098,2064,2025
2072,2069,2070,2049,2064,2089,2072,2035
2074,2077,2075,2050,2033,2068,2029,2044
2075,2076,2071,2048,2011,2021,2077,2051
2065,2073,2062,2042,1970,1989,2067,2054
2057,2059,2054,2022,1940,1981,2064,2057
2049,2049,2040,2018,1953,2008,2053,2060
2044,2043,2036,2021,2017,2011,2034,2074
2052,2038,2036,2032,2047,2003,2047,2090
2054,2043,2038,2043,2080,2007,2024,2100
2050,2039,2036,2049,2109,2020,2026,2110
2048,2025,2022,2059,2158,2043,2013,2097
2035,2025,2019,2063,2162,2059,2042,2102
2049,2046,2034,2076,2142,2082,2066,2116
2055,2062,2048,2081,2122,2098,2059,2108
2065,2063,2056,2082,2131,2119,2053,2098
2061,2057,2050,2079,2156,2143,2042,2089
2054,2057,2053,2098,2171,2144,2058,2076
2058,2061,2063,2095,2188,2127,2048,2066
2060,2062,2060,2079,2166,2103,2045,2046
2056,2050,2051,2075,2152,2060,2036,2033
2045,2050,2042,2072,2190,2007,2027,2008
2041,2043,2044,2075,2171,1981,2020,2002
2045,2050,2048,2044,1993,1968,2029,2005
2054,2048,2046,2030,1914,1979,2041,2003
2057,2055,2046,2006,1832,1987,2016,1991
2049,2043,2039,1992,1779,1991,2011,1989
2034,2025,2026,2008,1880,2002,2000,1979
2039,2026,2038,2034,1971,2017,1996,1988
2051,2050,2053,2059,2026,2040,2043,1995
2055,2058,2053,2064,2036,2038,2023,2001
2056,2055,2050,2058,2035,2041,2035,2005
2058,2060,2061,2058,2043,2042,2055,2013
2062,2055,2056,2060,2044,2047,2048,2019
2054,2057,2058,2064,2057,2059,2047,2025
2054,2059,2055,2065,2058,2057,2036,2037
2058,2051,2048,2056,2048,2044,2036,2040
2051,2048,2046,2051,2037,2041,2043,2052
2046,2042,2039,2046,2015,2024,2021,2065
2052,2040,2042,2041,1998,2004,2040,2072
2046,2041,2037,2040,1993,2000,2031,2072
2048,2042,2038,2030,1974,2011,2044,2088
2050,2043,2033,2038,1989,2039,2055,2097
2048,2038,2022,2035,2004,2035,2034,2091
2031,2024,2016,2036,2028,2040,2046,2100
2027,2026,2027,2054,2054,2067,2069,2115
2054,2050,2034,2055,2049,2067,2070,2106
2055,2052,2035,2054,2055,2059,2056,2102
2052,2047,2028,2046,2068,2051,2033,2090
2044,2036,2022,2049,2099,2051,2046,2082
2045,2043,2025,2060,2139,2056,2050,2075
2056,2045,2021,2057,2136,2058,2049,2064
2049,2039,2013,2050,2128,2053,2051,2051
2055,2040,2016,2046,2072,2044,2037,2040
2047,2037,2012,2037,1978,2041,2041,2033
2049,2041,2018,2032,1951,2042,2051,2026
2052,2040,2023,2044,1969,2053,2044,2016
2049,2038,2024,2037,2000,2069,2053,2005
2049,2038,2028,2044,2063,2083,2058,2007
2057,2053,2041,2064,2006,2098,2062,2002
2052,2035,2043,2039,1870,2063,2054,2004
2048,2039,2039,2025,1887,2045,2049,2000
2064,2062,2054,2056,1946,2063,2055,1997
2062,2050,2038,2045,1993,2051,2044,1997
2063,2052,2043,2066,2058,2055,2054,2013
2064,2066,2055,2086,2063,2046,2063,2016
2065,2072,2067,2081,2083,2052,2043,2011
2061,2066,2052,2060,2055,2033,2014,2006
2048,2042,2028,2043,2022,2024,2021,2009
2036,2031,2023,2055,2089,2047,1998,2018
2026,2039,2035,2085,2154,2070,2009,2037
2031,2049,2045,2086,2133,2074,2038,2058
2034,2060,2055,2076,2099,2074,2046,2072
2038,2061,2051,2072,2074,2053,2043,2090
2045,2062,2045,2073,2053,2043,2041,2096
2046,2059,2056,2078,2021,2050,2045,2102
2044,2058,2054,2075,2021,2039,2022,2092
2023,2033,2031,2061,2041,2038,2026,2104
2021,2025,2032,2057,2056,2038,2041,2108
2034,2044,2040,2049,2045,2022,2022,2101
2034,2034,2030,2045,2038,2020,2029,2101
2044,2043,2044,2072,2113,2050,2037,2092
2051,2051,2054,2087,2099,2069,2046,2090
2052,2051,2051,2067,2046,2054,2040,2078
2042,2045,2039,2036,1990,2038,2039,2065
2040,2041,2038,2014,1890,2031,2033,2048
2043,2042,2039,2014,1934,2053,2057,2052
2050,2044,2039,2039,2004,2065,2063,2041
2049,2047,2043,2037,2042,2061,2056,2030
2050,2047,2032,2049,2109,2071,2059,2024
2040,2033,2025,2049,2102,2054,2045,2002
2037,2028,2020,2052,2062,2046,2046,1998
2030,2033,2026,2058,2046,2046,2037,1995
2024,2021,2012,2045,2042,2032,2028,1982
2014,2023,2024,2038,2032,2027,2012,1990
2036,2042,2043,2052,2034,2046,2060,2011
2054,2060,2054,2056,2025,2052,2057,2012
2058,2063,2052,2051,2024,2065,2044,2013
2054,2070,2054,2049,2038,2063,2026,2013
2045,2065,2045,2047,2054,2062,2048,2004
2038,2060,2047,2061,2084,2077,2058,2022
2044,2062,2054,2068,2092,2074,2053,2027
2047,2068,2054,2066,2089,2058,2034,2032
2043,2058,2052,2055,2075,2063,2032,2035
2039,2054,2044,2044,2048,2075,2022,2048
2035,2042,2033,2037,2025,2090,2029,2064
2031,2038,2035,2030,2002,2096,2038,2074
2040,2037,2035,2032,1986,2067,2030,2100
2046,2044,2044,2046,2034,2015,2045,2111
2050,2050,2044,2070,2084,1991,2023,2103
2029,2013,2023,2051,2085,1998,2010,2109
2026,2007,2015,2054,2098,2020,2028,2111
2043,2045,2049,2078,2142,2051,2050,2126
2055,2054,2057,2093,2158,2070,2086,2122
2053,2055,2048,2080,2129,2059,2062,2106
2040,2041,2039,2058,2046,2018,2039,2087
2044,2041,2037,2046,2016,2014,2020,2081
2048,2047,2040,2064,2066,2044,2034,2073
2058,2048,2041,2069,2106,2079,2035,2060
2057,2043,2030,2048,2064,2076,2024,2038
2056,2043,2028,2027,2031,2072,2040,2025
2058,2048,2037,2042,2084,2085,2044,2008
2045,2052,2049,2053,2116,2090,2037,1996
2048,2058,2054,2054,2139,2072,2053,2005
2049,2051,2045,2044,2089,2025,2057,2010
2052,2055,2045,2042,1988,2007,2044,2005
2054,2057,2043,2033,1905,1992,2025,1980
2030,2028,2020,2012,1861,1995,2013,1972
2029,2028,2025,2025,1931,2034,2052,1991
2052,2058,2041,2050,2008,2054,2054,2000
2048,2055,2043,2052,2034,2057,2059,2006
2048,2055,2044,2050,2034,2061,2064,2012
2052,2057,2053,2044,2035,2066,2081,2020
2055,2056,2049,2052,2071,2081,2073,2028
2058,2056,2052,2064,2081,2104,2070,2041
2064,2052,2057,2067,2080,2108,2061,2047
2064,2063,2059,2069,2088,2119,2065,2058
2055,2058,2052,2077,2110,2119,2064,2064
2051,2056,2050,2080,2130,2113,2078,2069
2056,2052,2046,2066,2142,2103,2064,2070
2043,2037,2036,2052,2058,2086,2058,2067
2036,2033,2032,2020,1950,2064,2041,2080
2040,2040,2042,2019,1975,2032,2050,2084
2032,2034,2026,1999,1965,1987,2019,2073
2011,2019,2021,2002,1968,1971,2017,2088
2021,2030,2041,2036,2018,1971,2038,2114
2044,2053,2056,2054,2060,1996,2047,2111
2049,2045,2044,2059,2057,2022,2048,2097
2042,2037,2040,2046,2047,2037,2054,2090
2040,2036,2036,2045,2039,2039,2063,2079
2043,2036,2038,2043,2043,2039,2054,2066
2043,2040,2045,2050,2045,2038,2054,2054
2055,2049,2050,2050,2052,2044,2060,2046
2055,2046,2051,2055,2058,2049,2054,2044
2055,2041,2040,2055,2046,2054,2061,2033
2046,2046,2038,2056,2038,2045,2040,2025
2050,2041,2044,2050,2036,2035,2045,2017
2044,2042,2043,2053,2033,2029,2050,2008
2040,2041,2040,2042,2027,2038,2054,1997
2033,2034,2034,2041,2028,2051,2054,1981
2026,2013,2019,2025,2013,2035,2023,1974
2021,2011,2026,2026,2018,2036,2018,1980
2028,2036,2043,2041,2031,2057,2055,1995
2044,2049,2049,2046,2044,2072,2068,2000
2046,2052,2052,2047,2043,2069,2070,2005
2052,2053,2051,2049,2054,2075,2078,2021
2047,2056,2048,2053,2056,2076,2077,2024
2044,2045,2046,2059,2062,2077,2060,2030
2043,2049,2051,2058,2060,2075,2044,2035
2040,2046,2051,2059,2054,2065,2032,2039
2044,2048,2045,2060,2063,2059,2049,2049
2043,2049,2046,2061,2074,2062,2039,2062
2044,2048,2043,2063,2073,2068,2068,2076
2042,2042,2041,2061,2072,2059,2053,2086
2039,2040,2046,2057,2080,2063,2050,2093
2043,2044,2046,2067,2083,2068,2055,2104
2046,2043,2051,2068,2081,2063,2040,2093
2023,2019,2035,2054,2039,2064,2044,2096
2026,2014,2040,2045,2015,2056,2042,2107
2045,2043,2056,2048,1998,2053,2051,2109
2051,2054,2058,2046,1976,2043,2041,2100
2052,2058,2062,2042,1963,2010,2047,2094
2047,2056,2066,2053,2006,2005,2058,2094
2046,2064,2071,2060,2053,2032,2066,2083
2049,2064,2072,2062,2045,2055,2062,2075
2051,2065,2066,2062,2061,2039,2057,2077
2061,2068,2066,2059,2054,2035,2061,2063
2066,2065,2062,2049,2039,2043,2059,2052
2056,2056,2054,2037,2029,2053,2065,2038
2056,2049,2044,2024,2011,2075,2076,2032
2046,2045,2028,2009,2016,2081,2081,2021
2042,2034,2029,2010,2021,2090,2070,2010
2045,2031,2040,1998,2018,2077,2066,2003
2041,2030,2037,1996,2020,2053,2047,1983
2030,2004,2022,1990,2025,2042,2027,1980
2028,2007,2032,2008,2059,2060,2054,1995
2050,2047,2058,2040,2063,2057,2054,2001
2057,2051,2063,2040,2058,2058,2055,2003
2055,2054,2060,2035,2078,2058,2057,2013
2056,2056,2062,2040,2109,2050,2044,2007
2050,2062,2060,2043,2116,2051,2044,2008
2049,2055,2062,2041,2107,2053,2044,2024
2042,2052,2052,2041,2072,2044,2052,2032
2045,2049,2053,2047,2061,2036,2035,2045
2047,2053,2058,2045,2069,2024,2026,2059
2047,2053,2058,2050,2070,2021,2026,2070
2046,2048,2060,2047,2076,2032,2058,2082
2052,2046,2057,2044,2069,2042,2064,2094
2045,2049,2052,2043,2065,2047,2043,2094
2041,2045,2051,2036,2068,2057,2056,2098
2030,2027,2039,2020,2039,2039,2024,2090
2016,2010,2029,2023,2028,2046,2047,2091
2019,2021,2045,2031,2043,2073,2059,2109
2040,2042,2051,2035,2053,2077,2057,2105
2039,2044,2050,2037,2050,2085,2057,2096
2044,2046,2052,2038,2047,2088,2050,2089
2043,2045,2054,2035,2041,2090,2051,2081
2050,2047,2048,2035,2038,2069,2039,2075
2045,2047,2053,2035,2027,2015,2042,2061
2051,2055,2057,2034,2031,2007,2059,2054
2058,2058,2059,2044,2045,2024,2034,2049
2054,2060,2060,2049,2057,2047,2042,2046
2052,2056,2061,2052,2049,2052,2043,2034
2048,2049,2053,2046,2045,2050,2051,2019
2047,2044,2053,2041,2037,2044,2050,2013
2043,2038,2056,2044,2044,2048,2045,1999
2038,2038,2052,2048,2044,2049,2036,1997
2032,2017,2033,2031,2031,2037,1999,1992
2028,2018,2035,2037,2037,2044,2012,2002
2049,2042,2051,2055,2054,2064,2048,2005
2062,2043,2056,2059,2066,2070,2055,2012
2059,2046,2047,2057,2064,2068,2045,2010
2055,2046,2036,2058,2060,2066,2062,2008
2053,2046,2022,2056,2059,2060,2039,2012
2054,2050,2016,2056,2069,2060,2049,2032
2056,2045,2015,2057,2066,2066,2054,2041
2056,2044,2018,2053,2067,2061,2053,2048
2054,2043,2012,2060,2072,2062,2055,2054
2056,2041,2011,2054,2070,2057,2043,2066
2052,2036,2001,2040,2065,2053,2027,2077
2046,2042,2000,2034,2062,2052,2036,2081
2042,2048,2021,2036,2060,2054,2053,2092
2047,2050,2039,2030,2058,2065,2050,2102
2054,2046,2044,2027,2052,2059,2025,2098
2029,2019,2022,2013,2036,2052,2032,2094
2030,2023,2022,2016,2042,2049,2052,2110
2049,2043,2047,2024,2042,2046,2042,2101
2046,2040,2050,2028,2040,2042,2043,2099
2043,2040,2059,2022,2030,2049,2045,2090
2040,2042,2073,2025,2028,2037,2043,2080
2045,2039,2084,2027,2029,2036,2047,2067
2046,2045,2086,2032,2035,2042,2022,2056
2046,2050,2097,2038,2037,2050,2036,2051
2044,2056,2093,2044,2045,2052,2045,2040
2046,2044,2085,2046,2051,2059,2036,2032
2045,2044,2074,2042,2048,2060,2044,2019
2039,2042,2061,2047,2051,2066,2041,2012
2043,2035,2054,2042,2047,2060,2036,2004
2037,2027,2037,2039,2042,2059,2036,2006
2049,2031,2034,2043,2046,2059,2036,2001
2040,2030,2020,2033,2032,2036,2021,1986
2026,2014,2013,2027,2028,2034,2016,1978
2022,2014,2026,2038,2046,2056,2045,1993
2048,2040,2037,2048,2058,2059,2052,1998
2045,2037,2032,2048,2061,2063,2056,1992
2047,2045,2036,2051,2064,2063,2052,1994
2046,2041,2045,2044,2051,2066,2058,2006
2044,2038,2043,2043,2056,2061,2060,2009
2048,2041,2050,2042,2061,2060,2056,2024
2053,2049,2056,2041,2052,2054,2056,2042
2048,2046,2056,2044,2056,2060,2067,2052
2050,2044,2058,2040,2057,2060,2075,2065
2057,2049,2064,2039,2054,2065,2077,2066
2058,2047,2071,2039,2062,2065,2079,2085
2053,2051,2062,2042,2054,2059,2068,2092
2055,2048,2064,2036,2044,2056,2072,2107
2046,2044,2058,2035,2049,2050,2049,2101
2037,2024,2053,2026,2036,2032,2036,2096
2034,2024,2052,2032,2039,2033,2026,2101
2034,2046,2065,2042,2047,2051,2045,2106
2044,2049,2065,2041,2048,2049,2040,2097
2035,2040,2058,2031,2034,2049,2046,2084
2032,2034,2049,2030,2027,2040,2033,2067
2025,2036,2053,2027,2025,2040,2038,2062
2029,2041,2064,2038,2037,2049,2053,2065
2041,2055,2072,2044,2039,2049,2048,2053
2052,2062,2080,2045,2045,2037,2059,2043
2045,2058,2083,2043,2043,2030,2060,2030
2041,2056,2076,2049,2047,2036,2051,2027
2042,2064,2075,2047,2045,2043,2058,2017
2043,2055,2072,2042,2038,2037,2046,2010
2039,2049,2062,2046,2045,2038,2049,2008
2042,2055,2066,2042,2043,2038,2043,2004
2051,2066,2071,2041,2052,2039,2046,1994
2031,2035,2046,2028,2030,2019,2020,1985
2025,2027,2039,2024,2030,2030,2023,2002
2045,2053,2057,2048,2050,2052,2036,2007
2044,2059,2055,2052,2052,2058,2046,2012
2042,2057,2060,2049,2059,2065,2049,2017
2042,2050,2054,2048,2051,2063,2059,2015
2050,2050,2054,2050,2057,2065,2080,2025
2053,2054,2056,2046,2065,2062,2075,2032
2050,2053,2044,2040,2061,2055,2065,2038
2043,2045,2033,2041,2060,2046,2055,2047
2045,2043,2036,2038,2054,2036,2042,2057
2039,2043,2032,2041,2053,2036,2055,2068
2040,2037,2029,2042,2063,2037,2046,2074
2036,2030,2022,2038,2050,2041,2047,2083
2031,2033,2027,2041,2057,2054,2053,2085
2035,2038,2031,2047,2056,2067,2059,2092
2030,2033,2043,2054,2048,2058,2021,2085
2007,2002,2041,2052,2037,2055,2027,2088
2008,2007,2043,2060,2036,2063,2028,2111
2035,2045,2071,2074,2035,2068,2069,2108
2042,2053,2071,2073,2045,2069,2059,2101
2045,2052,2067,2071,2038,2076,2056,2097
2046,2057,2063,2069,2034,2070,2057,2081
2040,2050,2058,2067,2019,2054,2036,2072
2043,2051,2052,2055,2010,2035,2040,2059
2041,2055,2061,2057,2010,2035,2039,2041
2047,2053,2062,2060,2025,2036,2045,2044
2043,2050,2058,2049,2028,2037,2037,2025
2043,2049,2055,2043,2030,2046,2026,2022
2044,2050,2058,2050,2044,2070,2038,2019
2046,2058,2068,2046,2065,2074,2071,2016
2042,2061,2065,2046,2081,2088,2070,2017
2049,2058,2065,2043,2087,2100,2072,2009
2039,2044,2037,2023,2055,2069,2054,1994
2026,2029,2035,2013,2044,2062,2055,1998
2038,2050,2061,2027,2063,2070,2071,2012
2061,2072,2064,2036,2056,2060,2068,2019
2059,2072,2066,2032,2046,2036,2068,2018
2052,2064,2058,2031,2050,2042,2053,2006
2047,2058,2058,2040,2057,2039,2043,2011
2052,2055,2062,2053,2066,2047,2037,2025
2055,2060,2072,2056,2081,2054,2071,2033
2054,2067,2077,2057,2084,2051,2069,2041
2055,2064,2078,2056,2074,2046,2056,2045
2050,2059,2073,2056,2068,2036,2051,2056
2046,2054,2062,2051,2062,2033,2043,2069
2048,2049,2059,2046,2061,2026,2041,2082
2043,2054,2056,2044,2059,2039,2044,2095
2045,2053,2056,2039,2047,2042,2069,2102
2049,2052,2059,2040,2032,2034,2043,2098
2025,2022,2037,2016,2015,2015,2026,2092
2016,2016,2030,2011,2008,2014,2019,2099
2032,2041,2051,2031,2028,2047,2050,2104
2043,2052,2057,2035,2050,2060,2059,2101
2039,2049,2049,2041,2047,2058,2067,2092
2041,2047,2052,2040,2049,2069,2064,2083
2042,2044,2046,2043,2049,2075,2064,2069
2043,2050,2043,2044,2052,2075,2058,2058
2044,2048,2041,2044,2053,2076,2057,2045
2044,2046,2035,2036,2041,2071,2064,2038
2043,2037,2036,2040,2031,2074,2053,2023
2035,2039,2035,2037,2015,2042,2046,2022
2045,2034,2033,2030,1990,2013,2028,2019
2045,2038,2028,2020,1987,1993,2028,2009
2036,2031,2016,2031,1989,1984,2034,2006
2031,2029,2020,2034,1984,1986,2036,1992
2038,2028,2018,2037,1971,1980,2008,1975
2020,2001,2001,2017,1954,1975,1983,1968
2009,1995,1998,2008,1966,2007,2011,1982
2034,2025,2020,2037,1999,2033,2055,1996
2046,2040,2030,2046,2010,2052,2046,1994
2045,2035,2022,2054,2061,2057,2042,1996
2036,2035,2019,2060,2126,2065,2046,2001
2035,2036,2024,2060,2122,2066,2049,2000
2035,2039,2027,2064,2081,2071,2036,2012
2036,2044,2031,2060,2076,2077,2057,2024
2036,2046,2033,2055,2058,2085,2044,2037
2037,2046,2039,2054,2034,2081,2053,2042
2045,2044,2033,2038,2002,2067,2066,2051
2034,2051,2053,2036,1998,2058,2052,2067
2037,2056,2065,2030,2013,2056,2053,2083
2037,2056,2071,2026,2008,2039,2033,2093
2034,2058,2072,2008,2038,2045,2057,2104
2036,2067,2078,2017,2096,2048,2032,2101
2024,2057,2080,2022,2104,2047,2028,2102
2028,2053,2093,2037,2107,2066,2076,2123
2055,2080,2100,2050,2139,2061,2049,2110
2054,2070,2091,2056,2172,2058,2050,2100
2037,2067,2072,2050,2161,2049,2041,2088
2037,2058,2062,2042,2122,2043,2048,2073
2034,2051,2052,2026,2027,2041,2044,2047
2036,2046,2049,2019,1938,2020,2041,2050
2037,2055,2052,2036,2012,2013,2038,2050
2048,2061,2067,2058,2084,2025,2044,2043
2047,2067,2068,2063,2096,2044,2052,2041
2052,2061,2064,2047,2029,2054,2049,2025
2045,2064,2060,2025,1939,2063,2042,2016
2049,2058,2056,2026,1956,2081,2045,2014
2052,2055,2054,2033,1994,2075,2038,2004
2044,2052,2049,2037,2017,2051,2032,1992
2033,2027,2032,2017,2010,1982,2014,1967
2021,2026,2029,2026,2016,1992,2007,1981
2040,2043,2045,2045,2040,2046,2038,1994
2053,2056,2056,2053,2050,2062,2048,2005
2053,2059,2060,2054,2048,2059,2044,2003
2054,2059,2062,2056,2043,2060,2036,2004
2051,2060,2059,2055,2041,2058,2032,2016
2054,2058,2058,2051,2036,2050,2061,2018
2052,2059,2057,2052,2041,2052,2068,2029
2049,2062,2063,2051,2039,2046,2059,2045
2053,2067,2058,2052,2049,2050,2059,2053
2053,2061,2065,2049,2044,2048,2067,2070
2050,2057,2069,2055,2048,2056,2045,2074
2044,2057,2076,2065,2046,2057,2040,2087
2043,2059,2077,2068,2060,2057,2057,2099
2044,2054,2077,2074,2061,2052,2054,2103
2047,2050,2074,2069,2060,2047,2035,2094
2031,2024,2044,2049,2024,2028,2022,2095
2027,2023,2035,2050,2019,2044,2053,2103
2043,2048,2049,2069,2022,2070,2055,2107
2049,2051,2045,2065,2019,2047,2019,2101
2037,2049,2037,2047,2022,2026,2017,2088
2035,2042,2032,2035,2006,2021,2015,2069
2036,2046,2036,2025,1969,2027,2023,2062
2038,2045,2035,2025,1955,2026,2011,2043
2035,2046,2034,2024,1966,2026,2032,2036
2035,2039,2034,2025,1980,2025,2056,2022
2042,2039,2030,2031,2034,2045,2037,2016
2033,2034,2042,2030,2075,2056,2053,2009
2038,2049,2034,2025,2057,2052,2045,2006
2051,2053,2030,2020,2045,2040,2048,2002
2048,2048,2017,2016,2031,2044,2043,1999
2047,2047,2021,2017,2035,2049,2047,1996
2045,2042,2030,2021,2046,2056,2017,1977
2018,2016,2013,2014,2038,2065,1993,1971
2018,2020,2015,2011,2039,2084,2039,1994
2048,2050,2045,2022,2052,2085,2044,1995
2054,2052,2041,2020,2078,2083,2060,2008
2059,2055,2039,2027,2080,2083,2049,2005
2055,2059,2032,2024,2058,2066,2042,2005
2058,2053,2032,2028,2030,2062,2058,2007
2050,2051,2036,2037,2053,2081,2051,2016
2049,2054,2043,2041,2067,2084,2069,2034
2055,2059,2043,2038,2070,2078,2078,2054
2068,2064,2048,2034,2060,2069,2080,2055
2065,2060,2042,2023,2066,2049,2052,2064
2054,2049,2033,2026,2087,2057,2048,2083
2049,2042,2026,2025,2106,2080,2058,2087
2046,2041,2022,2005,2076,2091,2047,2089
2039,2032,2014,2004,2042,2083,2042,2088
2019,2011,1986,1988,2019,2046,2009,2074
2008,2004,1984,1995,2012,2027,2009,2075
2018,2022,1999,2020,2026,1991,2029,2099
2039,2048,2012,2041,2044,1971,2050,2110
2039,2058,2013,2045,2053,1993,2035,2106
2047,2048,2008,2036,2053,2022,2035,2101
2046,2041,2005,2042,2041,2029,2035,2091
2046,2036,2003,2040,2028,2043,2043,2072
2044,2034,2010,2042,2024,2035,2038,2056
2046,2039,2016,2044,2026,2041,2016,2040
2047,2038,2024,2049,2029,2046,2050,2038
2050,2045,2031,2054,2036,2051,2044,2032
2051,2050,2044,2057,2039,2054,2056,2025
2057,2058,2054,2059,2041,2053,2066,2016
2052,2055,2060,2057,2054,2054,2061,2003
2051,2045,2051,2053,2046,2052,2055,2002
2049,2036,2049,2037,2049,2038,2046,1992
2033,2019,2030,2015,2030,2010,2026,1976
2023,2019,2039,2002,2039,2015,2024,1990
2046,2062,2076,2028,2064,2040,2061,2001
2053,2080,2092,2038,2059,2047,2054,2001
2057,2087,2097,2040,2051,2049,2056,2009
2056,2086,2097,2032,2043,2051,2060,2008
2062,2086,2088,2029,2067,2051,2060,2013
2064,2082,2079,2035,2081,2044,2044,2024
2061,2077,2077,2036,2082,2036,2047,2032
2060,2075,2071,2042,2078,2035,2037,2048
2059,2076,2078,2043,2070,2042,2033,2052
2056,2073,2079,2046,2067,2039,2048,2058
2051,2072,2081,2045,2060,2045,2059,2068
2057,2075,2083,2041,2053,2040,2046,2078
2054,2070,2082,2033,2035,2039,2035,2089
2051,2061,2069,2022,2026,2050,2053,2098
2049,2065,2066,2026,2030,2035,2046,2093
2035,2042,2050,2017,2044,2048,2055,2100
2038,2034,2046,2022,2048,2066,2060,2113
2052,2063,2055,2033,2046,2082,2064,2118
2056,2058,2057,2034,2036,2075,2055,2109
2051,2061,2053,2040,2076,2085,2065,2097
2056,2056,2049,2035,2064,2076,2058,2085
2051,2053,2053,2034,2035,2063,2042,2077
2049,2049,2058,2039,2021,2045,2038,2068
2052,2049,2061,2036,2018,2036,2051,2062
2047,2056,2072,2042,2034,2036,2058,2048
2048,2058,2070,2045,2054,2022,2050,2048
2050,2057,2062,2030,2035,1999,2046,2042
2046,2049,2057,2019,2036,1999,2042,2027
2046,2039,2051,2012,2051,2014,2040,2013
2048,2044,2053,2014,2034,2016,2033,2002
2046,2050,2056,2018,2018,2016,2037,2000
2043,2041,2048,2007,2002,2011,1999,1978
2027,2027,2035,2017,2020,2019,1998,1977
2026,2025,2045,2039,2034,2046,2053,1997
2063,2062,2062,2041,2028,2044,2041,1993
2060,2062,2055,2037,2033,2046,2042,1996
2057,2057,2038,2022,2055,2061,2054,1997
2056,2059,2031,2018,2047,2068,2062,2000
2058,2058,2035,2021,2042,2079,2083,2021
2062,2060,2040,2025,2054,2080,2070,2027
2062,2061,2044,2020,2054,2076,2079,2040
2069,2059,2038,2019,2047,2076,2079,2046
2064,2055,2034,2015,2045,2072,2068,2062
2055,2055,2042,2019,2027,2060,2045,2067
2062,2055,2046,2014,2010,2023,2044,2081
2054,2055,2061,2024,2006,1992,2018,2098
2055,2050,2055,2019,2001,1997,2013,2104
2052,2050,2058,2008,2009,2013,2014,2101
2040,2032,2035,1998,2034,2032,2006,2086
2032,2022,2030,2004,2059,2047,2024,2094
2043,2046,2049,2016,2085,2078,2049,2106
2061,2057,2061,2032,2098,2085,2051,2105
2057,2056,2067,2034,2089,2080,2052,2093
2053,2053,2065,2029,2067,2073,2052,2088
2055,2056,2056,2025,2057,2062,2052,2085
2057,2056,2049,2026,2058,2068,2046,2072
2055,2050,2053,2027,2051,2073,2050,2055
2052,2048,2045,2028,2054,2065,2047,2045
2050,2044,2047,2027,2053,2051,2040,2031
2054,2045,2040,2021,2045,2047,2041,2024
2053,2047,2053,2027,2053,2045,2036,2021
2056,2055,2061,2036,2044,2043,2038,2016
2055,2040,2052,2037,2050,2043,2024,2004
2045,2045,2052,2040,2046,2044,2041,2001
2053,2046,2050,2044,2045,2034,2031,1983
2031,2020,2026,2026,2024,2020,2020,1973
2028,2011,2023,2019,2026,2021,2033,1996
2042,2035,2036,2034,2043,2052,2034,2000
2043,2036,2035,2034,2028,2055,2042,2002
2044,2036,2037,2037,2022,2061,2054,2008
2045,2045,2039,2035,2031,2067,2061,2012
2050,2055,2040,2040,2025,2065,2068,2016
2058,2056,2035,2036,2032,2067,2072,2026
2055,2048,2027,2019,2029,2072,2068,2031
2045,2043,2024,2020,2027,2078,2060,2043
2045,2045,2029,2022,2039,2084,2058,2057
2048,2052,2041,2026,2047,2085,2077,2064
2050,2056,2043,2028,2064,2105,2085,2081
2045,2055,2048,2022,2080,2112,2086,2091
2057,2056,2048,2032,2090,2122,2099,2107
2052,2059,2049,2035,2080,2113,2090,2112
2051,2055,2045,2025,2053,2046,2055,2106
2032,2022,2031,2018,2043,2032,2050,2100
2036,2024,2032,2025,2052,2044,2069,2114
2056,2058,2051,2033,2052,2019,2055,2109
2056,2057,2049,2031,2050,1990,2054,2104
2048,2055,2050,2034,2043,1987,2037,2091
2049,2055,2051,2030,2037,1994,2057,2081
2055,2054,2055,2034,2042,2023,2048,2079
2050,2050,2051,2032,2042,2039,2048,2062
2054,2048,2046,2031,2047,2046,2047,2045
2042,2048,2041,2027,2037,2039,2052,2028
2044,2045,2044,2022,2034,2037,2024,2016
2043,2046,2044,2019,2039,2035,2025,2021
2046,2039,2049,2018,2033,2046,2051,2018
2045,2039,2055,2023,2039,2052,2058,2013
2045,2038,2053,2020,2036,2062,2072,2005
2042,2045,2053,2021,2038,2064,2070,2009
2036,2024,2036,2014,2012,2043,2041,1995
2028,2021,2031,2012,2011,2042,2050,1988
2029,2041,2047,2020,2029,2053,2070,2009
2052,2059,2050,2027,2029,2045,2065,2005
2058,2058,2048,2023,2038,2045,2081,2008
2056,2050,2051,2026,2054,2047,2072,2012
2049,2053,2055,2021,2035,2036,2056,2014
2054,2055,2054,2029,2034,2043,2057,2023
2058,2056,2060,2032,2045,2053,2055,2032
2061,2063,2060,2041,2061,2061,2066,2042
2061,2055,2062,2049,2055,2057,2071,2057
2061,2056,2060,2042,2053,2045,2066,2068
2058,2055,2059,2040,2042,2037,2062,2079
2057,2044,2059,2041,2038,2040,2064,2084
2054,2043,2051,2036,2056,2038,2047,2086
2051,2029,2049,2034,2072,2041,2040,2092
2038,2029,2044,2042,2071,2044,2031,2094
2030,2000,2022,2021,2042,2020,2021,2088
2021,2002,2028,2024,2035,2024,2029,2104
2047,2035,2048,2038,2050,2046,2057,2109
2054,2038,2046,2038,2044,2039,2051,2108
2055,2046,2042,2035,2035,2037,2044,2101
2052,2048,2043,2031,2027,2037,2034,2086
2051,2042,2042,2031,2032,2044,2057,2067
2054,2038,2036,2028,2028,2046,2053,2059
2051,2042,2028,2027,2016,2055,2061,2046
2052,2036,2025,2016,1983,2065,2056,2034
2052,2029,2022,2012,1954,2070,2052,2025
2054,2030,2020,2008,1942,2065,2053,2021
2049,2030,2021,2009,1975,2059,2057,2018
2049,2028,2019,2014,2023,2022,2057,2010
2060,2037,2023,2030,2086,2000,2056,2017
2058,2034,2029,2037,2112,2002,2034,2006
2058,2038,2030,2037,2161,2034,2031,1988
2035,2005,2016,2021,2124,2039,2014,1979
2023,2003,2017,2016,2046,2031,2020,1983
2038,2029,2038,2015,1996,2043,2033,1981
2037,2027,2042,2021,1977,2044,2040,1982
2048,2031,2046,2027,1892,2014,2044,1991
2052,2036,2047,2032,1930,2006,2041,2008
2049,2041,2057,2051,2043,2038,2053,2021
2060,2054,2067,2064,2089,2064,2053,2023
2065,2062,2072,2071,2088,2070,2054,2035
2065,2065,2091,2068,2075,2067,2081,2045
2061,2066,2091,2061,2065,2057,2072,2058
2061,2057,2076,2054,2070,2042,2059,2059
2054,2050,2059,2042,2039,2038,2066,2074
2054,2049,2049,2039,2045,2040,2065,2086
2053,2046,2047,2035,2077,2041,2064,2102
2054,2039,2043,2040,2083,2053,2062,2100
2051,2030,2024,2029,2076,2047,2053,2087
2035,2010,2018,2024,2072,2046,2046,2096
2030,2017,2028,2040,2076,2073,2073,2108
2050,2040,2039,2047,2080,2073,2074,2110
2052,2036,2043,2046,2078,2061,2069,2104
2060,2034,2042,2035,2052,2046,2049,2085
2059,2034,2044,2021,2057,2037,2049,2076
2058,2038,2050,2029,2077,2045,2030,2067
2055,2044,2051,2031,2085,2051,2055,2053
2059,2041,2055,2033,2102,2056,2035,2040
2056,2043,2044,2032,2092,2060,2031,2029
2058,2039,2052,2027,2017,2065,2045,2027
2056,2047,2064,2021,1985,2071,2045,2014
2057,2048,2069,2035,2016,2076,2054,2016
2055,2043,2073,2041,2041,2066,2040,2011
2063,2046,2071,2044,2026,2049,2058,2016
2068,2050,2070,2043,2038,2007,2039,2011
2057,2031,2055,2030,2032,1978,2013,2001
2053,2025,2056,2024,2002,1988,2015,1992
2061,2047,2064,2029,1987,2030,2056,2006
2067,2064,2076,2042,2012,2048,2071,2004
2066,2067,2077,2051,2021,2071,2056,2006
2061,2065,2073,2044,1993,2076,2049,2010
2066,2058,2080,2070,2024,2084,2046,2016
2061,2062,2081,2065,2028,2074,2052,2020
2069,2061,2083,2074,2026,2061,2049,2027
2066,2057,2089,2070,2041,2062,2056,2035
2067,2051,2081,2078,2058,2072,2043,2046
2062,2043,2071,2073,2079,2059,2045,2047
2061,2037,2060,2066,2078,2052,2060,2057
2056,2036,2050,2053,2068,2042,2033,2067
2057,2029,2038,2040,2050,2033,2049,2079
2059,2029,2031,2038,2051,2030,2050,2088
2055,2024,2031,2048,2055,2020,2035,2074
2026,1998,2016,2034,2048,2018,2015,2071
2013,1991,2014,2030,2040,2026,2033,2085
2021,2012,2029,2032,2037,2029,2047,2083
2033,2014,2026,2022,2034,2030,2035,2084
2033,2021,2041,2026,2028,2033,2042,2078
2037,2037,2049,2026,2026,2040,2049,2064
2037,2040,2054,2025,2018,2033,2014,2056
2042,2036,2045,2017,2008,2032,2015,2055
2046,2039,2040,2016,2009,2039,2039,2048
2060,2045,2040,2014,2016,2039,2049,2047
2060,2039,2031,2012,2034,2054,2067,2030
2059,2037,2027,2018,2037,2065,2065,2028
2055,2029,2031,2022,2041,2050,2049,2024
2058,2025,2018,2019,2029,2039,2041,2010
2054,2030,2021,2019,2024,2034,2054,2000
2053,2029,2017,2011,2026,2042,2064,2000
2052,2028,2013,2003,2015,2030,2026,1983
2036,2000,1997,1995,2003,2022,2033,1976
2028,1995,2002,2007,2024,2023,2020,1989
2043,2021,2008,2017,2040,2027,2051,1990
2046,2025,2008,2028,2052,2044,2045,1981
2045,2026,2007,2038,2061,2058,2046,1979
2043,2023,2007,2034,2064,2062,2043,1987
2037,2017,2008,2026,2056,2059,2044,2006
2042,2026,2012,2030,2058,2050,2044,2018
2047,2031,2014,2032,2060,2052,2042,2026
2046,2036,2019,2029,2062,2055,2056,2038
2050,2038,2033,2031,2073,2058,2061,2049
2051,2056,2053,2030,2070,2058,2052,2060
2061,2062,2064,2029,2059,2057,2069,2074
2058,2068,2081,2040,2057,2057,2063,2089
2058,2080,2089,2042,2062,2055,2042,2096
2059,2071,2086,2041,2057,2055,2056,2101
2046,2040,2069,2027,2036,2038,2045,2087
2040,2030,2055,2024,2034,2035,2040,2099
2050,2045,2065,2041,2042,2049,2053,2113
2066,2058,2068,2041,2040,2056,2072,2107
2067,2062,2069,2043,2038,2052,2058,2103
2064,2067,2069,2045,2036,2042,2044,2086
2068,2066,2077,2047,2029,2042,2039,2074
2058,2065,2065,2045,2030,2043,2037,2061
2062,2056,2058,2040,2034,2055,2045,2049
2055,2052,2054,2033,2032,2059,2053,2038
2060,2049,2048,2034,2034,2056,2026,2031
2066,2052,2047,2026,2033,2052,2042,2024
2064,2054,2052,2027,2036,2048,2051,2021
2063,2052,2046,2024,2027,2045,2031,2017
2066,2047,2043,2026,2029,2038,2047,2004
2056,2043,2042,2034,2031,2047,2058,2002
2055,2040,2049,2034,2034,2049,2042,1983
2034,2014,2028,2017,2016,2035,2031,1967
2032,2012,2033,2022,2019,2038,2036,1987
2050,2034,2059,2043,2045,2057,2047,1996
2056,2043,2078,2052,2041,2057,2050,2005
2056,2046,2076,2047,2044,2062,2064,2006
2055,2045,2070,2050,2044,2063,2065,2010
2054,2044,2061,2053,2054,2059,2057,2010
2054,2040,2047,2048,2054,2067,2064,2022
2048,2046,2054,2051,2049,2062,2057,2030
2059,2055,2071,2054,2059,2055,2048,2042
2062,2068,2081,2059,2057,2060,2056,2056
2065,2074,2085,2058,2058,2057,2068,2061
2069,2069,2086,2057,2061,2056,2040,2074
2064,2061,2078,2050,2062,2052,2070,2087
2063,2060,2077,2049,2059,2053,2068,2096
2069,2060,2068,2046,2054,2052,2072,2104
2065,2057,2063,2036,2034,2033,2040,2088
2042,2025,2035,2019,2019,2023,2009,2088
2039,2021,2034,2013,2009,2025,2036,2107
2057,2055,2063,2027,2016,2025,2046,2104
2063,2053,2065,2031,2014,2029,2033,2104
2062,2060,2064,2030,2016,2036,2053,2095
2057,2063,2061,2027,2020,2040,2064,2089
2059,2067,2054,2031,2014,2041,2060,2073
2057,2057,2052,2030,2021,2041,2049,2054
2052,2050,2046,2031,2025,2044,2041,2043
2055,2050,2053,2033,2037,2045,2046,2038
2052,2056,2052,2040,2057,2058,2034,2028
2047,2047,2044,2044,2070,2069,2060,2016
2041,2043,2046,2035,2067,2069,2054,2005
2043,2037,2039,2031,2053,2065,2053,2002
2042,2032,2040,2034,2058,2066,2069,1998
2040,2035,2044,2038,2047,2072,2056,1995
2039,2025,2030,2030,2039,2046,2027,1974
2026,2013,2027,2025,2033,2041,2047,1978
2032,2022,2046,2044,2032,2064,2076,2006
2051,2054,2055,2053,2071,2070,2079,2008
2055,2057,2059,2057,2073,2061,2077,2008
2056,2054,2054,2054,2063,2066,2074,2013
2061,2052,2053,2054,2061,2074,2076,2020
2058,2055,2058,2058,2030,2086,2062,2022
2060,2066,2054,2055,2035,2102,2046,2034
2060,2055,2051,2054,2060,2085,2027,2038
2055,2056,2043,2039,2088,2062,2014,2038
2050,2052,2046,2030,2114,2068,2043,2047
2053,2058,2046,2051,2151,2093,2040,2063
2053,2058,2056,2063,2160,2081,2032,2075
2060,2058,2045,2053,2140,2069,2032,2090
2057,2053,2038,2053,2117,2069,2040,2094
2050,2052,2031,2046,2101,2064,2040,2093
2038,2027,2008,2034,2044,2046,2024,2082
2024,2019,2004,2024,1993,2059,2012,2094
2035,2039,2021,2016,1876,2059,2022,2088
2035,2038,2020,2002,1861,2057,2018,2083
2037,2037,2025,2012,1944,2068,2028,2081
2047,2039,2031,2041,2073,2052,2026,2072
2038,2043,2039,2059,2117,2026,2034,2064
2048,2039,2050,2059,2098,2022,2048,2050
2047,2040,2045,2056,2063,2025,2048,2044
2049,2034,2049,2062,2065,2029,2041,2032
2046,2042,2046,2061,2068,2022,2040,2022
2044,2041,2044,2063,2061,1997,2029,2014
2049,2043,2048,2051,2047,2006,2035,2008
2044,2049,2064,2046,2004,2010,2029,2008
2051,2056,2078,2044,1974,2028,2031,1999
2055,2061,2084,2040,1996,2039,2045,2000
2057,2064,2078,2040,2016,2033,2030,1982
2037,2039,2054,2025,2015,2039,2024,1981
2032,2031,2046,2028,2029,2055,2040,1990
2051,2064,2077,2047,2059,2068,2056,1992
2059,2067,2075,2049,2058,2067,2062,1995
2061,2067,2066,2038,2058,2057,2055,1994
2056,2062,2068,2036,2057,2056,2054,2001
2058,2060,2066,2038,2059,2049,2040,2005
2056,2065,2066,2046,2051,2037,2027,2014
2053,2059,2058,2053,2063,2023,2035,2016
2047,2062,2068,2052,2064,2043,2030,2031
2050,2068,2069,2050,2057,2041,2052,2040
2054,2056,2059,2052,2049,2039,2062,2055
2046,2063,2063,2047,2051,2047,2050,2062
2048,2055,2056,2041,2058,2042,2051,2072
2044,2055,2060,2039,2054,2048,2052,2084
2049,2054,2060,2038,2049,2045,2039,2087
2048,2053,2044,2026,2029,2027,2017,2075
2024,2021,2031,2018,2022,2026,2022,2084
2024,2018,2044,2031,2043,2043,2050,2103
2046,2052,2057,2035,2051,2044,2036,2098
2054,2054,2055,2034,2044,2056,2054,2087
2052,2054,2050,2037,2044,2050,2055,2082
2052,2054,2049,2039,2042,2049,2040,2079
2049,2050,2038,2033,2033,2045,2048,2063
2048,2048,2042,2029,2025,2037,2042,2056
2053,2045,2041,2035,2034,2036,2038,2045
2053,2047,2044,2035,2033,2035,2047,2033
2047,2049,2039,2033,2040,2041,2059,2026
2056,2052,2042,2039,2043,2044,2043,2016
2060,2048,2043,2037,2047,2044,2037,2011
2053,2042,2034,2036,2039,2045,2053,2005
2051,2037,2031,2036,2045,2042,2049,1992
2043,2037,2036,2039,2046,2044,2040,1992
2043,2020,2024,2025,2038,2032,2021,1984
2032,2017,2015,2026,2031,2033,2034,1987
2049,2036,2038,2040,2054,2061,2060,2002
2073,2053,2048,2040,2051,2063,2062,2011
2065,2054,2054,2041,2043,2062,2062,2016
2068,2061,2058,2045,2034,2062,2054,2013
2066,2059,2048,2036,2031,2049,2062,2015
2065,2052,2044,2034,2032,2044,2059,2019
2058,2048,2046,2038,2026,2040,2067,2024
2054,2042,2049,2036,2026,2042,2067,2034
2053,2048,2052,2040,2028,2045,2077,2050
2052,2052,2053,2049,2026,2053,2063,2062
2056,2059,2056,2045,2013,2056,2070,2078
2050,2065,2051,2048,2010,2049,2072,2089
2058,2072,2047,2048,2016,2046,2062,2096
2058,2074,2044,2059,2049,2049,2055,2096
2052,2066,2044,2056,2091,2045,2038,2090
2032,2041,2025,2043,2092,2022,2023,2083
2031,2039,2028,2048,2082,2024,2039,2106
2048,2058,2058,2074,2090,2038,2038,2106
2054,2059,2061,2078,2086,2047,2034,2100
2054,2063,2059,2083,2077,2048,2033,2087
2051,2064,2056,2084,2090,2065,2009,2077
2050,2055,2051,2079,2077,2062,2012,2059
2041,2052,2043,2078,2069,2063,2029,2048
2035,2050,2047,2082,2061,2063,2034,2038
2041,2051,2051,2064,2037,2064,2041,2030
2049,2047,2052,2053,2051,2046,2034,2030
2048,2050,2050,2052,2068,2049,2031,2026
2050,2058,2042,2055,2057,2053,2044,2017
2053,2056,2034,2048,2047,2062,2053,2008
2053,2054,2032,2052,2045,2063,2060,1997
2056,2055,2024,2043,2039,2042,2048,1989
2048,2055,2017,2046,2051,1993,2026,1978
2030,2031,2012,2038,2072,1986,2024,1976
2031,2030,2021,2050,2101,2008,2049,1991
2056,2066,2050,2052,2079,2036,2065,2002
2055,2073,2053,2050,2011,2046,2077,2012
2057,2074,2053,2053,2010,2042,2082,2017
2059,2064,2044,2064,2056,2052,2094,2019
2058,2061,2038,2064,2070,2063,2081,2023
2054,2049,2028,2051,2042,2060,2070,2031
2052,2044,2024,2033,2020,2057,2055,2047
2054,2045,2029,2022,2033,2065,2068,2056
2047,2042,2030,2011,2049,2064,2075,2062
2049,2046,2038,2003,2055,2052,2073,2070
2046,2057,2055,2010,2101,2070,2068,2085
2054,2068,2067,2027,2111,2079,2072,2094
2050,2063,2068,2037,2087,2064,2037,2092
2049,2065,2063,2040,2082,2049,2045,2097
2049,2056,2043,2032,2054,2037,2030,2090
2032,2048,2033,2024,2033,2030,1999,2101
2027,2047,2042,2031,2042,2035,2025,2110
2050,2068,2039,2039,2046,2033,2037,2108
2046,2060,2051,2039,2048,2036,2019,2101
2049,2059,2048,2038,2048,2036,2032,2096
2046,2060,2058,2048,2050,2048,2024,2080
2051,2060,2057,2046,2041,2054,2038,2068
2047,2057,2046,2037,2045,2051,2032,2055
2044,2052,2032,2034,2046,2048,2040,2045
2045,2043,2027,2034,2053,2032,2029,2031
2040,2036,2027,2034,2061,2039,2052,2020
2040,2039,2026,2041,2044,2045,2044,2018
2047,2041,2026,2033,2037,2041,2030,2011
2044,2041,2024,2024,2031,2043,2039,2009
2044,2041,2028,2015,2036,2042,2037,2005
2043,2050,2043,2013,2033,2047,2032,1986
2027,2030,2035,2002,2019,2031,2024,1972
2023,2025,2037,2008,2017,2030,2019,1981
2042,2052,2059,2023,2037,2046,2059,2005
2055,2065,2058,2040,2037,2046,2052,2011
2063,2066,2060,2044,2044,2051,2070,2012
2055,2068,2053,2041,2047,2059,2062,2015
2060,2065,2055,2040,2051,2063,2062,2020
2057,2066,2055,2044,2070,2064,2060,2023
2060,2072,2067,2059,2075,2064,2035,2037
2060,2067,2066,2057,2063,2061,2038,2041
2057,2068,2064,2063,2061,2051,2030,2054
2052,2069,2061,2057,2082,2054,2034,2068
2060,2064,2060,2053,2082,2054,2022,2076
2049,2053,2054,2042,2059,2050,2054,2083
2054,2057,2051,2042,2054,2054,2042,2099
2054,2062,2053,2043,2049,2057,2061,2107
2059,2068,2054,2045,2044,2041,2040,2100
2036,2032,2028,2032,2050,2034,2022,2096
2029,2021,2025,2030,2054,2046,2055,2108
2052,2052,2048,2052,2066,2062,2054,2111
2048,2057,2042,2050,2064,2068,2062,2107
2048,2049,2036,2044,2058,2060,2050,2094
2041,2045,2036,2042,2052,2045,2032,2089
2043,2048,2034,2045,2041,2032,2043,2074
2044,2048,2035,2044,2039,2038,2018,2070
2051,2051,2042,2044,2037,2034,2022,2060
2052,2054,2044,2045,2042,2032,2039,2050
2056,2058,2038,2045,2046,2034,2048,2044
2052,2050,2034,2048,2056,2034,2039,2040
2044,2048,2037,2044,2058,2035,2035,2028
2039,2047,2037,2044,2051,2027,2022,2021
2043,2049,2037,2044,2054,2036,2029,2019
2056,2058,2051,2052,2068,2045,2056,2016
2055,2057,2047,2042,2058,2039,2036,1996
2040,2028,2029,2036,2047,2045,2028,1985
2025,2022,2029,2036,2057,2071,2057,2006
2048,2051,2038,2044,2041,2065,2034,2006
2044,2047,2040,2040,2019,2071,2046,2005
2054,2056,2037,2046,2044,2116,2062,2014
2059,2058,2043,2056,2055,2134,2084,2019
2055,2052,2048,2058,2050,2133,2070,2024
2051,2045,2052,2060,2047,2130,2052,2026
2051,2046,2041,2053,2045,2061,2016,2028
2049,2042,2043,2052,2046,2002,2026,2041
2051,2050,2045,2048,2049,2006,2034,2061
2050,2056,2045,2053,2057,2027,2046,2071
2048,2045,2043,2052,2057,2036,2044,2077
2054,2034,2041,2054,2053,2034,2058,2090
2053,2039,2038,2052,2045,2037,2047,2105
