CH1,CH2,CH3,CH4,CH5,CH6,CH7,CH8
2049,2052,2053,2053,2048,2040,2057,2041
2053,2062,2063,2054,2046,2054,2061,2046
2054,2056,2057,2049,2045,2053,2059,2037
2055,2047,2050,2038,2036,2043,2053,2032
2049,2042,2040,2031,2034,2037,2045,2023
2045,2041,2038,2035,2038,2041,2050,2015
2040,2046,2049,2037,2041,2041,2054,2023
2041,2045,2034,2035,2041,2043,2050,2026
2037,2033,2025,2034,2036,2034,2049,2019
2035,2032,2026,2043,2039,2037,2048,2021
2047,2046,2054,2063,2053,2039,2051,2024
2048,2056,2072,2072,2053,2034,2036,2028
2049,2058,2072,2064,2034,2027,2048,2021
2049,2046,2061,2063,2024,2018,2060,2024
2043,2048,2051,2055,2017,2011,2054,2024
2038,2041,2039,2047,2006,2012,2026,2019
2030,2032,2028,2041,2021,2027,2019,2025
2035,2044,2048,2061,2059,2050,2062,2042
2051,2062,2073,2085,2079,2056,2049,2051
2057,2083,2087,2093,2071,2056,2039,2058
2066,2082,2086,2085,2073,2060,2054,2061
2065,2066,2077,2077,2058,2050,2038,2070
2061,2053,2063,2052,2044,2043,2032,2075
2055,2041,2045,2034,2035,2045,2036,2075
2046,2027,2027,2017,2019,2046,2020,2062
2034,2017,2027,2007,2011,2055,2033,2068
2045,2041,2048,2017,2026,2070,2033,2071
2046,2061,2072,2029,2035,2081,2040,2073
2047,2063,2075,2043,2038,2079,2034,2076
2046,2061,2072,2040,2039,2076,2063,2069
2049,2058,2064,2045,2041,2079,2077,2066
2054,2058,2062,2047,2034,2070,2068,2057
2057,2047,2056,2045,2039,2059,2062,2053
2055,2038,2039,2036,2043,2043,2055,2044
2042,2025,2023,2034,2045,2033,2036,2025
2033,2019,2018,2038,2049,2014,2054,2018
2035,2021,2018,2045,2043,2013,2061,2016
2038,2029,2038,2054,2039,2010,2062,2023
2047,2026,2044,2053,2031,2018,2066,2024
2057,2041,2052,2058,2029,2022,2067,2036
2064,2054,2069,2067,2040,2034,2062,2023
2061,2047,2059,2064,2034,2056,2058,2019
2053,2028,2042,2064,2030,2080,2060,2022
2047,2023,2046,2071,2020,2084,2058,2020
2049,2017,2040,2073,2017,2073,2052,2012
2038,2014,2030,2077,2021,2066,2050,2007
2032,2012,2017,2080,2020,2051,2053,2022
2030,2016,2023,2092,2050,2034,2033,2036
2033,2024,2029,2107,2111,2036,2048,2041
2039,2044,2035,2114,2161,2056,2062,2054
2046,2060,2048,2114,2171,2074,2066,2056
2055,2069,2050,2112,2162,2084,2078,2066
2057,2069,2049,2092,2127,2077,2068,2064
2051,2056,2031,2074,2094,2060,2051,2068
2043,2052,2021,2062,2083,2051,2047,2075
2042,2051,2015,2034,2045,2041,2056,2079
2052,2051,2019,2009,1972,2029,2053,2083
2046,2043,2020,1989,1886,2024,2050,2080
2054,2041,2026,1981,1926,2039,2052,2071
2042,2044,2022,1965,1992,2058,2053,2051
2042,2037,2020,1967,2032,2070,2051,2050
2052,2045,2046,1980,2021,2065,2061,2055
2057,2048,2068,1991,2014,2060,2049,2053
2057,2056,2082,2014,2022,2049,2062,2052
2062,2074,2092,2043,2036,2024,2062,2053
2068,2070,2093,2055,2048,2020,2059,2040
2061,2064,2081,2057,2062,2038,2049,2022
2055,2054,2072,2050,2067,2046,2038,2025
2052,2045,2062,2046,2062,2055,2072,2017
2053,2040,2047,2045,2057,2055,2062,2014
2053,2045,2053,2040,2056,2051,2058,2014
2059,2050,2058,2040,2050,2051,2059,2011
2049,2049,2059,2046,2050,2046,2050,2011
2050,2037,2066,2050,2050,2046,2056,2007
2048,2044,2066,2056,2053,2058,2067,2012
2054,2056,2066,2060,2049,2054,2063,2009
2056,2049,2049,2061,2049,2057,2056,2015
2046,2035,2042,2054,2047,2056,2059,2017
2036,2027,2034,2047,2049,2072,2056,2020
2041,2036,2041,2058,2050,2090,2060,2028
2060,2054,2038,2070,2048,2080,2049,2043
2076,2049,2017,2072,2056,2062,2034,2043
2065,2053,2016,2073,2058,2043,2024,2049
2066,2057,2023,2078,2071,2015,2050,2052
2057,2049,2019,2078,2077,2017,2042,2060
2054,2041,2018,2066,2069,2028,2042,2062
2040,2029,2008,2051,2066,2033,2050,2059
2046,2027,2012,2054,2062,2045,2058,2070
2056,2032,2015,2044,2066,2047,2060,2069
2060,2029,2008,2043,2060,2037,2051,2062
2055,2027,2020,2040,2054,2049,2059,2067
2049,2040,2034,2052,2055,2047,2062,2067
2047,2046,2046,2054,2046,2052,2056,2066
2042,2038,2052,2054,2030,2036,2035,2062
2037,2038,2062,2058,2021,2030,2035,2047
2047,2045,2083,2059,2025,2040,2049,2043
2049,2049,2085,2061,2036,2044,2056,2033
2058,2056,2084,2060,2035,2047,2057,2037
2064,2063,2066,2054,2034,2041,2057,2035
2061,2050,2050,2042,2047,2041,2038,2023
2057,2049,2024,2034,2048,2038,2054,2025
2053,2047,2011,2035,2040,2041,2056,2029
2060,2050,2013,2042,2038,2041,2060,2028
2063,2055,2018,2045,2038,2042,2061,2022
2067,2047,2014,2047,2037,2041,2054,2013
2060,2032,2003,2041,2032,2031,2051,2008
2042,2022,2007,2040,2032,2038,2049,2008
2041,2040,2021,2052,2039,2043,2059,2012
2038,2050,2028,2047,2040,2044,2070,2021
2051,2054,2034,2038,2037,2049,2068,2025
2054,2054,2033,2028,2039,2046,2064,2029
2055,2049,2044,2021,2040,2048,2069,2042
2060,2056,2071,2031,2045,2045,2075,2038
2065,2062,2089,2044,2057,2046,2067,2042
2055,2059,2095,2056,2057,2053,2065,2044
2049,2066,2106,2057,2060,2053,2066,2056
2052,2062,2114,2065,2061,2056,2069,2065
2056,2058,2116,2063,2061,2059,2055,2068
2051,2051,2094,2051,2060,2049,2051,2085
2052,2048,2072,2048,2043,2032,2053,2085
2048,2036,2059,2046,2021,2027,2051,2076
2036,2026,2045,2029,2001,2012,2035,2073
2039,2025,2040,2034,1993,2020,2041,2073
2050,2031,2045,2029,2002,2025,2048,2072
2049,2028,2044,2041,2026,2053,2054,2073
2057,2038,2044,2056,2062,2062,2055,2071
2055,2038,2041,2057,2078,2063,2064,2060
2052,2034,2039,2059,2093,2074,2060,2061
2047,2040,2039,2058,2091,2070,2051,2047
2044,2046,2042,2057,2080,2063,2061,2045
2047,2041,2039,2057,2072,2062,2054,2036
2049,2044,2045,2054,2060,2053,2045,2034
2052,2045,2054,2054,2067,2054,2052,2032
2050,2045,2053,2052,2063,2053,2046,2032
2050,2042,2063,2051,2058,2057,2052,2021
2052,2046,2064,2055,2058,2056,2050,2024
2055,2048,2060,2063,2050,2054,2064,2024
2056,2036,2048,2058,2040,2044,2047,2020
2048,2031,2046,2051,2033,2047,2040,2022
2050,2043,2072,2059,2040,2055,2045,2029
2053,2055,2078,2072,2058,2059,2041,2038
2065,2064,2097,2080,2065,2071,2044,2038
2078,2067,2097,2080,2077,2079,2074,2033
2071,2061,2085,2080,2073,2083,2071,2033
2064,2064,2077,2078,2076,2085,2062,2032
2064,2059,2078,2071,2075,2084,2077,2037
2061,2049,2067,2059,2064,2068,2073,2049
2050,2046,2059,2054,2061,2060,2069,2061
2051,2046,2056,2053,2057,2043,2074,2060
2054,2048,2060,2054,2059,2045,2068,2071
2050,2052,2052,2047,2036,2029,2054,2078
2053,2054,2048,2048,2032,2028,2060,2083
2066,2056,2057,2049,2042,2035,2056,2079
2059,2052,2053,2044,2035,2031,2042,2068
2050,2037,2043,2046,2035,2031,2040,2068
2045,2040,2042,2048,2034,2041,2053,2065
2049,2038,2044,2049,2030,2040,2051,2065
2043,2044,2052,2054,2033,2045,2045,2063
2043,2050,2058,2061,2047,2048,2051,2055
2047,2056,2066,2075,2051,2049,2051,2058
2047,2060,2074,2081,2049,2044,2054,2051
2053,2053,2071,2077,2045,2049,2044,2043
2049,2047,2061,2071,2047,2050,2042,2032
2044,2035,2052,2062,2049,2047,2038,2027
2040,2033,2038,2056,2051,2045,2042,2018
2040,2024,2029,2047,2043,2056,2039,2016
2040,2028,2022,2046,2047,2059,2047,2020
2050,2035,2017,2046,2046,2061,2031,2025
2045,2038,2015,2053,2047,2070,2031,2030
2050,2026,2003,2046,2047,2068,2054,2023
2041,2012,1992,2033,2041,2061,2062,2024
2041,2026,2015,2044,2056,2063,2076,2033
2053,2062,2066,2061,2064,2079,2090,2042
2062,2086,2096,2070,2075,2089,2085,2051
2069,2087,2093,2049,2076,2090,2085,2058
2063,2068,2067,2034,2061,2082,2076,2050
2061,2045,2050,2014,2050,2074,2059,2059
2048,2049,2049,2017,2052,2074,2070,2054
2054,2048,2056,2018,2057,2078,2065,2052
2053,2056,2057,2030,2054,2073,2068,2057
2053,2059,2059,2040,2052,2071,2072,2066
2054,2053,2050,2044,2050,2064,2064,2074
2053,2054,2041,2050,2056,2062,2052,2073
2055,2050,2046,2055,2055,2061,2061,2072
2052,2042,2050,2061,2050,2023,2036,2063
2043,2028,2037,2053,2034,1993,2015,2061
2031,2021,2023,2039,2021,2000,2022,2062
2037,2035,2028,2050,2030,2026,2017,2074
2049,2046,2038,2060,2048,2044,2027,2076
2049,2050,2042,2058,2051,2054,2023,2065
2044,2039,2032,2052,2046,2050,2021,2060
2037,2032,2017,2040,2028,2044,2018,2052
2037,2029,2015,2036,2017,2038,2019,2036
2039,2030,2020,2041,2026,2035,2026,2036
2044,2054,2046,2053,2038,2035,2033,2031
2047,2067,2056,2060,2052,2039,2031,2032
2063,2069,2060,2056,2060,2046,2032,2034
2052,2054,2050,2046,2056,2052,2037,2030
2049,2050,2047,2037,2051,2047,2023,2028
2050,2046,2047,2034,2049,2047,2022,2025
2049,2037,2037,2028,2047,2045,2034,2008
2041,2036,2031,2021,2047,2034,2021,2007
2033,2034,2043,2025,2030,2030,2033,2010
2039,2049,2065,2032,2032,2031,2036,2027
2048,2062,2075,2040,2038,2029,2036,2032
2047,2058,2069,2040,2039,2028,2037,2027
2045,2050,2061,2026,2050,2044,2024,2025
2050,2052,2065,2045,2075,2063,2023,2041
2054,2057,2061,2060,2083,2070,2047,2047
2055,2051,2056,2056,2083,2073,2056,2056
2052,2042,2051,2054,2086,2078,2050,2062
2048,2053,2056,2065,2092,2081,2065,2063
2043,2057,2055,2061,2080,2065,2052,2066
2050,2046,2054,2056,2071,2054,2040,2078
2047,2047,2050,2054,2059,2047,2053,2078
2050,2044,2055,2056,2059,2044,2059,2084
2045,2044,2062,2066,2052,2050,2049,2090
2047,2041,2065,2069,2055,2052,2039,2084
2039,2031,2060,2072,2056,2049,2037,2081
2043,2037,2053,2072,2052,2052,2036,2078
2042,2045,2049,2067,2051,2052,2028,2070
2034,2047,2036,2070,2050,2053,2025,2070
2034,2052,2026,2072,2052,2060,2040,2065
2040,2048,2011,2068,2061,2068,2048,2062
2047,2047,2004,2064,2047,2063,2041,2053
2048,2051,2008,2058,2049,2057,2055,2054
2050,2050,2010,2053,2045,2057,2046,2043
2052,2050,2012,2053,2042,2057,2044,2036
2050,2045,2007,2036,2045,2053,2050,2030
2046,2036,2004,2025,2044,2049,2044,2027
2037,2040,2002,2009,2035,2040,2046,2025
2042,2037,2014,2008,2036,2039,2036,2022
2045,2045,2032,2003,2035,2036,2036,2027
2044,2048,2053,2012,2035,2031,2037,2019
2041,2044,2056,2011,2031,2025,2018,2020
2034,2038,2058,2022,2038,2039,2035,2027
2039,2056,2067,2032,2037,2040,2030,2029
2048,2064,2087,2042,2040,2043,2042,2032
2045,2071,2090,2047,2045,2037,2038,2034
2046,2073,2086,2043,2041,2039,2039,2045
2056,2062,2079,2044,2038,2042,2042,2049
2050,2052,2076,2041,2044,2045,2041,2045
2051,2052,2072,2041,2048,2042,2048,2053
2042,2046,2063,2044,2050,2040,2037,2057
2047,2049,2058,2049,2056,2050,2032,2068
2052,2053,2058,2049,2056,2057,2037,2070
2052,2050,2056,2051,2059,2057,2040,2077
2048,2045,2052,2046,2054,2059,2044,2075
2042,2041,2045,2044,2050,2057,2030,2076
2041,2041,2045,2038,2044,2049,2031,2075
2036,2033,2034,2039,2042,2052,2041,2079
2038,2038,2035,2042,2044,2050,2054,2081
2050,2051,2041,2047,2050,2052,2051,2084
2055,2052,2043,2049,2051,2055,2049,2073
2050,2048,2037,2048,2047,2050,2049,2071
2054,2040,2029,2046,2045,2050,2054,2072
2048,2042,2023,2038,2041,2053,2038,2057
2042,2039,2034,2041,2040,2060,2038,2043
2039,2046,2034,2043,2033,2044,2021,2035
2032,2043,2043,2043,2042,2036,2003,2034
2042,2049,2043,2048,2042,2044,2037,2038
2050,2048,2043,2045,2046,2039,2026,2030
2048,2051,2044,2050,2047,2040,2014,2035
2052,2050,2044,2053,2046,2039,2030,2022
2054,2053,2054,2048,2044,2044,2028,2023
2052,2055,2052,2053,2049,2042,2020,2024
2050,2049,2047,2051,2044,2046,2013,2023
2059,2046,2044,2042,2045,2048,2014,2025
2062,2054,2050,2053,2056,2060,2013,2028
2059,2052,2046,2048,2057,2063,2046,2028
2056,2052,2045,2049,2054,2068,2048,2026
2051,2048,2049,2052,2055,2062,2055,2025
2051,2047,2043,2044,2049,2059,2044,2032
2055,2048,2042,2048,2049,2059,2055,2030
2051,2045,2041,2048,2050,2056,2044,2035
2049,2047,2045,2048,2056,2054,2049,2040
2045,2048,2046,2048,2054,2058,2054,2051
2049,2045,2040,2050,2051,2058,2057,2066
2043,2041,2042,2052,2051,2054,2045,2066
2043,2033,2040,2046,2046,2054,2062,2071
2048,2035,2043,2046,2043,2056,2064,2072
2045,2041,2046,2045,2042,2052,2065,2076
2049,2040,2045,2043,2036,2045,2049,2071
2046,2039,2043,2048,2033,2048,2054,2079
2046,2051,2047,2049,2037,2052,2053,2073
2053,2052,2052,2047,2033,2052,2050,2073
2057,2053,2047,2044,2030,2046,2054,2066
2058,2044,2045,2045,2031,2045,2051,2066
2061,2045,2048,2043,2034,2049,2052,2056
2060,2045,2046,2053,2035,2051,2058,2050
2057,2050,2048,2054,2035,2056,2056,2041
2056,2052,2058,2055,2037,2056,2063,2030
2049,2045,2049,2051,2041,2052,2062,2038
2056,2048,2054,2051,2034,2053,2058,2028
2052,2043,2058,2051,2033,2050,2060,2031
2059,2046,2059,2046,2031,2055,2060,2029
2058,2047,2057,2047,2032,2051,2055,2020
2055,2047,2047,2047,2036,2054,2042,2022
2060,2045,2038,2045,2027,2042,2035,2016
2048,2037,2034,2038,2029,2042,2054,2014
2053,2034,2037,2046,2029,2050,2058,2020
2064,2051,2044,2047,2035,2052,2059,2020
2059,2050,2044,2049,2044,2053,2057,2021
2064,2051,2033,2049,2045,2052,2060,2026
2052,2041,2034,2052,2052,2054,2043,2031
2053,2040,2040,2054,2057,2056,2042,2033
2048,2037,2040,2055,2060,2058,2064,2040
2054,2042,2043,2057,2063,2052,2040,2043
2050,2041,2042,2073,2060,2056,2031,2050
2045,2041,2043,2070,2061,2057,2032,2064
2051,2040,2037,2068,2060,2048,2024,2057
2047,2034,2036,2065,2050,2039,2022,2066
2040,2036,2037,2069,2046,2038,2028,2065
2047,2039,2042,2068,2046,2047,2041,2075
2045,2031,2042,2070,2045,2039,2026,2067
2038,2029,2030,2074,2040,2033,2043,2064
2035,2033,2029,2070,2040,2042,2056,2078
2053,2039,2040,2074,2041,2059,2069,2073
2053,2042,2042,2066,2046,2067,2051,2072
2056,2053,2050,2064,2039,2064,2036,2061
2051,2050,2045,2055,2033,2058,2043,2049
2047,2042,2043,2045,2036,2060,2034,2053
2051,2042,2045,2043,2037,2067,2062,2044
2044,2041,2044,2042,2044,2067,2066,2038
2040,2038,2042,2034,2040,2054,2062,2041
2039,2045,2044,2035,2040,2052,2060,2043
2050,2047,2054,2038,2045,2045,2058,2040
2048,2053,2048,2036,2047,2043,2057,2021
2051,2053,2053,2035,2036,2042,2061,2013
2048,2049,2049,2035,2030,2048,2053,2019
2052,2044,2045,2032,2024,2052,2036,2020
2051,2042,2050,2025,2018,2039,2032,2003
2041,2044,2061,2025,2024,2038,2037,2009
2051,2055,2073,2036,2032,2048,2054,2016
2052,2061,2074,2030,2035,2044,2067,2022
2055,2070,2069,2042,2032,2037,2064,2029
2055,2064,2072,2045,2041,2044,2055,2034
2055,2066,2063,2050,2041,2050,2043,2033
2058,2063,2059,2047,2047,2050,2038,2036
2059,2065,2055,2049,2048,2051,2059,2042
2060,2060,2055,2049,2044,2052,2052,2050
2062,2061,2055,2047,2044,2053,2068,2060
2055,2065,2052,2047,2044,2050,2069,2066
2065,2061,2051,2046,2051,2046,2065,2072
2061,2049,2047,2041,2043,2040,2052,2072
2052,2054,2049,2039,2045,2042,2054,2075
2052,2048,2047,2043,2040,2037,2051,2079
2051,2045,2046,2038,2035,2031,2058,2080
2045,2040,2045,2032,2031,2035,2047,2081
2046,2043,2046,2041,2034,2047,2041,2072
2041,2050,2056,2039,2039,2042,2036,2062
2037,2060,2054,2043,2027,2042,2030,2060
2045,2059,2048,2042,2031,2042,2029,2056
2046,2060,2048,2038,2035,2048,2044,2057
2044,2053,2050,2042,2033,2048,2059,2050
2042,2054,2047,2042,2035,2050,2070,2042
2045,2054,2051,2044,2040,2052,2070,2036
2041,2060,2048,2048,2042,2048,2060,2031
2045,2054,2046,2045,2037,2049,2064,2026
2042,2051,2042,2044,2036,2049,2064,2027
2041,2051,2043,2041,2040,2051,2060,2020
2046,2046,2044,2045,2049,2062,2052,2015
2048,2051,2040,2046,2055,2064,2065,2018
2048,2054,2037,2036,2050,2062,2057,2012
2040,2043,2027,2040,2049,2057,2070,2011
2047,2048,2040,2043,2054,2062,2078,2024
2053,2050,2042,2047,2051,2047,2064,2024
2056,2054,2041,2038,2054,2046,2073,2027
2050,2044,2037,2040,2046,2053,2071,2025
2050,2044,2036,2045,2052,2054,2060,2037
2048,2038,2039,2052,2053,2056,2063,2037
2044,2040,2043,2047,2052,2053,2065,2043
2045,2043,2046,2053,2055,2063,2065,2051
2051,2048,2052,2055,2057,2071,2070,2057
2047,2047,2048,2052,2054,2068,2057,2063
2049,2050,2052,2058,2060,2065,2051,2074
2060,2055,2052,2057,2061,2069,2052,2076
2057,2061,2056,2057,2053,2067,2047,2079
2054,2062,2063,2059,2061,2068,2049,2072
2047,2051,2059,2055,2050,2083,2038,2065
2049,2047,2050,2048,2047,2085,2033,2069
2042,2054,2055,2052,2043,2070,2037,2074
2050,2053,2052,2048,2032,2029,2028,2071
2050,2054,2053,2041,2027,2001,2028,2064
2057,2053,2050,2043,2032,2036,2040,2064
2054,2052,2060,2041,2033,2068,2048,2061
2063,2056,2056,2048,2032,2076,2037,2049
2059,2057,2054,2044,2034,2070,2021,2034
2054,2052,2055,2044,2036,2058,2029,2031
2059,2057,2056,2049,2039,2045,2025,2027
2058,2058,2059,2048,2033,2043,2024,2023
2055,2057,2051,2043,2017,2029,2031,2026
2048,2054,2053,2042,2014,2033,2026,2016
2049,2053,2055,2034,2002,2032,2026,2014
2046,2051,2050,2030,1990,2037,2042,2009
2044,2043,2041,2027,1978,2010,2030,2008
2047,2037,2039,2021,1980,1986,2017,2015
2056,2047,2041,2033,2016,1986,2032,2012
2054,2048,2050,2051,2056,1993,2041,2022
2058,2059,2058,2064,2074,1983,2037,2043
2065,2060,2066,2069,2079,2012,2041,2042
2065,2060,2062,2061,2064,2032,2035,2042
2060,2056,2050,2055,2061,2037,2027,2042
2058,2052,2043,2056,2065,2044,2033,2041
2057,2052,2048,2052,2061,2049,2043,2042
2054,2055,2049,2052,2064,2049,2032,2046
2053,2053,2044,2052,2062,2054,2045,2050
2057,2055,2046,2056,2059,2053,2043,2062
2058,2058,2042,2053,2052,2048,2030,2070
2054,2049,2044,2052,2057,2052,2021,2074
2047,2051,2042,2056,2053,2051,2049,2076
2041,2037,2037,2050,2049,2044,2041,2068
2038,2037,2036,2047,2052,2036,2027,2073
2048,2050,2050,2046,2049,2033,2038,2073
2049,2046,2047,2048,2055,2034,2042,2071
2047,2041,2050,2047,2050,2040,2048,2062
2044,2042,2050,2050,2049,2043,2049,2060
2047,2041,2049,2044,2043,2038,2037,2054
2045,2038,2053,2038,2036,2035,2022,2043
2048,2039,2041,2036,2039,2026,2031,2037
2039,2031,2033,2037,2063,2028,2037,2043
2042,2036,2042,2044,2069,2035,2043,2042
2043,2035,2039,2043,2060,2052,2027,2029
2043,2036,2043,2044,2045,2060,2032,2024
2045,2035,2044,2040,2025,2049,2048,2019
2045,2036,2047,2029,2008,2035,2040,2018
2047,2040,2042,2032,2002,2037,2044,2020
2051,2037,2040,2036,2025,2011,2053,2016
2043,2033,2040,2040,2047,2032,2032,2014
2047,2040,2047,2055,2079,2064,2052,2017
2053,2043,2050,2069,2093,2082,2066,2027
2062,2048,2050,2066,2088,2081,2058,2030
2058,2044,2056,2058,2079,2068,2072,2033
2065,2046,2056,2064,2072,2055,2051,2042
2062,2048,2064,2059,2063,2042,2044,2050
2064,2059,2066,2055,2059,2028,2036,2056
2067,2054,2063,2051,2061,2025,2040,2055
2062,2055,2059,2052,2072,2022,2034,2055
2059,2053,2058,2048,2063,2018,2044,2059
2057,2041,2049,2047,2041,2001,2030,2059
2048,2045,2043,2032,2008,1999,2012,2068
2050,2042,2048,2034,1986,1985,2010,2074
2056,2047,2051,2026,1985,1975,2013,2083
2050,2047,2034,2012,1979,1969,2008,2070
2052,2049,2041,2026,2013,1994,2023,2083
2061,2065,2054,2051,2049,2022,2047,2088
2063,2066,2069,2062,2080,2040,2065,2079
2058,2060,2069,2061,2091,2054,2048,2073
2059,2054,2061,2055,2080,2058,2056,2062
2055,2052,2053,2049,2057,2047,2046,2047
2048,2050,2053,2042,2050,2050,2054,2034
2051,2053,2050,2037,2052,2053,2048,2039
2057,2053,2048,2035,2052,2064,2057,2041
2051,2051,2049,2042,2056,2067,2047,2038
2058,2053,2048,2044,2052,2061,2053,2038
2064,2055,2052,2046,2058,2069,2055,2028
2064,2054,2057,2047,2053,2065,2046,2033
2064,2056,2056,2046,2061,2060,2035,2036
2064,2056,2057,2049,2064,2063,2052,2037
2071,2046,2049,2043,2055,2066,2048,2042
2064,2040,2045,2038,2045,2060,2047,2030
2055,2046,2041,2040,2040,2063,2052,2026
2058,2047,2045,2036,2036,2060,2051,2029
2060,2047,2050,2033,2043,2063,2068,2034
2060,2052,2051,2035,2046,2068,2077,2036
2069,2046,2048,2039,2049,2071,2076,2037
2058,2051,2047,2045,2059,2060,2070,2032
2060,2049,2043,2041,2054,2047,2062,2037
2055,2051,2046,2042,2053,2040,2049,2050
2064,2044,2045,2039,2052,2045,2049,2057
2060,2041,2047,2042,2055,2049,2053,2062
2061,2045,2054,2047,2061,2059,2048,2062
2051,2042,2055,2050,2069,2046,2068,2059
2041,2039,2053,2055,2071,2052,2056,2066
2033,2042,2053,2053,2077,2061,2052,2071
2038,2039,2050,2046,2066,2064,2022,2068
2043,2036,2047,2041,2051,2036,2010,2071
2039,2041,2050,2033,2042,2028,2019,2073
2042,2038,2053,2039,2041,2030,2024,2073
2056,2045,2052,2041,2049,2044,2049,2070
2055,2045,2055,2048,2045,2047,2035,2063
2046,2047,2053,2046,2051,2033,2040,2046
2045,2047,2050,2042,2047,2033,2028,2043
2043,2044,2048,2041,2042,2032,2044,2048
2046,2046,2047,2041,2044,2029,2041,2045
2051,2048,2049,2046,2044,2046,2052,2044
2061,2046,2050,2046,2052,2055,2068,2038
2058,2041,2044,2045,2049,2052,2050,2033
2058,2046,2052,2052,2054,2019,2043,2028
2053,2038,2044,2051,2050,1997,2038,2032
2052,2038,2045,2047,2042,2004,2035,2024
2044,2033,2039,2038,2036,2007,2020,2009
2041,2032,2044,2044,2043,2025,2026,2015
2043,2038,2054,2055,2052,2052,2033,2018
2047,2046,2053,2057,2053,2054,2032,2011
2051,2042,2055,2053,2057,2063,2043,2015
2054,2044,2050,2047,2056,2081,2041,2019
2057,2037,2041,2042,2051,2068,2039,2030
2049,2033,2039,2040,2038,2039,2036,2033
2043,2031,2041,2032,2021,2025,2030,2032
2046,2033,2046,2026,2003,2011,2028,2035
2046,2036,2046,2023,1995,2008,2022,2035
2045,2040,2052,2033,2005,1998,2019,2052
2043,2035,2051,2040,2018,2002,2024,2065
2040,2041,2048,2037,2038,2028,2051,2072
2054,2046,2054,2058,2069,2060,2051,2083
2061,2055,2059,2059,2068,2065,2036,2084
2058,2044,2050,2053,2056,2056,2022,2064
2048,2040,2046,2050,2049,2047,2043,2070
2054,2051,2051,2051,2045,2048,2046,2063
2054,2046,2045,2050,2033,2036,2041,2062
2049,2045,2044,2039,2028,2035,2036,2060
2052,2046,2048,2042,2022,2027,2042,2063
2052,2046,2042,2044,2016,2033,2042,2056
2056,2048,2041,2041,2022,2044,2052,2042
2051,2050,2042,2041,2032,2052,2052,2036
2053,2059,2046,2039,2035,2056,2069,2038
2049,2057,2051,2046,2040,2056,2053,2039
2050,2051,2049,2046,2043,2047,2045,2031
2050,2050,2047,2043,2048,2045,2044,2036
2044,2034,2048,2040,2028,2047,2047,2025
2044,2031,2046,2036,2011,2042,2048,2022
2049,2036,2046,2040,2002,2042,2035,2019
2054,2041,2046,2026,1997,2047,2035,2018
2048,2042,2042,2021,1999,2060,2029,2019
2051,2057,2057,2041,2049,2072,2046,2020
2043,2055,2071,2063,2083,2043,2049,2022
2052,2058,2062,2062,2105,2060,2057,2029
2050,2053,2051,2062,2115,2082,2056,2030
2056,2048,2047,2057,2093,2084,2060,2029
2062,2046,2048,2042,2070,2072,2064,2038
2058,2043,2045,2038,2058,2063,2059,2037
2058,2038,2047,2040,2050,2064,2033,2040
2049,2033,2047,2050,2059,2069,2044,2039
2048,2041,2051,2047,2057,2072,2050,2055
2052,2049,2057,2049,2054,2062,2050,2067
2048,2056,2057,2043,2039,2049,2029,2065
2052,2057,2058,2044,2027,2047,2040,2070
2054,2048,2054,2035,2010,2066,2044,2068
2049,2042,2046,2026,2012,2060,2047,2068
2042,2022,2034,2027,2013,2070,2033,2065
2039,2029,2036,2032,2010,2084,2053,2074
2042,2033,2037,2037,2024,2073,2055,2075
2042,2034,2038,2037,2024,2088,2047,2065
2044,2029,2036,2033,2020,2115,2047,2054
2043,2030,2046,2035,2038,2158,2044,2048
2044,2043,2045,2028,2021,2169,2021,2036
2048,2043,2046,2023,2005,2161,2041,2028
2055,2045,2046,2025,2012,2143,2061,2035
2067,2052,2048,2039,2053,2097,2065,2039
2071,2059,2060,2063,2071,2010,2053,2038
2062,2062,2065,2059,2070,1925,2024,2034
2049,2057,2065,2055,2059,1922,2034,2032
2061,2057,2063,2058,2078,1955,2039,2031
2056,2046,2055,2045,2082,1963,2047,2027
2056,2032,2044,2039,2087,1969,2004,2012
2043,2020,2032,2035,2092,1987,1998,2001
2032,2021,2036,2042,2101,2009,1998,2011
2039,2038,2048,2055,2102,2013,2026,2025
2049,2048,2059,2057,2081,2010,2036,2035
2057,2051,2055,2053,2064,2008,2039,2029
2049,2048,2057,2048,2051,2014,2042,2030
2047,2054,2058,2048,2016,2009,2041,2038
2047,2051,2053,2038,1975,2010,2053,2048
2053,2057,2054,2046,2022,2013,2038,2052
2053,2057,2058,2050,2045,2014,2047,2064
2050,2055,2056,2048,2046,2017,2044,2057
2046,2044,2055,2043,2045,2014,2028,2064
2048,2043,2050,2046,2053,2028,2017,2068
2043,2046,2053,2044,2053,2033,2029,2070
2041,2039,2048,2045,2055,2023,2027,2068
2038,2041,2045,2044,2042,2013,2020,2061
2030,2032,2043,2042,2044,2022,2030,2064
2035,2037,2055,2044,2042,2031,2042,2073
2048,2046,2058,2040,2046,2043,2044,2071
2047,2044,2056,2040,2042,2054,2042,2076
2050,2056,2057,2036,2045,2064,2051,2066
2048,2052,2052,2037,2042,2060,2053,2063
2051,2056,2049,2033,2032,2054,2052,2056
2049,2053,2052,2039,2042,2053,2041,2047
2048,2057,2053,2043,2054,2059,2042,2037
2051,2056,2053,2047,2068,2059,2040,2032
2052,2052,2050,2043,2057,2063,2036,2025
2047,2046,2046,2038,2055,2068,2039,2019
2045,2046,2045,2040,2046,2072,2034,2011
2045,2047,2042,2028,2044,2067,2043,2017
2047,2046,2036,2029,2045,2058,2036,2009
2046,2049,2034,2028,2042,2037,2048,2007
2035,2043,2031,2027,2041,2041,2026,2015
2042,2053,2039,2035,2048,2043,2035,2024
2045,2056,2034,2032,2052,2039,2034,2025
2044,2059,2034,2031,2044,2038,2035,2029
2050,2053,2036,2028,2049,2039,2033,2033
2049,2055,2033,2029,2055,2047,2059,2039
2046,2046,2029,2028,2063,2055,2064,2043
2048,2044,2036,2031,2069,2054,2059,2048
2041,2050,2033,2036,2077,2051,2066,2066
2050,2050,2038,2048,2085,2055,2067,2062
2050,2053,2050,2050,2086,2057,2052,2065
2049,2051,2043,2049,2079,2064,2050,2065
2043,2048,2047,2046,2077,2068,2050,2072
2037,2050,2046,2040,2060,2044,2044,2078
2044,2050,2045,2039,2056,2011,2009,2080
2046,2051,2051,2027,2028,2006,2014,2076
2040,2043,2046,2026,2018,2020,2022,2080
2048,2046,2057,2029,2023,2031,2046,2084
2048,2050,2051,2022,2030,2026,2021,2070
2043,2055,2048,2025,2022,2042,2031,2056
2036,2060,2051,2027,2028,2075,2052,2054
2051,2069,2054,2033,2031,2067,2027,2056
2061,2070,2058,2037,2036,2050,2015,2057
2059,2055,2056,2033,2040,2031,2037,2045
2043,2055,2052,2032,2037,2028,2049,2038
2039,2051,2051,2038,2037,2032,2048,2024
2038,2052,2049,2036,2041,2035,2043,2031
2051,2052,2054,2034,2038,2031,2042,2018
2046,2047,2053,2031,2030,2024,2022,2015
2044,2043,2051,2032,2028,2033,2021,2021
2040,2047,2057,2037,2016,2034,2016,2020
2041,2056,2056,2034,2025,2044,2019,2014
2043,2056,2053,2032,2055,2057,2015,2021
2045,2060,2062,2046,2089,2070,2061,2030
2052,2078,2072,2051,2091,2072,2056,2029
2059,2074,2064,2050,2082,2072,2040,2027
2053,2069,2053,2049,2056,2073,2043,2028
2052,2058,2048,2042,2043,2062,2029,2024
2042,2051,2048,2041,2046,2056,2049,2030
2036,2046,2043,2042,2054,2042,2036,2037
2039,2043,2041,2035,2042,2051,2049,2040
2038,2038,2035,2027,2042,2040,2070,2056
2040,2049,2037,2031,2072,2043,2082,2070
2050,2056,2039,2032,2067,2037,2049,2080
2059,2059,2042,2032,2052,2028,2039,2082
2045,2053,2047,2027,2042,2035,2047,2071
2045,2051,2039,2023,2036,2041,2048,2062
2042,2052,2040,2023,2042,2060,2030,2070
2036,2051,2043,2030,2064,2089,2045,2069
2044,2055,2044,2033,2077,2110,2057,2067
2050,2059,2046,2032,2069,2122,2072,2070
2053,2054,2036,2025,2065,2117,2058,2068
2049,2052,2032,2028,2044,2090,2050,2052
2045,2050,2029,2032,2037,2080,2055,2046
2050,2052,2028,2027,2039,2093,2049,2033
2044,2049,2035,2030,2040,2104,2035,2035
2048,2046,2037,2024,2032,2073,2019,2017
2047,2045,2044,2027,2021,2004,2003,2011
2039,2044,2045,2027,2023,1961,2024,2023
2045,2050,2046,2033,2021,1978,2037,2026
2052,2049,2053,2035,2021,2003,2046,2017
2050,2039,2052,2034,2012,2026,2037,2011
2041,2036,2037,2034,2016,2036,2026,2017
2041,2035,2040,2035,2031,2038,2030,2012
2033,2034,2041,2035,2041,2062,2040,2010
2023,2040,2055,2037,2062,2084,2042,2008
2029,2054,2065,2045,2075,2091,2041,2018
2040,2052,2063,2041,2070,2077,2037,2024
2040,2060,2070,2041,2060,2072,2050,2029
2052,2061,2066,2035,2036,2071,2046,2039
2064,2072,2062,2040,2024,2075,2061,2043
2067,2069,2067,2040,2034,2068,2059,2059
2057,2064,2066,2035,2031,2049,2063,2057
2060,2064,2062,2034,2016,2030,2041,2049
2057,2057,2061,2041,2016,2014,2038,2057
2060,2056,2057,2038,2013,2012,2043,2054
2054,2054,2062,2032,2010,2023,2039,2060
2057,2055,2061,2032,2009,2026,2042,2069
2052,2052,2055,2016,2005,2041,2033,2067
2051,2043,2049,2016,2023,2068,2039,2057
2042,2032,2037,2018,2040,2069,2036,2054
2035,2026,2033,2015,2028,2059,2052,2067
2044,2040,2041,2017,2012,2089,2045,2071
2043,2042,2049,2027,2013,2132,2069,2074
2029,2050,2051,2032,2060,2116,2053,2061
2026,2052,2048,2039,2088,2021,2049,2051
2035,2053,2045,2044,2112,1969,2032,2058
2056,2067,2056,2059,2130,2003,2053,2065
2065,2074,2056,2068,2133,2033,2052,2056
2064,2071,2054,2064,2156,2053,2061,2040
2056,2054,2042,2055,2165,2049,2057,2027
2038,2046,2041,2058,2164,2054,2049,2027
2045,2044,2048,2051,2144,2054,2031,2024
2045,2042,2040,2032,2071,2047,2047,2025
2049,2039,2046,2017,1957,2057,2041,2022
2047,2030,2048,2020,1982,2052,2038,2009
2036,2022,2039,2013,1987,2027,2023,2000
2028,2022,2047,2019,1997,2005,2021,1999
2033,2027,2046,2033,2016,2003,2013,1996
2032,2026,2045,2034,2019,2011,2035,2014
2037,2031,2047,2037,2046,2027,2036,2023
2042,2033,2042,2037,2056,2030,2027,2030
2043,2027,2040,2035,2047,2012,2036,2026
2031,2026,2035,2033,2046,2004,2048,2026
2035,2028,2040,2036,2028,1988,2049,2026
2039,2037,2052,2039,2003,1990,2045,2038
2046,2047,2059,2041,1994,1976,2035,2047
2040,2049,2057,2039,1984,1992,2069,2059
2044,2044,2049,2037,1975,2007,2058,2067
2040,2041,2037,2011,1959,2010,2042,2066
2036,2030,2027,2017,2023,2057,2048,2059
2036,2029,2037,2041,2109,2092,2049,2059
2023,2027,2029,2047,2150,2083,2045,2054
2031,2030,2032,2054,2157,2076,2046,2057
2040,2042,2039,2062,2131,2083,2055,2055
2039,2053,2045,2051,2078,2062,2031,2049
2037,2045,2042,2033,2026,2048,2024,2047
2031,2031,2040,2015,2017,2056,2038,2042
2044,2041,2043,2022,2027,2076,2040,2041
2053,2050,2039,2026,2047,2090,2050,2025
2046,2045,2039,2029,2039,2096,2032,2017
2041,2041,2038,2024,2028,2092,2040,2016
2042,2042,2038,2026,2025,2087,2043,2014
2046,2044,2034,2021,2026,2064,2032,2015
2052,2051,2043,2032,2035,2010,2035,2024
2056,2052,2047,2042,2068,1990,2031,2032
2067,2050,2047,2044,2083,1981,2036,2031
2061,2047,2047,2042,2088,1986,2012,2016
2053,2032,2044,2036,2085,2010,2020,2008
2053,2030,2041,2025,2057,2030,2027,2018
2034,2024,2028,2012,1998,2042,2044,2011
2037,2018,2023,2004,1974,2046,2070,2023
2035,2022,2029,2011,1988,2053,2072,2020
2029,2030,2035,2020,2011,2047,2081,2025
2028,2034,2034,2021,2053,2033,2075,2026
2021,2045,2036,2025,2061,2030,2067,2026
2026,2047,2034,2032,2041,2012,2048,2028
2034,2052,2033,2039,2035,2027,2056,2043
2044,2048,2044,2050,2043,2028,2066,2051
2053,2051,2046,2058,2059,2025,2041,2060
2049,2046,2047,2073,2057,2050,2070,2071
2048,2052,2033,2073,2066,2054,2084,2076
2053,2052,2028,2078,2082,2038,2053,2086
2060,2050,2013,2075,2092,2050,2055,2085
2046,2028,1991,2060,2074,2058,2038,2080
2037,2019,1974,2045,2078,2078,2052,2072
2045,2030,1966,2046,2088,2095,2063,2060
2042,2034,1958,2047,2083,2088,2072,2046
2030,2033,1965,2043,2063,2079,2063,2039
2039,2038,1973,2054,2054,2060,2053,2033
2038,2037,1989,2058,2036,2028,2024,2022
2030,2039,1990,2042,1949,2009,2008,2004
2018,2031,2002,2031,1980,2030,2021,2005
2022,2037,2013,2031,2032,2048,2028,2018
2030,2048,2028,2025,2033,2047,2022,2026
2030,2030,2053,2005,2039,2051,2028,2020
2030,2034,2065,2005,2079,2070,2034,2014
2035,2051,2078,2006,2079,2080,2044,2022
2059,2070,2098,2011,2088,2105,2062,2022
2062,2076,2102,2021,2124,2112,2062,2016
2055,2060,2096,2022,2117,2088,2048,2000
2046,2056,2096,2020,2100,2071,2037,2003
2049,2075,2105,2029,2078,2060,2030,2018
2043,2068,2106,2032,2044,2046,2058,2023
2046,2064,2112,2036,2026,2040,2055,2034
2048,2060,2103,2041,2003,2037,2061,2033
2049,2055,2094,2048,2033,2046,2024,2030
2038,2045,2071,2046,2057,2035,2038,2028
2032,2039,2065,2046,2081,2041,2021,2029
2043,2044,2068,2046,2099,2062,2025,2047
2046,2040,2064,2040,2099,2067,2042,2044
2048,2047,2069,2049,2119,2062,2046,2044
2041,2051,2066,2045,2115,2065,2047,2059
2039,2048,2058,2037,2030,2052,2036,2064
2032,2037,2049,2038,2028,2053,2044,2069
2032,2035,2043,2043,2072,2047,2039,2071
2031,2026,2034,2041,2100,2044,2033,2061
2029,2020,2032,2042,2139,2063,2047,2069
2043,2041,2057,2052,2136,2077,2065,2064
2046,2061,2065,2056,2121,2094,2053,2065
2048,2068,2069,2061,2114,2105,2064,2071
2058,2066,2071,2056,2106,2098,2056,2058
2066,2058,2064,2025,2006,2058,2038,2044
2055,2048,2052,2010,1979,1995,2021,2030
2056,2056,2062,2031,2033,1967,2015,2029
2054,2058,2071,2041,2040,1989,2050,2028
2041,2053,2074,2035,2035,2018,2035,2024
2044,2052,2069,2036,2050,2043,2027,2030
2041,2055,2070,2046,2060,2065,2059,2031
2045,2064,2070,2050,2070,2079,2056,2018
2049,2061,2069,2058,2066,2067,2055,2026
2054,2058,2060,2062,2069,2034,2016,2015
2051,2047,2050,2045,2044,2002,2019,2008
2040,2035,2040,2031,2035,2013,2032,2004
2037,2038,2050,2042,2065,2052,2054,2012
2037,2041,2057,2045,2116,2082,2046,2018
2045,2046,2062,2049,2122,2101,2038,2011
2041,2050,2066,2056,2138,2093,2035,2011
2041,2055,2074,2062,2148,2081,2057,2015
2042,2061,2074,2068,2099,2071,2058,2019
2046,2062,2078,2063,2076,2061,2048,2041
2054,2058,2072,2065,2065,2055,2055,2039
2063,2059,2074,2054,2004,2024,2050,2042
2062,2051,2058,2028,1893,2008,2050,2056
2049,2044,2056,2037,1936,2014,2044,2066
2042,2045,2050,2033,1912,2013,2033,2060
2039,2043,2052,2029,1924,2016,2041,2070
2042,2051,2059,2036,1961,2034,2051,2073
2045,2046,2049,2045,2010,2056,2047,2066
2041,2027,2039,2045,2062,2068,2047,2057
2038,2030,2040,2052,2117,2072,2055,2060
2044,2035,2041,2071,2138,2079,2053,2063
2048,2038,2042,2076,2089,2090,2051,2060
2061,2042,2044,2067,2028,2086,2059,2052
2060,2033,2033,2049,1962,2053,2032,2053
2050,2030,2018,2041,1913,2037,2057,2048
2043,2023,2020,2036,1898,2050,2056,2043
2044,2017,2021,2030,1938,2073,2078,2023
2026,2020,2021,2042,2025,2103,2071,2018
2040,2037,2042,2057,2057,2102,2075,2032
2040,2047,2054,2040,2039,2070,2062,2032
2042,2052,2068,2013,2056,2052,2059,2035
2045,2054,2072,2004,2160,2072,2067,2023
2037,2038,2062,2008,2215,2091,2038,2004
2031,2022,2049,2003,2139,2062,2046,1984
2012,2007,2021,1989,2066,2047,2014,1981
2017,2000,2013,2005,2047,2056,2041,1994
2042,2014,2032,2034,2075,2055,2038,2012
2044,2028,2049,2065,2097,2008,2060,2027
2043,2035,2055,2070,2028,2010,2064,2026
2039,2043,2057,2057,1976,2022,2055,2026
2037,2041,2052,2037,1993,2036,2045,2023
2045,2046,2046,2038,2004,2067,2061,2043
2053,2050,2052,2054,2023,2088,2061,2040
2047,2047,2052,2055,2019,2080,2056,2035
2026,2037,2038,2039,1972,2047,2045,2037
2024,2027,2045,2034,1916,1996,2045,2049
2034,2040,2056,2007,1833,1951,2042,2051
2037,2046,2057,1991,1868,1918,2009,2049
2035,2042,2037,1990,1989,1962,2014,2050
2028,2041,2041,2033,2158,2036,2021,2062
2037,2046,2064,2083,2264,2071,2049,2074
2038,2048,2067,2079,2245,2087,2064,2083
2045,2045,2058,2074,2223,2101,2057,2084
2046,2032,2049,2069,2228,2100,2072,2074
2039,2026,2032,2050,2182,2082,2064,2065
2027,2013,2020,2036,2157,2080,2062,2061
2026,2015,2024,2046,2141,2081,2065,2057
2039,2039,2051,2078,2144,2094,2077,2055
2053,2061,2063,2087,2124,2083,2064,2047
2057,2057,2060,2079,2046,2046,2050,2021
2040,2050,2053,2068,2022,2028,2045,2004
2027,2044,2047,2070,2039,2025,2054,2005
2035,2038,2045,2055,2005,2060,2038,2008
2039,2024,2032,2032,1970,2100,2041,2000
2034,2020,2020,2024,1978,2141,2040,2005
2036,2024,2021,2019,1980,2117,2042,2002
2035,2032,2024,2023,2010,1993,2024,2008
2044,2044,2048,2057,2066,1940,2042,2018
2069,2057,2057,2085,2093,1985,2050,2023
2068,2056,2066,2101,2120,2030,2060,2024
2063,2053,2073,2125,2176,2070,2061,2027
2048,2056,2090,2133,2186,2086,2050,2029
2038,2049,2081,2126,2177,2101,2063,2027
2028,2046,2072,2114,2208,2101,2074,2024
2016,2033,2057,2111,2193,2088,2037,2014
2018,2030,2052,2100,2077,2066,2033,2019
2027,2029,2051,2099,2025,2060,2032,2029
2021,2019,2048,2097,2043,2042,2050,2038
2010,2020,2045,2085,1982,2029,2050,2034
1998,2021,2040,2091,2012,2036,2024,2050
2032,2026,2045,2090,2059,2042,2048,2071
2043,2036,2058,2073,2026,2036,2044,2073
2039,2038,2061,2055,1987,2029,2040,2068
2036,2047,2068,2043,1925,2034,2045,2068
2042,2056,2069,2018,1883,2034,2030,2054
2030,2029,2047,1999,1940,2052,2035,2042
2032,2042,2050,1994,2004,2070,2037,2038
2030,2049,2048,1993,2010,2059,2029,2031
2030,2039,2029,1988,1973,2044,2020,2031
2046,2044,2035,2012,2038,2065,2042,2028
2052,2055,2049,2031,2106,2078,2069,2021
2047,2046,2039,2029,2128,2082,2076,2032
2044,2051,2047,2041,2116,2064,2085,2041
2043,2047,2047,2030,2094,2031,2082,2042
2046,2051,2047,2036,2109,2004,2062,2041
2052,2050,2046,2047,2130,2014,2065,2039
2056,2052,2038,2051,2149,2042,2072,2036
2053,2047,2050,2048,2105,2062,2052,2029
2048,2041,2057,2044,2045,2080,2049,2029
2053,2044,2069,2051,2045,2125,2053,2026
2046,2058,2085,2062,2071,2128,2067,2014
2037,2065,2095,2066,2088,2100,2070,2020
2044,2073,2097,2062,2071,2090,2061,2038
2065,2083,2108,2062,2058,2072,2065,2048
2075,2089,2105,2082,2067,2024,2074,2056
2080,2098,2104,2090,2076,1979,2041,2058
2066,2075,2081,2060,2042,1953,2036,2045
2048,2053,2062,2037,2012,1956,2041,2046
2043,2041,2052,2041,2036,2022,2041,2059
2054,2047,2051,2059,2042,2063,2048,2062
2053,2047,2045,2047,1959,2045,2050,2058
2052,2039,2036,2025,1896,2045,2065,2073
2056,2027,2015,2021,1987,2064,2054,2078
2063,2002,1990,2014,2080,2076,2042,2075
2043,1997,1987,2015,2119,2087,2044,2072
2028,2017,2002,2016,2141,2068,2056,2068
2057,2032,2014,2018,2144,2056,2062,2069
2079,2026,2004,1996,2172,2066,2050,2038
2062,2014,1999,2004,2173,2050,2039,2024
2033,2022,2000,1993,2039,1997,2037,2021
2010,2052,2029,1989,1960,1999,2048,2037
2014,2066,2046,1993,1920,1991,2037,2055
2027,2067,2041,2015,1968,1963,2055,2052
2037,2059,2039,2035,2026,1977,2042,2044
2046,2043,2038,2049,2042,1999,2033,2040
2038,2030,2028,2054,2080,2029,2060,2029
2036,2013,2008,2050,2107,2050,2063,2023
2035,2002,2001,2045,2093,2059,2059,2024
2053,2003,2000,2043,2089,2066,2084,2037
2076,2004,1998,2036,2070,2049,2070,2022
2058,1996,1994,2016,2040,2029,2052,2014
2055,2000,2008,2030,2035,2037,2056,2015
2065,2018,2024,2055,2060,2048,2061,2023
2086,2013,2025,2067,2097,2054,2073,2040
2103,2029,2030,2080,2104,2040,2062,2033
2080,2038,2030,2079,2098,2036,2052,2010
2047,2045,2034,2085,2083,2040,2037,2010
2040,2056,2030,2084,2089,2044,2038,2014
2020,2029,2010,2080,2092,2041,2041,2029
1998,2021,2016,2083,2102,2049,2060,2041
2003,2038,2028,2077,2080,2049,2068,2039
2002,2042,2038,2056,2041,2039,2065,2056
2036,2061,2054,2044,2014,2043,2064,2078
2048,2067,2075,2035,1944,2032,2069,2089
2042,2064,2082,2025,1912,2018,2054,2072
2040,2062,2098,2034,1980,2022,2045,2061
2035,2061,2117,2059,2056,2027,2009,2056
2017,2042,2106,2080,2105,2054,2035,2067
2032,2065,2121,2116,2118,2072,2046,2066
2046,2079,2140,2119,2076,2065,2055,2071
2063,2091,2134,2106,2052,2047,2047,2066
2072,2077,2124,2090,2038,2043,2044,2057
2080,2062,2107,2085,2054,2039,2039,2052
2068,2043,2092,2076,2036,2025,2025,2044
2060,2048,2104,2086,2030,2030,2023,2028
2050,2043,2116,2103,2050,2035,2030,2026
2051,2050,2126,2115,2068,2045,2044,2022
2046,2055,2142,2136,2067,2053,2044,2028
2045,2072,2144,2141,2043,2049,2050,2020
2033,2079,2135,2117,2005,2034,2046,2013
2028,2070,2125,2096,1969,2020,2034,2007
2037,2058,2108,2092,1970,2025,2025,2005
2027,2039,2082,2094,2016,2024,2020,2002
2032,2041,2074,2114,2113,2060,2029,2017
2052,2066,2074,2122,2150,2076,2056,2028
2065,2066,2056,2094,2097,2065,2050,2029
2051,2057,2046,2076,2078,2064,2022,2020
2047,2059,2048,2067,2076,2061,2013,2027
2064,2073,2054,2061,2084,2055,2034,2016
2062,2066,2043,2042,2078,2043,2026,2006
2031,2042,2022,2000,2086,2023,2038,2019
2014,2025,2000,1979,2099,2034,2039,2022
2003,2016,1988,1968,2095,2037,2043,2039
2017,2025,2004,1974,2088,2057,2053,2060
2024,2031,2014,1990,2086,2070,2068,2082
2031,2030,2010,2008,2076,2090,2073,2092
2050,2034,2006,2029,2064,2106,2071,2084
2041,2028,2013,2039,2074,2098,2062,2079
2023,2006,1998,2047,2072,2067,2061,2076
2029,1994,2002,2050,2079,2014,2066,2081
2026,2005,2009,2059,2078,1998,2028,2073
2024,2009,2007,2058,2073,2013,2029,2066
2020,2022,2001,2065,2089,2040,2060,2057
2040,2035,1996,2076,2131,2040,2064,2048
2048,2032,1964,2065,2117,2013,2042,2040
2042,2019,1946,2049,2077,1991,2031,2038
2034,2019,1947,2045,2028,1995,2039,2038
2036,2022,1942,2032,1989,2033,2024,2031
2031,2012,1930,2024,1996,2063,2039,2023
2036,2014,1933,2028,2032,2049,2035,2013
2036,2005,1938,2037,2057,2054,2036,2017
2047,2024,1949,2033,2007,2064,2026,1994
2031,2017,1951,2021,1992,2091,2044,1995
2043,2019,1968,2029,2047,2123,2042,2013
2038,2033,2000,2034,2050,2111,2036,2008
2037,2057,2028,2028,1999,2094,2044,2019
2053,2066,2058,2015,1921,2088,2040,2023
2046,2057,2069,2008,1931,2061,2034,2024
2036,2044,2077,2000,1999,2028,2034,2021
2036,2049,2097,1999,2018,2005,2036,2023
2038,2058,2106,1988,2024,1996,2043,2041
2045,2070,2116,1999,2043,2010,2057,2046
2048,2081,2142,2021,2043,2028,2046,2050
2052,2082,2152,2018,2016,2044,2045,2048
2059,2093,2149,2028,2049,2065,2064,2061
2062,2088,2128,2051,2094,2075,2065,2066
2050,2072,2111,2059,2095,2090,2047,2066
2040,2060,2100,2054,2102,2112,2031,2075
2059,2071,2099,2050,2093,2115,2048,2090
2081,2078,2097,2052,2099,2116,2043,2090
2067,2060,2078,2034,2071,2082,2040,2080
2070,2056,2075,2055,2078,2044,2033,2074
2077,2079,2098,2067,2088,2019,2038,2063
2053,2058,2085,2056,2061,2015,2021,2052
2040,2056,2077,2047,2019,2025,2036,2061
2039,2063,2087,2049,2019,2040,2044,2051
2014,2067,2093,2059,2029,2052,2058,2044
2014,2072,2094,2065,2057,2068,2042,2044
2031,2066,2082,2061,2074,2055,2051,2047
2043,2057,2068,2061,2079,2052,2038,2044
2041,2055,2058,2064,2076,2045,2044,2045
2046,2060,2056,2061,2069,2045,2049,2032
2043,2056,2050,2058,2052,2040,2034,2023
2048,2044,2046,2065,2043,2043,2040,2013
2048,2046,2053,2074,2080,2052,2045,2009
2045,2040,2058,2075,2064,2048,2030,2020
2036,2036,2064,2078,2063,2052,2047,2034
2043,2044,2067,2090,2044,2062,2064,2039
2057,2058,2081,2103,2072,2074,2068,2041
2055,2053,2087,2104,2072,2054,2045,2020
2037,2043,2070,2079,1981,2013,2037,2010
2031,2023,2045,2075,2000,2019,2023,2020
2032,2027,2053,2114,2104,2062,2041,2023
2041,2043,2064,2138,2145,2068,2028,2031
2041,2046,2058,2129,2109,2066,2036,2045
2049,2054,2049,2125,2078,2068,2045,2045
2042,2052,2043,2126,2100,2084,2061,2060
2034,2056,2044,2122,2110,2094,2079,2077
2036,2060,2034,2109,2086,2065,2075,2081
2043,2052,2016,2081,2065,2031,2039,2068
2042,2045,2011,2061,2054,2011,2037,2059
2041,2048,2006,2057,2037,2009,2015,2054
2031,2025,1988,2027,2017,1996,2005,2056
2026,2009,1973,2000,2001,2004,2014,2061
2023,2008,1975,1973,1995,2017,2029,2056
2027,2007,1996,1969,2033,2040,2031,2061
2034,2034,2047,1993,2053,2054,2048,2061
2044,2070,2105,2010,2057,2065,2053,2062
2052,2095,2134,2022,2058,2066,2056,2049
2055,2094,2119,2017,2052,2056,2054,2043
2049,2074,2094,2025,2051,2053,2051,2040
2053,2068,2080,2033,2056,2046,2044,2040
2048,2059,2063,2043,2053,2036,2032,2058
2074,2069,2073,2044,2050,2038,2033,2050
2083,2075,2078,2050,2050,2027,2016,2035
2067,2063,2066,2041,2041,2030,2024,2012
2057,2063,2071,2054,2063,2057,2046,1994
2048,2059,2076,2055,2059,2076,2049,1995
2024,2043,2062,2048,2046,2063,2043,2010
2023,2030,2054,2046,2056,2061,2042,2008
2014,2040,2053,2047,2060,2065,2039,2002
2006,2039,2047,2057,2062,2038,2045,2023
2028,2051,2061,2080,2079,2021,2044,2038
2042,2065,2070,2084,2085,2037,2054,2045
2056,2066,2071,2075,2071,2057,2070,2046
2055,2068,2066,2075,2062,2057,2061,2041
2052,2065,2062,2074,2059,2062,2060,2055
2047,2052,2053,2074,2057,2054,2044,2051
2040,2059,2064,2087,2076,2063,2050,2050
2045,2060,2067,2102,2127,2076,2044,2043
2036,2054,2061,2092,2097,2058,2039,2048
2031,2048,2049,2073,2066,2039,2047,2058
2032,2044,2037,2071,2099,2043,2022,2058
2033,2047,2046,2085,2093,2043,2029,2058
2024,2049,2042,2097,2091,2041,2013,2053
2030,2048,2039,2096,2077,2037,2037,2062
2031,2043,2037,2088,2073,2032,2024,2059
2043,2047,2021,2082,2044,2035,2035,2052
2040,2039,2012,2081,2050,2038,2038,2043
2039,2035,2004,2086,2056,2041,2026,2029
2035,2030,1998,2088,2063,2040,2006,2024
2042,2051,2018,2107,2066,2043,2047,2025
2045,2067,2024,2114,2079,2046,2047,2022
2049,2069,2022,2103,2065,2043,2058,2028
2052,2065,2014,2088,2061,2043,2032,2023
2050,2058,2011,2068,2054,2044,2026,2032
2043,2057,2018,2051,2045,2035,2016,2022
2029,2047,2029,2044,2046,2047,1997,2007
2035,2043,2042,2044,2053,2053,2015,2016
2036,2053,2065,2046,2052,2056,2032,2013
2040,2049,2079,2047,2053,2053,2053,2025
2048,2044,2094,2055,2056,2058,2054,2033
2063,2048,2102,2050,2061,2051,2056,2037
2055,2025,2080,2037,2049,2037,2047,2029
2055,2020,2065,2039,2056,2041,2042,2039
2050,2020,2050,2048,2057,2038,2043,2042
2043,2031,2059,2060,2066,2043,2050,2045
2068,2054,2070,2063,2059,2054,2052,2035
2045,2064,2072,2055,2060,2056,2067,2031
2024,2064,2062,2064,2069,2056,2067,2038
2026,2069,2050,2069,2071,2051,2050,2049
2033,2065,2031,2057,2069,2040,2050,2060
2036,2044,2015,2044,2059,2047,2056,2073
2048,2045,2015,2040,2062,2042,2036,2064
2035,2048,2024,2034,2049,2034,2034,2061
2028,2050,2026,2033,2046,2028,2015,2062
2029,2058,2032,2040,2057,2032,2023,2064
2037,2075,2052,2057,2064,2044,2050,2065
2042,2078,2054,2072,2062,2042,2055,2062
2039,2071,2055,2073,2054,2038,2056,2058
2040,2064,2047,2069,2053,2039,2056,2054
2040,2057,2038,2061,2062,2046,2054,2052
2046,2057,2039,2064,2061,2054,2057,2043
2044,2056,2033,2069,2061,2054,2059,2034
2039,2055,2024,2074,2072,2059,2069,2031
2040,2050,2021,2075,2068,2058,2058,2024
2046,2055,2024,2073,2069,2055,2064,2030
2049,2058,2027,2070,2062,2048,2050,2024
2046,2053,2043,2072,2063,2042,2058,2023
2050,2047,2057,2074,2068,2045,2056,2021
2044,2051,2064,2070,2066,2048,2032,2016
2044,2050,2067,2069,2071,2048,2038,2011
2030,2045,2067,2069,2063,2043,2033,2000
2028,2058,2068,2073,2066,2055,2043,2026
2046,2060,2053,2072,2065,2060,2020,2034
2053,2071,2046,2075,2082,2069,2057,2032
2064,2079,2044,2091,2088,2078,2053,2029
2074,2081,2038,2102,2089,2068,2044,2033
2062,2065,2023,2108,2078,2058,2041,2024
2050,2051,2038,2124,2076,2056,2047,2025
2042,2050,2056,2135,2078,2049,2039,2034
2037,2044,2052,2131,2067,2041,2049,2044
2043,2045,2055,2119,2058,2036,2054,2047
2052,2051,2057,2098,2056,2031,2054,2063
2057,2064,2057,2091,2050,2027,2062,2068
2049,2057,2038,2090,2037,2034,2052,2066
2049,2043,2021,2072,2036,2030,2044,2068
2050,2040,2021,2068,2032,2032,2025,2052
2030,2027,2029,2075,2034,2037,2040,2048
2031,2035,2048,2080,2043,2052,2051,2051
2052,2032,2032,2074,2035,2055,2058,2061
2046,2036,2038,2064,2029,2053,2049,2062
2039,2047,2039,2036,2018,2051,2036,2048
2032,2055,2045,2019,2016,2061,2044,2040
2047,2059,2050,2009,2014,2060,2051,2037
2041,2042,2040,2002,2018,2069,2035,2039
2041,2041,2034,1999,2028,2070,2048,2041
2058,2051,2046,2011,2040,2072,2040,2042
2060,2059,2069,2029,2044,2043,2040,2028
2034,2057,2091,2045,2045,2016,2031,2033
2045,2076,2117,2068,2060,2025,2035,2040
2051,2084,2118,2072,2060,2041,2030,2036
2061,2085,2109,2068,2057,2041,2016,2033
2048,2071,2110,2068,2060,2043,2030,2029
2044,2055,2099,2070,2064,2054,2026,2022
2045,2054,2087,2062,2057,2050,2054,2022
2045,2052,2074,2051,2043,2045,2044,2028
2045,2054,2075,2053,2050,2052,2068,2032
2051,2066,2097,2061,2055,2078,2062,2037
2054,2076,2112,2074,2070,2097,2081,2040
2057,2072,2108,2073,2071,2105,2073,2054
2060,2076,2095,2074,2071,2104,2090,2050
2060,2075,2092,2079,2075,2095,2068,2054
2062,2069,2080,2081,2075,2087,2059,2055
2066,2063,2074,2088,2065,2087,2056,2064
2056,2063,2083,2096,2067,2095,2042,2074
2051,2057,2082,2086,2060,2086,2046,2080
2054,2057,2080,2076,2057,2061,2038,2073
2050,2058,2070,2058,2050,2046,2036,2065
2039,2050,2056,2046,2035,2002,2011,2062
2028,2043,2050,2027,2027,1977,1999,2061
2025,2042,2058,2025,2004,1981,2000,2070
2037,2050,2057,2019,1970,1961,2004,2076
2040,2059,2047,2021,1944,1947,1995,2068
2034,2054,2044,2016,1948,1962,1990,2054
2034,2046,2042,2023,2003,2012,2011,2053
2041,2052,2053,2044,2059,2062,2040,2061
2052,2060,2060,2068,2103,2088,2066,2064
2062,2062,2064,2080,2131,2102,2080,2056
2064,2063,2059,2081,2121,2098,2063,2052
2058,2056,2047,2064,2094,2071,2045,2041
2054,2047,2046,2061,2077,2062,2055,2032
2048,2052,2044,2050,2056,2059,2055,2027
2050,2044,2041,2044,2042,2052,2053,2012
2047,2049,2043,2050,2034,2044,2030,2014
2051,2052,2043,2047,2037,2037,2041,2025
2051,2043,2043,2046,2065,2047,2056,2025
2054,2046,2047,2057,2078,2072,2086,2042
2063,2057,2048,2058,2084,2064,2089,2038
2064,2049,2031,2046,2072,2037,2066,2036
2050,2048,2031,2047,2101,2044,2069,2041
2050,2052,2037,2052,2106,2055,2071,2034
2047,2042,2041,2059,2091,2055,2064,2044
2046,2041,2046,2074,2080,2045,2079,2046
2040,2038,2041,2071,2070,2057,2076,2050
2039,2034,2039,2051,2041,2063,2076,2049
2038,2025,2030,2032,2000,2065,2064,2050
2032,2023,2021,2032,1983,2061,2059,2058
2036,2023,2024,2042,2018,2061,2074,2073
2045,2017,2028,2059,2053,2073,2085,2081
2054,2021,2026,2063,2082,2102,2091,2089
2051,2016,2018,2053,2071,2136,2084,2085
2047,2010,2009,2046,2078,2171,2085,2085
2054,2019,2009,2046,2063,2141,2081,2090
2053,2027,2008,2042,2047,2031,2052,2083
2055,2033,2012,2037,2031,1940,2042,2080
2046,2036,2008,2044,2025,1971,2051,2080
2054,2048,2007,2039,2033,2010,2066,2074
2055,2048,2007,2038,2022,2040,2062,2069
2042,2044,2005,2039,2019,2061,2056,2052
2040,2049,2018,2049,2015,2082,2071,2048
2045,2068,2053,2053,2007,2051,2056,2047
2050,2083,2078,2068,2029,2017,2046,2038
2044,2080,2086,2077,2058,1966,2036,2027
2044,2081,2087,2075,2069,1963,2034,2026
2048,2080,2090,2086,2067,1994,2042,2024
2052,2085,2088,2086,2061,2002,2047,2020
2048,2070,2090,2078,2044,1988,2028,2013
2048,2065,2086,2085,2037,1992,2043,2018
2052,2074,2093,2088,2050,2011,2049,2021
2053,2065,2079,2084,2051,2020,2054,2023
2049,2065,2075,2088,2064,2034,2060,2026
2041,2065,2078,2084,2071,2043,2060,2038
2039,2064,2078,2072,2067,2040,2072,2044
2046,2062,2066,2060,2062,2036,2067,2047
2045,2054,2054,2049,2063,2047,2070,2055
2052,2050,2052,2050,2060,2047,2077,2062
2051,2058,2045,2049,2069,2046,2070,2075
2051,2053,2043,2047,2062,2047,2076,2087
2052,2056,2041,2042,2057,2041,2079,2083
2057,2058,2049,2051,2054,2034,2074,2085
2060,2059,2054,2049,2048,2018,2061,2088
2055,2060,2050,2051,2020,2014,2064,2093
2056,2059,2051,2061,2019,2008,2050,2092
2050,2050,2047,2063,2046,2024,2071,2091
2052,2062,2054,2066,2039,2037,2054,2089
2050,2058,2055,2066,2036,2040,2070,2076
2051,2059,2059,2072,2044,2041,2063,2064
2054,2060,2055,2073,2060,2054,2046,2056
2059,2061,2052,2065,2065,2078,2065,2063
2053,2054,2044,2053,2041,2051,2060,2062
2051,2051,2038,2036,2060,2024,2045,2049
2053,2052,2049,2045,2065,2018,2059,2045
2057,2047,2048,2052,2043,2018,2058,2040
2052,2049,2042,2045,2035,2013,2055,2041
2055,2050,2047,2048,2019,2013,2043,2042
2047,2046,2043,2045,2021,2018,2039,2032
2036,2044,2042,2048,2034,2034,2053,2018
2032,2053,2044,2050,2046,2056,2064,2019
2038,2048,2043,2057,2050,2074,2073,2029
2050,2051,2035,2050,2049,2079,2065,2027
2049,2049,2042,2057,2057,2083,2067,2027
2051,2047,2033,2055,2063,2068,2071,2023
2040,2041,2020,2052,2058,2053,2066,2026
2041,2037,2017,2045,2057,2041,2062,2028
2039,2034,2006,2050,2052,2040,2065,2041
2038,2033,2000,2046,2047,2043,2067,2043
2040,2032,1998,2044,2041,2041,2063,2051
2044,2033,1996,2037,2044,2047,2065,2058
2052,2033,2008,2045,2045,2052,2068,2055
2041,2039,2010,2046,2040,2047,2055,2052
2037,2038,2008,2040,2045,2053,2065,2059
2042,2031,2018,2043,2034,2043,2038,2061
2040,2042,2023,2040,2032,2040,2018,2060
2044,2037,2025,2035,2028,2034,2049,2062
2032,2024,2031,2039,2016,2024,2026,2054
2026,2025,2038,2034,2002,2022,2044,2069
2040,2048,2057,2040,2000,2022,2047,2076
2040,2058,2068,2051,2008,2021,2060,2087
2049,2062,2061,2047,2008,2027,2059,2092
2058,2054,2051,2048,2015,2022,2051,2087
2058,2061,2049,2054,2023,2027,2052,2078
2064,2064,2061,2064,2009,2026,2062,2061
2064,2064,2065,2077,2011,2028,2035,2050
2063,2078,2080,2079,1999,2036,2045,2044
2067,2085,2080,2080,2004,2038,2056,2051
2061,2073,2070,2068,2057,2039,2058,2045
2052,2054,2060,2066,2095,2037,2055,2038
2055,2054,2063,2067,2081,2040,2047,2025
2048,2054,2074,2073,2090,2040,2051,2023
2050,2057,2073,2069,2073,2056,2058,2029
2047,2058,2074,2073,2089,2066,2058,2022
2044,2054,2076,2079,2117,2075,2064,2027
2052,2064,2084,2085,2105,2072,2066,2035
2054,2069,2086,2082,2037,2047,2058,2045
2052,2063,2082,2069,1970,2008,2063,2044
2052,2063,2072,2059,1981,2011,2049,2040
2054,2059,2064,2056,1993,2019,2053,2035
2046,2060,2063,2054,2003,2029,2038,2035
2046,2058,2070,2054,2010,2044,2031,2037
2039,2057,2061,2052,2019,2053,2030,2041
2037,2053,2054,2058,2025,2028,2017,2062
2052,2068,2069,2071,2023,2009,2039,2078
2057,2071,2080,2076,2029,2000,2051,2090
2062,2071,2070,2075,2047,2037,2065,2091
2052,2066,2058,2066,2050,2080,2070,2086
2046,2059,2048,2063,2042,2096,2083,2085
2043,2052,2045,2052,2025,2084,2062,2080
2039,2045,2045,2047,2032,2062,2055,2084
2046,2048,2051,2054,2043,2059,2065,2090
2050,2050,2049,2045,2053,2049,2064,2084
2045,2052,2051,2054,2045,2049,2060,2078
2050,2058,2053,2060,2039,2048,2054,2077
2054,2060,2049,2057,2039,2053,2054,2064
2047,2060,2047,2053,2039,2057,2061,2057
2050,2056,2044,2048,2059,2056,2057,2058
2050,2053,2045,2056,2072,2052,2051,2042
2040,2047,2037,2046,2045,2046,2042,2042
2035,2049,2040,2043,1993,2037,2038,2043
2044,2059,2042,2040,1973,2035,2055,2048
2052,2052,2044,2033,2016,2030,2048,2043
2049,2049,2034,2038,2047,2041,2024,2036
2045,2044,2032,2035,2060,2046,2041,2031
2048,2039,2030,2041,2053,2039,2022,2022
2038,2034,2038,2053,2045,2046,2031,2031
2046,2037,2056,2066,2058,2061,2031,2040
2055,2051,2072,2069,2053,2060,2043,2042
2053,2057,2071,2073,2052,2059,2051,2041
2054,2054,2070,2071,2049,2065,2043,2045
2050,2044,2065,2065,2052,2061,2045,2049
2051,2041,2060,2065,2056,2058,2047,2050
2051,2046,2056,2067,2056,2053,2046,2054
2044,2052,2052,2067,2058,2063,2043,2059
2053,2068,2057,2071,2058,2067,2053,2069
2057,2060,2064,2068,2065,2063,2055,2073
2058,2055,2055,2068,2051,2069,2060,2078
2056,2051,2049,2052,2025,2074,2049,2082
2054,2049,2042,2036,1987,2086,2044,2082
2046,2043,2040,2021,1968,2087,2032,2087
2045,2043,2033,2004,1954,2070,2018,2079
2032,2028,2023,2001,1969,2029,2027,2080
2033,2034,2031,2016,2006,2001,2034,2101
2055,2053,2049,2037,2054,1989,2051,2117
2058,2053,2050,2042,2070,2002,2047,2107
2050,2053,2046,2043,2048,2013,2051,2090
2051,2053,2052,2032,1991,2049,2049,2074
2051,2061,2055,2025,1930,2045,2048,2073
2049,2056,2055,2016,1901,2023,2036,2057
2045,2048,2040,2002,1911,2007,2023,2042
2032,2038,2026,1989,1941,1996,2009,2042
2045,2048,2040,2028,2036,2029,2045,2055
2070,2073,2062,2078,2128,2077,2081,2066
2072,2072,2070,2091,2144,2117,2091,2055
2069,2070,2060,2077,2147,2146,2068,2049
2061,2060,2053,2069,2137,2134,2062,2039
2056,2058,2049,2053,2103,2053,2049,2028
2043,2046,2042,2041,2059,1992,2025,2018
2048,2043,2044,2049,2045,1994,2022,2034
2059,2061,2047,2044,2047,2020,2044,2042
2059,2055,2044,2048,2039,2048,2060,2039
2057,2054,2046,2042,2049,2075,2057,2045
2060,2054,2047,2050,2064,2083,2040,2051
2052,2046,2040,2039,2056,2071,2024,2050
2050,2047,2041,2034,2037,2074,2019,2054
2056,2046,2036,2038,2028,2066,2027,2061
2054,2047,2035,2036,2043,2063,2019,2063
2054,2046,2031,2043,2046,2057,2026,2059
2041,2041,2040,2046,2058,2068,2038,2056
2036,2035,2040,2050,2064,2072,2044,2061
2034,2042,2037,2046,2059,2062,2038,2065
2026,2044,2042,2047,2058,2039,2048,2072
2033,2049,2044,2049,2044,2040,2039,2077
2037,2046,2040,2042,2042,2038,2034,2077
2042,2045,2046,2043,2040,2043,2035,2080
2048,2050,2043,2051,2045,2057,2047,2079
2043,2044,2042,2045,2045,2058,2042,2069
2038,2042,2033,2043,2045,2062,2058,2061
2041,2046,2039,2044,2049,2065,2066,2063
2044,2057,2043,2048,2056,2061,2071,2065
2056,2054,2046,2054,2055,2026,2060,2054
2055,2053,2041,2052,2045,2009,2058,2052
2045,2048,2043,2040,2038,2012,2065,2043
2042,2046,2038,2040,2036,2022,2068,2041
2046,2049,2036,2045,2033,2022,2065,2041
2039,2054,2041,2046,2025,2017,2051,2043
2042,2051,2038,2046,2001,2023,2055,2042
2043,2056,2048,2047,2025,2031,2049,2041
2053,2054,2044,2044,2029,2036,2076,2044
2045,2044,2044,2050,2025,2051,2044,2041
2052,2046,2043,2058,2020,2059,2060,2043
2064,2054,2045,2050,2004,2052,2061,2037
2063,2050,2042,2042,2001,2070,2054,2035
2055,2046,2033,2036,1997,2087,2048,2045
2048,2040,2033,2020,1962,2064,2047,2045
2054,2042,2043,2021,2009,2071,2041,2054
2051,2054,2054,2036,2038,2102,2064,2068
2058,2066,2062,2054,2085,2141,2077,2062
2064,2067,2055,2060,2098,2159,2086,2059
2056,2066,2047,2052,2081,2149,2062,2063
2058,2059,2039,2040,2045,2097,2037,2071
2050,2059,2040,2030,2024,2089,2036,2082
2050,2060,2040,2025,2026,2107,2040,2083
2056,2066,2047,2045,2059,2064,2042,2084
2057,2068,2048,2049,2086,1953,2037,2083
2047,2059,2042,2058,2093,1943,2042,2096
2058,2061,2043,2067,2108,2004,2060,2101
2061,2067,2048,2064,2097,2036,2052,2096
2058,2061,2042,2045,2070,2046,2048,2085
2061,2060,2041,2036,2021,2044,2052,2077
2054,2057,2044,2028,1999,2043,2018,2069
2052,2050,2033,2033,2003,2036,2021,2068
2045,2050,2036,2030,2005,2024,2023,2055
2051,2049,2036,2039,2020,2027,2021,2049
2054,2049,2033,2040,2019,2035,2027,2043
2051,2051,2032,2044,2022,2035,2040,2038
2053,2048,2026,2033,2023,2030,2035,2037
2056,2050,2021,2030,2023,2026,2040,2042
2055,2049,2020,2039,2022,2026,2033,2042
2055,2054,2025,2042,2035,2037,2021,2035
2051,2056,2023,2037,2031,2035,2032,2032
2040,2047,2019,2032,2024,2030,2026,2030
2042,2056,2026,2043,2035,2032,2023,2039
2057,2047,2026,2039,2048,2034,2016,2043
2057,2039,2022,2037,2057,2037,2050,2050
2062,2042,2028,2041,2037,2040,2052,2057
2061,2037,2025,2037,2022,2047,2041,2047
2057,2042,2021,2033,2029,2059,2035,2056
2064,2043,2024,2037,2039,2072,2041,2063
2066,2048,2022,2029,2033,2076,2039,2069
2059,2042,2029,2027,2030,2072,2057,2066
2047,2043,2035,2032,2034,2068,2052,2070
2052,2046,2038,2036,2031,2064,2058,2078
2044,2038,2024,2033,2019,2048,2046,2099
2057,2052,2028,2031,2006,2053,2047,2105
2060,2051,2025,2036,1998,2052,2049,2095
2036,2036,2018,2025,2013,2046,2019,2093
2034,2033,2011,2027,2073,2045,2022,2092
2038,2044,2022,2037,2105,2050,2023,2091
2047,2047,2019,2044,2099,2039,2028,2091
2050,2050,2026,2054,2114,2052,2044,2090
2062,2062,2040,2060,2101,2070,2058,2090
2062,2064,2038,2066,2093,2090,2054,2071
2059,2046,2037,2055,2078,2067,2054,2063
2054,2054,2038,2050,2061,2039,2045,2059
2057,2055,2054,2042,1979,2033,2047,2057
2050,2058,2056,2036,1905,2015,2036,2060
2046,2060,2062,2035,1914,2013,2040,2059
2052,2060,2062,2050,1953,2006,2019,2057
2061,2058,2061,2047,1981,2018,2024,2044
2065,2047,2058,2029,2002,2034,2013,2025
2045,2034,2036,1997,1986,2037,2024,2019
2035,2019,2018,1987,2006,2027,2010,2017
2032,2018,2035,2026,2029,2052,2038,2022
2051,2044,2071,2065,2056,2078,2043,2048
2057,2063,2096,2084,2070,2086,2066,2055
2056,2067,2101,2084,2061,2098,2079,2050
2062,2079,2102,2082,2041,2098,2060,2056
2060,2080,2097,2065,2024,2081,2048,2060
2063,2070,2093,2065,1995,2056,2043,2055
2054,2065,2082,2054,1971,2016,2037,2064
2059,2065,2078,2067,1981,2024,2057,2074
2066,2065,2074,2077,2029,2052,2059,2071
2060,2069,2070,2070,2040,2060,2039,2074
2060,2058,2062,2052,2031,2053,2035,2076
2051,2054,2056,2038,2031,2051,2039,2066
2039,2052,2046,2034,2037,2050,2054,2083
2036,2043,2048,2033,2059,2063,2042,2079
2041,2040,2046,2024,2062,2058,2042,2082
2043,2045,2040,2011,2054,2045,2053,2089
2041,2042,2043,2000,1991,2033,2037,2083
2044,2045,2028,2002,1995,2035,2043,2077
2044,2045,2024,2009,2014,2040,2065,2080
2044,2044,2013,2007,2009,2046,2065,2075
2049,2038,2019,2018,2028,2050,2061,2069
2049,2038,2024,2035,2033,2058,2050,2066
2045,2034,2020,2035,2046,2049,2047,2066
2043,2038,2028,2053,2072,2052,2029,2057
2052,2046,2035,2047,2057,2036,2048,2046
2046,2041,2028,2039,2050,2032,2051,2042
2047,2034,2027,2043,2060,2036,2048,2042
2051,2034,2031,2058,2056,2034,2030,2028
2037,2028,2040,2063,2052,2035,2037,2018
2033,2020,2042,2070,2044,2036,2041,2026
2020,2013,2046,2075,2041,2028,2029,2028
2025,2013,2045,2075,2040,2028,2032,2034
2036,2032,2065,2087,2049,2050,2050,2041
2052,2052,2078,2090,2057,2055,2044,2045
2058,2052,2073,2086,2049,2057,2059,2045
2054,2060,2068,2085,2046,2061,2053,2053
2053,2060,2062,2077,2049,2061,2065,2058
2062,2063,2064,2068,2047,2076,2063,2063
2072,2069,2059,2051,2042,2068,2039,2063
2060,2055,2041,2027,2037,2067,2039,2070
2054,2047,2037,2011,2031,2058,2040,2070
2051,2047,2043,2001,2014,2059,2036,2072
2042,2046,2044,1991,2009,2053,2051,2081
2050,2047,2043,1976,1972,2054,2065,2087
2051,2062,2053,1982,1971,2055,2063,2098
2062,2070,2054,1973,1974,2052,2056,2094
2057,2059,2038,1964,1974,2052,2041,2086
2063,2055,2041,1984,2009,2068,2049,2094
2069,2060,2048,2019,2040,2070,2056,2108
2067,2061,2050,2031,2053,2067,2043,2096
2060,2050,2040,2035,2053,2094,2041,2077
2045,2042,2051,2035,2057,2107,2047,2069
2051,2040,2038,2043,2037,2104,2039,2068
2054,2033,2030,2038,2014,2100,2050,2060
2056,2032,2025,2049,2064,2075,2047,2061
2052,2031,2020,2067,2107,2060,2052,2050
2049,2032,2020,2061,2103,2064,2034,2038
2037,2027,2017,2049,2076,2078,2040,2040
2044,2026,2026,2044,2059,2091,2053,2038
2043,2035,2036,2050,2049,2086,2055,2024
2041,2046,2041,2044,2041,2073,2034,2031
2050,2042,2039,2037,2049,2063,2029,2025
2046,2029,2032,2029,2042,2034,2022,2024
2041,2031,2039,2034,2062,2032,2018,2031
2053,2053,2044,2034,2067,2044,2039,2033
2052,2043,2032,2012,2021,2028,2040,2035
2055,2038,2014,1986,1988,2022,2048,2030
2046,2027,2004,1983,1980,2026,2036,2024
2036,2026,2006,1992,1996,2034,2042,2027
2056,2035,2010,2010,2016,2018,2047,2055
2058,2052,2021,2034,2053,2010,2054,2070
2066,2054,2016,2032,2072,2019,2055,2079
2058,2053,2012,2043,2082,2041,2059,2076
2062,2052,2019,2046,2070,2054,2061,2078
2051,2049,2016,2041,2075,2045,2053,2085
2045,2040,2015,2031,2090,2034,2033,2083
2039,2029,2005,2024,2108,2044,2043,2098
2043,2042,2029,2043,2124,2057,2037,2097
2046,2032,2044,2055,2149,2071,2045,2084
2041,2032,2060,2065,2161,2078,2060,2091
2051,2057,2092,2081,2140,2080,2064,2095
2058,2076,2111,2081,2095,2059,2052,2094
2059,2070,2105,2075,2057,2057,2060,2087
2061,2065,2103,2063,1971,2042,2058,2079
2057,2055,2097,2044,1967,2035,2055,2072
2053,2043,2074,2036,2020,2060,2061,2067
2062,2044,2060,2034,2097,2086,2058,2052
2060,2043,2046,2018,2098,2071,2042,2040
2058,2036,2024,1987,1972,2071,2035,2030
2046,2033,2023,1986,1928,2083,2046,2029
2043,2038,2019,1997,1937,2069,2042,2036
2058,2034,2028,2015,2000,2078,2071,2046
2064,2040,2022,2043,2065,2093,2077,2059
2072,2055,2035,2072,2082,2047,2076,2062
2075,2052,2039,2080,2095,2017,2060,2054
2069,2042,2034,2075,2025,2023,2058,2047
2070,2054,2048,2048,1939,2029,2039,2045
2064,2057,2053,2051,1965,2042,2056,2050
2056,2056,2066,2062,2013,2050,2049,2045
2051,2051,2068,2060,1974,2033,2048,2037
2041,2037,2066,2057,2006,2035,2045,2034
2039,2040,2069,2059,2036,2051,2051,2037
2037,2049,2078,2074,2049,2073,2051,2049
2048,2074,2095,2089,2071,2068,2070,2058
2057,2078,2098,2096,2073,2066,2069,2070
2055,2063,2097,2099,2085,2067,2063,2059
2046,2052,2092,2099,2090,2046,2062,2061
2053,2047,2097,2090,2078,2021,2059,2064
2044,2039,2096,2076,2080,2027,2056,2076
2043,2039,2105,2076,2064,2043,2042,2074
2048,2042,2111,2073,2055,2072,2048,2085
2051,2049,2117,2075,2041,2103,2060,2079
2050,2050,2092,2065,2004,2079,2044,2068
2040,2046,2078,2055,1993,2013,2031,2063
2047,2042,2064,2051,1976,2007,2029,2055
2042,2036,2062,2052,1965,2023,2030,2055
2042,2037,2066,2064,2003,2038,2024,2053
2044,2037,2061,2067,2022,2035,2025,2047
2047,2036,2048,2056,2021,2029,2043,2041
2052,2034,2039,2064,2024,2037,2047,2042
2059,2035,2036,2062,2045,2045,2048,2041
2057,2040,2040,2040,2037,2040,2051,2043
2062,2038,2028,2017,2011,2033,2041,2030
2055,2029,2002,1988,1990,2034,2034,2018
2056,2029,2009,1994,1992,2036,2059,2018
2041,2038,2022,2001,2000,2043,2043,1995
2034,2025,2027,2018,2010,2044,2041,2006
2034,2036,2046,2027,2019,2058,2055,2024
2051,2066,2065,2046,2030,2049,2060,2038
2064,2072,2073,2052,2028,2039,2056,2037
2058,2063,2068,2053,2032,2028,2058,2039
2056,2059,2067,2052,2036,2019,2060,2044
2058,2057,2058,2050,2048,2026,2054,2042
2051,2045,2047,2052,2097,2034,2049,2049
2056,2036,2038,2054,2116,2041,2055,2064
2060,2036,2038,2047,2089,2048,2069,2072
2065,2038,2042,2047,2066,2040,2064,2075
2062,2042,2043,2047,2060,2038,2070,2077
2062,2041,2042,2044,2054,2052,2058,2077
2060,2045,2037,2044,2055,2069,2057,2076
2060,2050,2034,2046,2057,2098,2065,2080
2052,2051,2047,2054,2053,2139,2065,2082
2050,2045,2038,2047,2049,2145,2047,2083
2053,2033,2030,2040,2048,2096,2043,2083
2056,2037,2028,2037,2036,1985,2033,2085
2063,2035,2015,2029,2033,1975,2048,2080
2058,2032,2013,2030,2028,2015,2056,2077
2049,2021,2022,2032,2020,2012,2037,2061
2042,2025,2040,2040,1988,1991,2023,2035
2035,2025,2057,2044,1975,1994,2023,2023
2036,2042,2091,2068,2000,2024,2043,2023
2047,2064,2096,2075,2016,2031,2056,2033
2056,2064,2086,2080,2019,2036,2058,2040
2057,2049,2073,2086,2025,2039,2057,2033
2056,2045,2064,2092,2016,2029,2060,2016
2058,2045,2071,2092,2010,2026,2052,2012
2054,2050,2077,2104,2021,2031,2044,2009
2043,2051,2072,2106,2034,2027,2038,2008
2038,2043,2065,2098,2028,2023,2037,2005
2032,2040,2061,2103,2045,2050,2037,2020
2041,2054,2076,2098,2054,2066,2044,2021
2053,2054,2064,2074,2049,2066,2056,2027
2056,2044,2058,2047,2042,2062,2051,2025
2057,2049,2057,2032,2035,2055,2049,2035
2055,2054,2068,2035,2037,2056,2054,2040
2059,2059,2073,2028,2024,2055,2055,2047
2057,2052,2069,2018,2028,2051,2057,2052
2062,2055,2045,2019,2055,2058,2066,2055
2056,2050,2044,2025,2072,2067,2057,2058
2057,2053,2039,2027,2065,2072,2035,2063
2051,2051,2037,2043,2088,2083,2050,2070
2056,2052,2045,2046,2094,2074,2057,2076
2054,2054,2043,2040,2074,2067,2058,2074
2049,2046,2051,2045,2070,2059,2053,2074
2046,2037,2060,2060,2050,2045,2041,2073
2044,2032,2058,2056,2057,2049,2051,2075
2053,2039,2071,2066,2053,2046,2043,2070
2052,2040,2064,2059,2050,2045,2048,2063
2042,2038,2065,2060,2051,2043,2044,2064
2042,2036,2054,2060,2047,2045,2047,2054
2039,2038,2052,2055,2045,2045,2053,2038
2044,2036,2050,2057,2041,2042,2032,2038
2046,2036,2050,2056,2037,2043,2049,2032
2054,2040,2047,2050,2038,2050,2043,2025
2051,2038,2044,2044,2043,2047,2057,2009
2051,2037,2045,2048,2055,2062,2049,2011
2050,2038,2043,2043,2052,2066,2047,2013
2053,2032,2037,2045,2053,2067,2058,2015
2044,2030,2025,2032,2049,2065,2051,2016
2046,2031,2026,2023,2045,2058,2050,2019
2042,2031,2013,2010,2043,2043,2040,2013
2045,2030,2014,2012,2046,2039,2036,2026
2058,2042,2020,2014,2048,2052,2031,2021
2066,2042,2025,2024,2059,2054,2031,2028
2064,2037,2018,2027,2054,2058,2044,2027
2050,2024,1992,2031,2047,2046,2045,2020
2034,2010,1981,2021,2041,2029,2026,2016
2033,2013,1992,2029,2037,2029,2029,2018
2041,2029,2005,2035,2044,2054,2045,2026
2049,2026,2012,2045,2052,2078,2054,2038
2051,2032,2014,2041,2046,2051,2036,2043
2050,2033,2010,2036,2035,2036,2056,2061
2051,2034,2006,2028,2039,2028,2058,2072
2058,2038,2016,2033,2043,2031,2054,2074
2055,2036,2017,2034,2046,2034,2047,2065
2054,2036,2030,2044,2045,2040,2032,2066
2047,2037,2042,2045,2048,2034,2028,2061
2054,2035,2048,2047,2041,2036,2038,2065
2043,2040,2054,2042,2036,2036,2037,2064
2054,2037,2060,2039,2034,2038,2057,2064
2055,2047,2069,2043,2029,2038,2040,2046
2041,2050,2080,2037,2025,2030,2040,2039
2043,2046,2088,2042,2016,2040,2051,2042
2055,2057,2088,2045,2018,2056,2059,2047
2052,2065,2082,2051,2037,2070,2058,2050
2060,2065,2095,2065,2054,2082,2042,2045
2066,2066,2092,2068,2069,2077,2069,2047
2064,2059,2090,2064,2076,2081,2068,2039
2062,2057,2077,2069,2084,2065,2062,2029
2060,2044,2067,2062,2059,2051,2026,2009
2046,2036,2060,2053,2053,2043,2051,2010
2049,2038,2072,2054,2053,2049,2042,1999
2036,2032,2067,2051,2038,2048,2034,1993
2031,2026,2062,2052,2046,2057,2043,1999
2032,2031,2058,2043,2044,2056,2051,2018
2038,2034,2056,2047,2049,2068,2057,2024
2045,2042,2054,2051,2052,2077,2051,2027
2060,2058,2062,2057,2053,2069,2046,2044
2067,2062,2063,2053,2046,2068,2044,2043
2065,2058,2064,2051,2045,2067,2038,2048
2069,2061,2064,2056,2051,2067,2046,2044
2059,2060,2071,2058,2055,2074,2043,2034
2049,2059,2071,2058,2056,2077,2057,2047
2051,2053,2066,2061,2061,2081,2053,2054
2051,2054,2062,2050,2056,2052,2050,2061
2055,2046,2056,2049,2054,2029,2031,2063
2055,2045,2047,2046,2052,2017,2034,2065
2054,2038,2040,2049,2038,2016,2039,2063
2045,2029,2031,2041,2014,2015,2040,2070
2049,2027,2023,2038,1995,2022,2051,2066
2053,2034,2037,2041,1996,2016,2055,2060
2045,2039,2039,2032,1991,2028,2047,2052
2046,2034,2039,2048,2005,2045,2043,2055
2040,2036,2040,2051,2025,2056,2049,2053
2044,2035,2030,2052,2032,2061,2049,2046
2044,2032,2031,2047,2043,2070,2041,2037
2050,2040,2046,2053,2068,2085,2061,2035
2052,2051,2061,2066,2094,2094,2057,2028
2060,2062,2070,2063,2074,2084,2062,2032
2055,2058,2070,2057,2062,2073,2058,2029
2056,2053,2062,2054,2051,2056,2050,2029
2058,2041,2055,2056,2057,2063,2064,2029
2059,2038,2057,2053,2056,2058,2070,2027
2066,2042,2051,2053,2051,2046,2058,2024
2064,2034,2043,2039,2050,2047,2036,2029
2068,2023,2037,2029,2004,2056,2030,2022
2063,2027,2042,2033,2020,2029,2048,2003
2057,2025,2053,2038,2042,2013,2042,1992
2066,2032,2056,2041,2050,2029,2062,2004
2062,2038,2061,2045,2060,2042,2062,2023
2059,2046,2061,2050,2042,2054,2061,2032
2059,2055,2069,2054,2049,2050,2070,2039
2054,2068,2068,2058,2060,2052,2057,2042
2053,2079,2070,2056,2092,2045,2064,2038
2053,2069,2069,2053,2136,2046,2057,2043
2050,2068,2068,2056,2153,2053,2056,2058
2045,2062,2064,2055,2149,2052,2054,2068
2045,2052,2061,2048,2121,2034,2041,2073
2045,2053,2048,2042,2066,2006,2050,2075
2044,2060,2060,2046,2029,2006,2049,2067
2048,2064,2065,2046,2000,2005,2049,2076
2044,2060,2046,2037,1962,2020,2065,2077
2046,2062,2052,2032,1913,2038,2069,2074
2057,2062,2052,2042,1956,2058,2080,2077
2063,2072,2056,2058,2008,2068,2078,2076
2064,2072,2057,2070,2057,2077,2068,2067
2061,2068,2054,2067,2073,2077,2071,2066
2055,2062,2052,2066,2066,2068,2074,2057
2062,2063,2053,2067,2072,2065,2057,2050
2058,2060,2050,2073,2070,2070,2037,2040
2055,2061,2051,2060,2040,2097,2052,2035
2049,2050,2044,2058,2021,2091,2037,2026
2058,2051,2041,2057,1996,2082,2048,2025
2051,2057,2043,2052,1982,2068,2055,2021
2051,2055,2042,2041,1970,2040,2054,2027
2054,2059,2052,2044,1945,2023,2082,2030
2055,2053,2060,2052,1958,2037,2072,2027
2055,2044,2063,2056,1981,2064,2061,2027
2057,2055,2077,2060,1983,2075,2064,2020
2053,2054,2077,2065,1981,2057,2045,2014
2052,2052,2073,2057,1982,2037,2036,2011
2052,2052,2059,2051,2018,2044,2030,2010
2045,2043,2044,2048,2059,2061,2016,2016
2039,2038,2037,2050,2078,2041,2035,2026
2048,2047,2045,2051,2074,2014,2021,2035
2054,2052,2038,2039,2081,2046,2043,2044
2050,2049,2031,2038,2080,2071,2038,2046
2043,2034,2022,2036,2079,2077,2018,2048
2047,2041,2030,2030,2078,2052,2022,2063
2051,2049,2037,2048,2093,2041,2040,2070
2061,2057,2048,2059,2107,2038,2037,2076
2064,2057,2048,2053,2091,2025,2048,2076
2059,2042,2030,2029,2080,2034,2031,2064
2043,2033,2018,2015,2077,2043,2033,2072
2044,2036,2024,2025,2070,2052,2063,2069
2045,2038,2032,2036,2062,2062,2049,2061
2052,2054,2040,2039,2066,2082,2053,2063
2058,2060,2046,2042,2058,2070,2053,2059
2054,2061,2058,2045,2052,2061,2053,2051
2058,2066,2065,2042,2038,2015,2039,2047
2063,2067,2058,2042,2032,1962,2030,2048
2060,2053,2052,2041,2037,1975,2033,2046
2055,2038,2037,2034,2045,2008,2026,2040
2056,2040,2037,2039,2055,2036,2053,2044
2054,2044,2040,2046,2057,2036,2046,2027
2053,2045,2043,2043,2052,2036,2052,2022
2046,2047,2043,2034,2044,2035,2024,2022
2043,2033,2027,2036,2033,2036,2042,2014
2035,2026,2029,2035,2052,2026,2029,2004
2044,2042,2047,2043,2052,2023,2029,2001
2054,2053,2065,2052,2059,2033,2041,2010
2049,2062,2065,2063,2055,2027,2051,2018
2046,2062,2070,2065,2053,2017,2047,2034
2053,2058,2071,2065,2048,2003,2049,2034
2057,2059,2057,2058,2036,1994,2040,2038
2064,2061,2053,2055,2045,2002,2046,2032
2059,2068,2059,2058,2058,2009,2040,2040
2060,2060,2049,2058,2062,2028,2045,2049
2065,2054,2048,2059,2061,2059,2033,2050
2055,2050,2042,2054,2072,2098,2026,2052
2041,2040,2036,2050,2065,2132,2038,2057
2041,2045,2035,2047,2055,2135,2042,2070
2046,2044,2029,2045,2050,2113,2043,2063
2040,2045,2025,2040,2034,2101,2054,2064
2031,2036,2015,2021,2024,2087,2055,2058
2023,2037,2007,2019,2039,2072,2046,2075
2039,2048,2026,2039,2050,2047,2048,2083
2049,2064,2035,2052,2049,2035,2046,2083
2059,2071,2038,2053,2044,2026,2054,2079
2057,2065,2044,2043,2051,2029,2047,2065
2050,2051,2031,2039,2048,2026,2058,2051
2042,2047,2027,2044,2055,2028,2066,2046
2044,2045,2034,2050,2063,2028,2044,2043
2050,2045,2042,2061,2073,2033,2064,2036
2051,2058,2048,2067,2061,2045,2053,2033
2046,2054,2050,2068,2050,2055,2056,2027
2055,2056,2050,2060,2041,2057,2052,2029
2053,2060,2053,2058,2042,2065,2045,2032
2062,2065,2046,2060,2049,2072,2059,2028
2064,2065,2048,2060,2053,2086,2051,2022
2055,2058,2040,2053,2057,2102,2045,2019
2049,2044,2037,2050,2053,2129,2059,2023
2050,2050,2044,2058,2072,2159,2068,2028
2059,2048,2053,2056,2059,2126,2067,2024
2059,2050,2069,2062,2049,1990,2053,2024
2057,2045,2068,2068,2039,1932,2037,2025
2048,2043,2075,2075,2039,1965,2050,2027
2046,2044,2081,2091,2041,2002,2071,2038
2038,2056,2093,2093,2045,2034,2066,2041
2044,2066,2100,2100,2060,2052,2074,2049
2050,2070,2093,2092,2046,2041,2070,2054
2051,2064,2087,2098,2053,2034,2040,2054
2048,2058,2065,2090,2075,2033,2050,2060
2036,2049,2054,2082,2093,2037,2031,2067
2048,2054,2061,2081,2099,2065,2058,2075
2049,2060,2062,2073,2083,2055,2046,2079
2041,2060,2054,2065,2080,2049,2041,2071
2033,2041,2046,2060,2074,2051,2040,2069
2033,2040,2040,2050,2068,2057,2040,2072
2038,2048,2038,2034,2048,2053,2022,2076
2045,2051,2035,2021,2030,2039,2037,2071
2050,2053,2028,2020,2017,2022,2025,2063
2052,2060,2021,2021,2004,2007,2018,2060
2054,2056,2018,2017,2010,2007,2037,2050
2053,2062,2006,2024,2019,2021,2059,2038
2052,2057,2004,2024,2021,2035,2076,2036
2058,2060,1997,2024,2028,2036,2073,2031
2057,2053,1990,2028,2036,2050,2055,2028
2054,2046,1981,2027,2034,2062,2067,2022
2044,2041,1980,2021,2043,2068,2069,2020
2045,2037,1975,2028,2045,2062,2056,2020
2047,2035,1978,2045,2075,2050,2064,2017
2047,2034,1989,2065,2093,2041,2053,2004
2045,2034,1995,2061,2075,2029,2037,2000
2032,2026,1998,2052,2053,2029,2039,2003
2035,2028,2015,2067,2049,2044,2042,2012
2037,2031,2028,2067,2056,2043,2048,2015
2026,2030,2028,2073,2071,2055,2047,2014
2016,2030,2030,2067,2067,2055,2051,2021
2018,2024,2037,2043,1995,2019,2035,2024
2010,2022,2042,2022,1961,2013,2029,2037
2024,2036,2064,2042,2023,2033,2042,2036
2035,2067,2091,2070,2066,2042,2065,2049
2038,2078,2103,2067,2065,2042,2066,2045
2046,2068,2095,2061,2061,2036,2051,2054
2047,2062,2080,2051,2051,2037,2033,2065
2043,2060,2071,2041,2042,2039,2048,2073
2046,2061,2070,2031,2049,2038,2049,2073
2041,2063,2068,2028,2048,2040,2042,2071
2040,2063,2061,2030,2048,2038,2016,2074
2041,2053,2047,2026,2047,2038,2060,2075
2045,2053,2044,2019,2054,2045,2059,2085
2050,2056,2043,2028,2045,2042,2046,2081
2045,2055,2039,2032,2041,2037,2056,2070
2039,2052,2035,2034,2042,2050,2071,2069
2044,2054,2033,2037,2049,2051,2065,2068
2050,2052,2034,2038,2039,2054,2073,2058
2054,2054,2031,2046,2042,2056,2067,2046
2060,2058,2042,2048,2043,2052,2043,2046
2052,2057,2043,2047,2039,2046,2038,2034
2046,2055,2039,2047,2043,2047,2039,2030
2039,2057,2035,2050,2049,2053,2059,2028
2044,2058,2038,2052,2060,2059,2063,2031
2046,2056,2043,2062,2053,2054,2056,2021
2049,2051,2042,2058,2052,2052,2059,2022
2052,2050,2038,2062,2050,2045,2057,2018
2044,2041,2032,2051,2035,2032,2031,2019
2045,2041,2034,2040,2019,2025,2050,2018
2049,2050,2039,2043,2026,2024,2049,2019
2045,2046,2050,2040,2034,2027,2061,2022
2046,2060,2070,2043,2047,2041,2039,2023
2045,2065,2072,2054,2072,2052,2026,2027
2059,2069,2079,2064,2098,2065,2047,2040
2062,2069,2073,2068,2106,2081,2078,2040
2056,2062,2069,2059,2091,2081,2079,2050
2053,2063,2059,2058,2076,2081,2064,2048
2051,2063,2054,2055,2071,2083,2059,2058
2049,2060,2057,2046,2062,2070,2076,2068
2053,2056,2048,2039,2046,2062,2049,2074
2053,2054,2047,2039,2023,2057,2080,2081
2050,2051,2044,2037,2017,2055,2078,2083
2043,2046,2041,2033,2020,2048,2050,2082
2038,2033,2025,2017,2009,2039,2041,2068
2029,2023,2014,2018,2033,2055,2032,2068
2025,2035,2017,2042,2064,2065,2050,2079
2039,2041,2020,2047,2051,2058,2012,2075
2048,2035,2028,2051,2055,2028,2040,2076
2044,2033,2019,2051,2064,1998,2049,2075
2050,2028,2018,2053,2077,2007,2047,2071
2058,2022,2007,2040,2058,2042,2036,2054
2066,2015,1995,2029,2031,2068,2038,2035
2044,2001,1974,2007,1987,2060,2013,2014
2017,1989,1958,2001,1950,2039,2003,1992
1998,1992,1971,2008,1940,2005,2006,1991
2011,2030,2020,2042,1955,1934,2021,2010
2041,2066,2042,2039,1919,1928,2036,2025
2059,2081,2055,2046,1931,1967,2047,2042
2071,2092,2059,2069,2013,2038,2058,2056
2064,2077,2042,2070,2092,2076,2045,2046
2038,2049,2022,2045,2121,2087,2067,2039
2033,2044,2019,2026,2083,2083,2078,2040
2043,2062,2048,2021,2035,2069,2051,2025
2053,2075,2070,2027,2055,2061,2049,2037
2062,2085,2074,2027,2075,2057,2046,2037
2059,2076,2074,2038,2072,2052,2059,2038
2060,2068,2077,2042,2057,2050,2055,2048
2063,2068,2079,2047,2040,2042,2054,2047
2050,2064,2069,2036,2017,2036,2044,2045
2034,2058,2067,2038,2042,2044,2052,2046
2033,2052,2063,2043,2078,2051,2044,2050
2036,2052,2061,2052,2094,2056,2039,2071
2045,2061,2058,2057,2102,2055,2061,2085
2050,2066,2069,2053,2103,2053,2051,2088
2052,2064,2059,2052,2094,2041,2049,2078
2040,2064,2051,2046,2080,2038,2043,2079
2029,2052,2048,2041,2070,2040,2033,2079
2036,2047,2047,2041,2070,2041,2049,2083
2036,2053,2044,2048,2065,2047,2064,2078
2041,2055,2043,2051,2073,2056,2056,2071
2048,2064,2049,2048,2068,2056,2046,2074
2052,2057,2044,2042,2061,2057,2054,2058
2057,2047,2049,2046,2058,2054,2040,2064
2056,2052,2054,2050,2053,2050,2017,2055
2052,2058,2057,2048,2056,2052,2032,2047
2052,2059,2058,2046,2055,2050,2018,2042
2047,2049,2046,2040,2053,2046,2023,2040
