CH1,CH2,CH3,CH4,CH5,CH6,CH7,CH8
2033,2037,2055,2062,2055,2062,2052,2058
2032,2031,2050,2059,2044,2058,2045,2059
2029,2038,2052,2051,2037,2055,2049,2066
2027,2041,2056,2048,2014,2043,2068,2067
2033,2051,2060,2054,2003,2036,2044,2072
2038,2039,2066,2055,2025,2041,2038,2082
2039,2040,2067,2068,2056,2047,2038,2065
2041,2036,2062,2063,2069,2042,2033,2054
2041,2032,2064,2059,2057,2039,2040,2050
2035,2045,2072,2065,2036,2048,2042,2049
2042,2048,2073,2076,2032,2056,2046,2058
2046,2057,2065,2075,2046,2066,2038,2056
2049,2052,2058,2080,2066,2076,2028,2054
2060,2057,2061,2085,2069,2077,2048,2049
2055,2053,2053,2080,2054,2078,2029,2049
2054,2042,2041,2071,2057,2081,2040,2041
2060,2037,2036,2069,2077,2079,2025,2035
2048,2032,2031,2062,2081,2038,2020,2033
2042,2022,2011,2050,2060,2003,2042,2028
2046,2030,2013,2048,2060,2009,2034,2025
2044,2029,2015,2055,2056,2021,2029,2026
2030,2022,2016,2044,1985,2026,2029,2022
2028,2024,2018,2039,1985,2040,2041,2034
2052,2051,2035,2050,2012,2042,2056,2042
2057,2061,2044,2046,2020,2054,2046,2049
2054,2059,2041,2042,2039,2059,2047,2040
2051,2050,2044,2035,2038,2058,2051,2039
2051,2051,2046,2022,2048,2051,2041,2050
2048,2044,2038,2020,2054,2052,2046,2054
2045,2041,2040,2012,2051,2053,2048,2057
2049,2053,2065,2027,2046,2052,2049,2058
2048,2058,2077,2028,2038,2040,2038,2056
2050,2053,2079,2034,2044,2041,2035,2052
2045,2049,2060,2037,2040,2047,2041,2054
2049,2040,2050,2034,2041,2044,2027,2058
2043,2035,2042,2032,2026,2037,2053,2058
2042,2035,2042,2033,2026,2033,2033,2062
2029,2021,2033,2025,2014,2026,2040,2060
2035,2019,2032,2034,2018,2034,2043,2055
2041,2033,2038,2035,2024,2033,2040,2057
2047,2036,2037,2034,2029,2029,2019,2052
2035,2031,2039,2028,2029,2033,2029,2053
2041,2027,2042,2027,2031,2036,2022,2049
2049,2046,2063,2042,2041,2045,2036,2054
2059,2070,2094,2060,2054,2048,2044,2055
2063,2073,2102,2059,2050,2054,2039,2052
2069,2070,2092,2052,2057,2058,2044,2061
2065,2067,2084,2058,2078,2064,2055,2062
2070,2069,2089,2069,2077,2058,2035,2055
2071,2070,2096,2070,2066,2059,2043,2044
2068,2068,2094,2070,2060,2051,2022,2034
2062,2071,2093,2076,2053,2055,2028,2040
2071,2051,2086,2077,2072,2057,2042,2023
2052,2040,2067,2063,2064,2050,2037,2027
2047,2042,2065,2065,2073,2059,2042,2032
2047,2052,2071,2073,2076,2056,2049,2032
2051,2056,2065,2072,2069,2044,2031,2036
2055,2060,2051,2060,2062,2037,2038,2039
2055,2062,2053,2063,2064,2042,2034,2036
2053,2055,2046,2068,2063,2049,2048,2040
2053,2044,2052,2077,2064,2053,2035,2038
2050,2045,2058,2084,2072,2058,2062,2048
2057,2048,2061,2090,2073,2058,2059,2056
2064,2055,2067,2094,2059,2056,2055,2059
2063,2051,2059,2084,2036,2044,2070,2058
2064,2045,2051,2077,2031,2039,2056,2057
2061,2046,2044,2070,2030,2029,2040,2058
2050,2031,2036,2058,2027,2039,2016,2058
2035,2032,2033,2057,2044,2049,2013,2055
2030,2031,2036,2068,2052,2040,2023,2057
2037,2040,2046,2059,2043,2043,2011,2067
2045,2049,2054,2053,2051,2041,2035,2065
2049,2055,2065,2050,2050,2033,2032,2054
2047,2056,2077,2036,2054,2017,2019,2050
2039,2058,2077,2018,2037,2014,2021,2045
2043,2048,2061,1997,2024,2028,2030,2044
2040,2041,2035,1988,2037,2039,2020,2038
2048,2035,2018,1977,2058,2058,2040,2026
2047,2038,2024,2007,2092,2078,2038,2037
2054,2040,2033,2033,2122,2059,2056,2042
2067,2051,2037,2056,2163,2044,2040,2052
2060,2040,2040,2060,2181,2060,2034,2042
2062,2038,2041,2061,2094,2056,2055,2052
2065,2051,2043,2038,2010,2046,2042,2045
2057,2060,2051,2038,2027,2043,2056,2039
2049,2056,2048,2036,2036,2039,2066,2026
2041,2052,2045,2025,1987,2022,2052,2031
2045,2052,2039,2009,1930,2012,2050,2044
2057,2051,2026,2006,1950,2013,2056,2049
2056,2048,2022,2013,1988,2021,2064,2041
2054,2042,2018,2031,2002,2030,2040,2030
2045,2030,2006,2023,2004,2027,2038,2030
2043,2031,1986,2026,1999,2028,2056,2032
2045,2028,1983,2035,1999,2035,2032,2040
2051,2023,1978,2035,2000,2036,2028,2028
2039,2019,1977,2035,2008,2044,2033,2040
2039,2031,1986,2051,2041,2050,2020,2057
2044,2031,1999,2054,2073,2063,2032,2062
2055,2035,2006,2056,2105,2073,2048,2065
2050,2041,2020,2056,2114,2072,2040,2059
2041,2033,2023,2055,2115,2068,2045,2057
2035,2023,2007,2037,2100,2062,2038,2055
2031,2009,1999,2024,2087,2051,2039,2060
2034,2018,2010,2017,2070,2051,2022,2069
2043,2035,2048,2025,2062,2052,2043,2068
2058,2057,2090,2029,2047,2054,2054,2061
2069,2076,2117,2015,2009,2047,2026,2057
2063,2072,2109,2001,1997,2042,2031,2050
2063,2065,2106,2010,2007,2044,2035,2049
2051,2055,2093,2015,2044,2056,2032,2051
2054,2043,2096,2027,2071,2070,2054,2059
2063,2052,2099,2044,2072,2074,2057,2055
2058,2056,2098,2048,2071,2070,2079,2056
2054,2049,2092,2044,2052,2057,2044,2046
2043,2038,2072,2034,2038,2045,2029,2039
2046,2035,2058,2039,2043,2048,2050,2040
2056,2044,2080,2043,2047,2059,2071,2038
2049,2058,2098,2053,2046,2063,2060,2043
2049,2052,2080,2050,2033,2060,2062,2058
2048,2053,2074,2053,2036,2066,2063,2060
2065,2077,2088,2071,2061,2074,2040,2060
2064,2068,2079,2066,2072,2069,2068,2052
2056,2060,2073,2070,2075,2064,2058,2042
2047,2054,2069,2056,2064,2071,2050,2042
2057,2057,2067,2034,2045,2065,2040,2043
2042,2046,2061,2029,2074,2059,2053,2041
2045,2056,2065,2037,2088,2047,2038,2047
2063,2064,2071,2045,2074,2030,2025,2058
2059,2055,2060,2032,2056,2032,2021,2049
2042,2043,2047,2029,2047,2041,2037,2047
2037,2041,2048,2035,2056,2052,2049,2055
2046,2048,2052,2044,2060,2052,2009,2062
2057,2043,2044,2030,2037,2034,2049,2058
2040,2038,2044,2018,1977,2010,2026,2061
2039,2034,2034,1999,1970,2004,2033,2062
2040,2039,2034,2014,1993,2023,2041,2064
2052,2053,2047,2024,2003,2034,2048,2069
2053,2059,2052,2022,2008,2028,2041,2068
2051,2059,2051,2029,2015,2037,2044,2066
2048,2049,2041,2030,2021,2039,2042,2058
2046,2040,2037,2026,1994,2048,2048,2059
2049,2048,2039,2026,1977,2052,2047,2053
2050,2040,2038,2034,1988,2050,2046,2042
2047,2039,2037,2037,2003,2042,2044,2033
2043,2036,2030,2037,2012,2033,2052,2039
2045,2030,2028,2051,2067,2028,2049,2045
2038,2027,2026,2058,2107,2042,2057,2050
2040,2027,2027,2066,2115,2050,2064,2047
2040,2028,2027,2062,2110,2066,2060,2033
2039,2024,2035,2062,2099,2080,2042,2025
2039,2027,2039,2046,2077,2074,2034,2015
2035,2026,2039,2048,2053,2073,2041,2015
2042,2042,2057,2056,2058,2074,2039,2031
2052,2044,2066,2063,2063,2058,2037,2034
2049,2053,2079,2076,2071,2028,2048,2052
2051,2063,2080,2074,2079,2020,2052,2055
2047,2057,2076,2062,2067,2012,2023,2056
2053,2057,2074,2045,2050,2019,2048,2049
2045,2050,2071,2032,2046,2026,2037,2046
2040,2042,2074,2037,2058,2042,2056,2054
2039,2045,2076,2041,2057,2047,2044,2057
2043,2046,2073,2040,2047,2048,2047,2066
2046,2053,2064,2041,2057,2056,2030,2069
2046,2054,2064,2040,2062,2056,2045,2076
2047,2056,2065,2049,2057,2055,2058,2079
2050,2052,2060,2050,2049,2057,2045,2076
2050,2046,2050,2043,2043,2048,2043,2068
2041,2038,2048,2037,2037,2036,2026,2068
2045,2040,2038,2040,2046,2040,2054,2063
2048,2041,2041,2042,2048,2045,2040,2056
2054,2036,2043,2044,2048,2057,2049,2057
2052,2036,2037,2045,2057,2060,2064,2056
2054,2039,2041,2054,2056,2053,2044,2058
2052,2037,2040,2058,2070,2054,2050,2046
2048,2036,2047,2066,2069,2051,2054,2048
2048,2039,2052,2072,2065,2050,2052,2038
2044,2032,2061,2072,2060,2049,2036,2038
2046,2040,2066,2076,2063,2045,2042,2037
2044,2044,2063,2077,2054,2038,2035,2034
2052,2041,2059,2074,2038,2030,2023,2039
2044,2036,2065,2073,2038,2025,2026,2036
2050,2053,2081,2073,2047,2008,2027,2040
2054,2051,2080,2066,2043,2007,2015,2050
2056,2056,2076,2064,2043,2011,2036,2044
2060,2063,2062,2060,2048,2020,2037,2047
2052,2054,2049,2052,2053,2032,2025,2035
2043,2046,2038,2047,2058,2039,2027,2032
2044,2035,2033,2037,2052,2046,2047,2038
2043,2033,2017,2021,2052,2056,2061,2040
2036,2032,2026,2012,2052,2061,2037,2044
2043,2043,2036,2005,2043,2062,2041,2058
2047,2047,2040,2003,2048,2062,2061,2063
2054,2044,2048,2015,2051,2061,2090,2065
2058,2051,2054,2024,2057,2060,2076,2071
2060,2051,2060,2025,2062,2059,2065,2076
2050,2046,2059,2032,2061,2056,2081,2073
2044,2036,2053,2030,2051,2051,2086,2076
2037,2025,2044,2025,2033,2040,2062,2070
2029,2015,2032,2011,2008,2025,2051,2064
2024,2007,2025,2009,2005,2027,2061,2065
2028,2023,2038,2012,2013,2032,2068,2062
2038,2029,2032,2011,2016,2042,2056,2066
2044,2033,2029,2021,2055,2061,2069,2063
2045,2035,2047,2038,2069,2061,2058,2058
2052,2041,2047,2047,2069,2066,2062,2057
2055,2042,2042,2044,2070,2059,2064,2061
2062,2052,2045,2042,2062,2061,2069,2058
2062,2058,2054,2051,2050,2059,2053,2044
2058,2057,2054,2038,2054,2065,2058,2040
2053,2047,2045,2044,2046,2058,2059,2031
2048,2034,2051,2047,2036,2045,2056,2044
2062,2040,2073,2056,2039,2044,2046,2051
2064,2053,2088,2066,2033,2040,2040,2036
2058,2055,2083,2067,2032,2039,2037,2025
2052,2040,2070,2062,2030,2036,2040,2027
2054,2039,2063,2070,2035,2031,2041,2037
2060,2050,2060,2074,2050,2040,2055,2050
2058,2047,2056,2073,2048,2044,2069,2046
2050,2053,2064,2073,2060,2058,2062,2053
2058,2054,2066,2074,2059,2052,2074,2052
2059,2049,2061,2065,2053,2042,2069,2059
2058,2043,2056,2053,2051,2049,2070,2062
2059,2043,2060,2048,2056,2057,2063,2060
2059,2043,2064,2040,2057,2060,2057,2051
2052,2040,2051,2039,2060,2058,2047,2047
2033,2031,2039,2020,2056,2049,2047,2051
2040,2023,2016,1997,2048,2046,2046,2058
2042,2015,2009,1992,2035,2045,2041,2055
2042,2028,2021,2008,2036,2051,2046,2067
2049,2036,2036,2019,2030,2055,2039,2073
2054,2031,2031,2025,2019,2041,2043,2062
2034,2032,2031,2028,2017,2041,2042,2064
2036,2040,2042,2037,2022,2056,2050,2064
2034,2046,2052,2048,2019,2056,2054,2067
2048,2051,2056,2048,2024,2055,2072,2063
2054,2052,2046,2052,2039,2055,2062,2063
2053,2048,2046,2051,2045,2059,2062,2058
2054,2039,2025,2043,2036,2053,2048,2044
2050,2026,2016,2038,2038,2044,2075,2040
2045,2022,2012,2044,2053,2046,2055,2037
2043,2031,2020,2050,2068,2050,2065,2037
2046,2043,2029,2052,2070,2056,2041,2037
2060,2047,2023,2049,2080,2052,2059,2045
2064,2039,2029,2052,2077,2054,2078,2048
2062,2035,2036,2041,2063,2047,2064,2050
2056,2029,2027,2033,2058,2053,2042,2050
2052,2031,2026,2028,2063,2048,2060,2037
2046,2028,2029,2022,2053,2047,2054,2039
2045,2042,2048,2030,2042,2054,2058,2043
2048,2055,2060,2026,2045,2063,2051,2046
2045,2048,2069,2028,2050,2074,2056,2046
2039,2046,2071,2030,2048,2073,2071,2040
2052,2051,2069,2029,2042,2079,2071,2045
2050,2050,2079,2033,2023,2082,2065,2041
2045,2044,2082,2034,2027,2083,2052,2041
2044,2061,2094,2050,2039,2088,2062,2048
2050,2066,2097,2065,2067,2061,2059,2060
2061,2071,2091,2071,2107,2030,2067,2066
2058,2069,2074,2072,2143,2033,2038,2063
2050,2059,2065,2066,2145,2041,2021,2068
2050,2055,2055,2061,2136,2057,2063,2066
2048,2054,2053,2066,2141,2059,2058,2072
2053,2042,2042,2056,2115,2047,2029,2058
2041,2032,2025,2048,2100,2045,2032,2062
2046,2038,2029,2054,2104,2052,2059,2069
2056,2045,2039,2049,2059,2053,2057,2064
2054,2041,2050,2043,1914,2035,2047,2053
2049,2036,2062,2031,1846,2020,2046,2053
2046,2039,2059,2035,1899,2013,2039,2048
2049,2043,2056,2040,1944,2018,2039,2043
2045,2035,2051,2033,1981,2027,2030,2032
2038,2031,2042,2036,1993,2037,2023,2025
2028,2026,2043,2040,2008,2043,2041,2017
2030,2026,2042,2043,2026,2043,2036,2026
2036,2026,2049,2046,2034,2045,2045,2021
2036,2032,2055,2047,2035,2039,2048,2014
2036,2032,2050,2049,2031,2049,2062,2030
2043,2034,2046,2043,2033,2049,2042,2037
2037,2036,2045,2028,2026,2043,2020,2039
2036,2023,2035,2013,2012,2038,2025,2037
2038,2023,2026,2003,2015,2037,2018,2041
2054,2040,2038,2012,2012,2041,2040,2045
2049,2051,2049,2009,2018,2043,2049,2043
2049,2057,2059,2019,2029,2053,2048,2036
2050,2062,2063,2030,2039,2054,2054,2035
2054,2061,2056,2042,2049,2054,2039,2039
2044,2051,2045,2046,2058,2056,2044,2049
2041,2055,2054,2053,2051,2057,2046,2050
2049,2056,2053,2056,2051,2061,2060,2056
2055,2057,2052,2058,2048,2055,2066,2061
2055,2056,2057,2061,2051,2057,2040,2059
2047,2056,2062,2058,2046,2053,2037,2064
2049,2054,2067,2061,2028,2032,2036,2065
2053,2046,2069,2059,1996,2005,2013,2058
2054,2042,2076,2055,1981,1988,2020,2055
2050,2050,2081,2046,1972,1986,2010,2050
2044,2046,2075,2027,1972,1998,2022,2050
2038,2045,2081,2019,1986,2025,2012,2051
2038,2057,2076,2035,2018,2056,2051,2056
2043,2054,2073,2054,2056,2068,2064,2068
2052,2055,2069,2064,2078,2085,2076,2068
2061,2058,2076,2069,2092,2090,2065,2069
2055,2057,2060,2075,2082,2076,2058,2065
2055,2046,2042,2064,2067,2063,2045,2054
2050,2041,2036,2054,2055,2060,2046,2054
2043,2037,2027,2045,2053,2055,2040,2046
2050,2040,2029,2042,2043,2061,2069,2048
2045,2035,2028,2026,2029,2065,2069,2044
2044,2030,2012,2019,2029,2073,2064,2047
2041,2023,2003,2007,2018,2079,2060,2035
2042,2037,2010,2016,2017,2076,2065,2036
2048,2043,2019,2023,2013,2051,2057,2032
2049,2037,2027,2020,2006,2018,2055,2028
2054,2045,2044,2034,2004,2015,2064,2036
2062,2060,2075,2034,1987,2031,2057,2041
2043,2053,2073,2024,1997,2043,2050,2037
2042,2051,2064,2034,2020,2058,2050,2039
2044,2049,2073,2041,2022,2072,2063,2035
2052,2052,2077,2058,2020,2085,2061,2036
2068,2054,2081,2053,2013,2087,2062,2047
2066,2049,2085,2046,1992,2076,2024,2049
2054,2045,2073,2047,1997,2054,2045,2053
2057,2049,2090,2066,2042,2043,2056,2061
2059,2072,2104,2075,2067,2037,2054,2066
2064,2071,2093,2066,2061,2031,2048,2071
2055,2067,2069,2059,2081,2036,2057,2065
2056,2064,2068,2065,2100,2049,2053,2064
2046,2060,2064,2064,2103,2058,2055,2069
2044,2054,2052,2052,2067,2039,2054,2063
2035,2038,2029,2026,2040,2028,2036,2062
2035,2033,2020,2022,2028,2028,2050,2065
2046,2053,2031,2030,2029,2029,2059,2061
2054,2057,2043,2027,2038,2028,2059,2059
2052,2051,2040,2017,2034,2033,2052,2051
2050,2060,2048,2023,2045,2045,2047,2055
2058,2062,2048,2024,2047,2048,2048,2052
2052,2064,2045,2023,2053,2042,2050,2045
2057,2059,2047,2025,2069,2050,2057,2051
2061,2064,2049,2034,2065,2050,2050,2050
2057,2066,2052,2036,2059,2053,2036,2047
2052,2059,2046,2036,2055,2045,2063,2041
2050,2052,2051,2027,2037,2042,2064,2036
2044,2056,2062,2037,2044,2045,2044,2035
2059,2068,2074,2044,2038,2044,2056,2035
2066,2074,2083,2043,2034,2048,2050,2042
2063,2054,2072,2030,2023,2038,2041,2040
2054,2040,2056,2025,2020,2046,2015,2038
2035,2032,2057,2041,2028,2071,2039,2032
2037,2040,2062,2049,2032,2072,2053,2024
2030,2036,2059,2044,2028,2069,2051,2021
2030,2030,2048,2038,2029,2053,2037,2034
2036,2022,2026,2028,2026,2026,2032,2045
2035,2020,2032,2045,2054,2002,2022,2045
2046,2045,2066,2065,2079,2020,2040,2045
2069,2068,2084,2081,2083,2027,2027,2039
2067,2067,2083,2078,2070,2036,2050,2047
2052,2060,2082,2087,2069,2048,2056,2056
2035,2055,2085,2077,2064,2049,2043,2055
2036,2046,2081,2074,2061,2047,2033,2055
2040,2042,2060,2070,2055,2049,2024,2046
2036,2033,2048,2054,2049,2050,2030,2048
2035,2031,2035,2040,2057,2039,2023,2048
2032,2017,2029,2038,2055,2033,2015,2040
2025,2024,2026,2045,2057,2044,2044,2055
2032,2037,2032,2058,2062,2062,2059,2054
2044,2038,2029,2055,2060,2058,2062,2059
2045,2029,2005,2042,2052,2049,2053,2046
2037,2013,1976,2023,2045,2047,2055,2037
2033,2007,1966,2013,2043,2046,2050,2035
2031,2008,1975,2013,2048,2048,2053,2030
2029,2018,1994,2018,2046,2043,2059,2032
2030,2028,2000,2026,2052,2041,2042,2030
2026,2031,1999,2027,2060,2036,2050,2038
2038,2043,1996,2033,2059,2046,2055,2041
2053,2060,2006,2045,2075,2054,2059,2049
2059,2055,2005,2036,2066,2052,2064,2044
2057,2050,2002,2032,2053,2046,2059,2047
2059,2054,2029,2042,2057,2045,2057,2043
2054,2053,2034,2048,2044,2041,2045,2028
2054,2056,2041,2044,2036,2041,2042,2037
2069,2064,2032,2031,2020,2036,2062,2042
2068,2062,2025,2025,2011,2028,2047,2042
2061,2057,2023,2032,2008,2020,2045,2039
2062,2049,2020,2023,2016,2032,2052,2045
2066,2058,2029,2030,2051,2056,2056,2060
2064,2063,2047,2038,2070,2066,2061,2051
2059,2060,2047,2036,2072,2060,2059,2050
2055,2057,2046,2032,2063,2056,2064,2054
2054,2060,2059,2041,2071,2059,2060,2050
2053,2069,2094,2052,2065,2055,2044,2055
2058,2075,2110,2059,2061,2055,2051,2065
2058,2074,2103,2056,2060,2047,2060,2065
2053,2075,2095,2054,2055,2044,2050,2071
2054,2076,2096,2048,2049,2043,2060,2073
2055,2064,2092,2050,2051,2040,2040,2064
2052,2064,2101,2055,2053,2042,2037,2068
2056,2072,2111,2062,2059,2047,2032,2072
2060,2079,2106,2064,2061,2052,2035,2069
2061,2073,2106,2066,2059,2055,2042,2056
2055,2078,2109,2069,2052,2050,2043,2058
2061,2067,2101,2057,2040,2042,2057,2055
2058,2061,2086,2048,2029,2037,2034,2044
2057,2060,2081,2050,2029,2030,2012,2043
2058,2062,2088,2063,2047,2029,2045,2041
2054,2072,2096,2078,2058,2035,2015,2041
2056,2071,2103,2094,2070,2043,2035,2045
2052,2064,2099,2096,2072,2052,2036,2040
2050,2061,2097,2101,2071,2049,2057,2027
2053,2051,2081,2104,2064,2047,2064,2031
2052,2040,2063,2104,2061,2037,2054,2031
2047,2037,2048,2097,2058,2035,2029,2026
2034,2027,2028,2079,2059,2045,2013,2026
2043,2037,2024,2082,2067,2068,2036,2024
2052,2055,2032,2078,2070,2068,2047,2031
2049,2054,2021,2072,2047,2060,2046,2035
2050,2052,2011,2056,2037,2055,2048,2034
2052,2052,1998,2036,2028,2049,2049,2035
2048,2049,2002,2031,2018,2041,2045,2036
2042,2047,2013,2033,2039,2034,2048,2040
2053,2056,2051,2038,2050,2039,2048,2039
2047,2060,2067,2021,2061,2042,2045,2035
2034,2059,2065,2002,2061,2044,2033,2048
2034,2051,2055,2011,2059,2046,2064,2048
2030,2059,2058,2017,2049,2058,2059,2062
2045,2062,2054,2016,2058,2058,2060,2074
2046,2057,2043,2018,2047,2054,2050,2073
2052,2059,2043,2026,2056,2054,2018,2063
2048,2047,2035,2016,2029,2060,2037,2055
2046,2050,2035,2008,2006,2061,2050,2057
2051,2053,2041,2011,2006,2058,2037,2059
2051,2057,2060,2014,2013,2050,2022,2061
2054,2063,2057,2006,2010,2040,2036,2056
2053,2054,2050,2010,2027,2045,2042,2053
2052,2047,2054,2014,2032,2055,2052,2037
2044,2052,2056,2019,2044,2055,2047,2032
2048,2053,2060,2026,2067,2059,2062,2035
2049,2060,2062,2026,2086,2069,2072,2038
2048,2048,2051,2026,2074,2071,2064,2039
2051,2054,2056,2031,2069,2070,2062,2046
2053,2072,2064,2044,2071,2072,2061,2049
2060,2067,2065,2042,2072,2059,2061,2051
2052,2059,2049,2045,2059,2050,2030,2046
2058,2058,2049,2035,2037,2034,2034,2037
2053,2044,2042,2030,2014,2012,2023,2034
2050,2039,2037,2022,1988,2002,2046,2030
2054,2055,2045,2024,1991,1990,2035,2030
2046,2058,2036,2025,1998,1987,2029,2031
2045,2050,2033,2024,2017,2011,2039,2028
2054,2047,2040,2050,2073,2051,2062,2032
2057,2054,2047,2070,2106,2064,2054,2048
2055,2059,2051,2074,2125,2081,2053,2042
2057,2059,2049,2079,2128,2084,2056,2047
2054,2058,2056,2068,2109,2074,2036,2050
2044,2052,2047,2064,2107,2047,2024,2048
2040,2047,2043,2066,2131,2040,2044,2051
2040,2050,2044,2069,2153,2054,2035,2056
2046,2047,2047,2075,2167,2060,2053,2063
2055,2048,2043,2073,2157,2056,2054,2063
2053,2050,2044,2066,2137,2055,2033,2063
2036,2038,2046,2042,2112,2046,2034,2060
2030,2027,2033,2029,2085,2038,2043,2066
2040,2033,2028,2028,2064,2037,2039,2052
2043,2028,2021,2035,2008,2041,2037,2043
2045,2039,2028,2031,1917,2034,2035,2050
2044,2040,2034,2030,1935,2035,2043,2046
2048,2045,2032,2036,1973,2050,2041,2042
2040,2052,2031,2044,2005,2059,2046,2035
2050,2064,2032,2045,2025,2079,2060,2034
2056,2062,2028,2046,2027,2083,2064,2040
2059,2058,2007,2037,2032,2083,2066,2046
2057,2049,2002,2030,2010,2068,2055,2043
2059,2045,1989,2025,2012,2034,2035,2042
2056,2037,1993,2021,2027,2012,2045,2042
2066,2047,2006,2030,2066,2037,2044,2042
2058,2049,2004,2025,2074,2047,2054,2027
2047,2029,2005,2011,2069,2050,2051,2024
2036,2035,2023,2022,2030,2044,2054,2034
2040,2051,2040,2021,2014,2043,2038,2032
2037,2046,2026,2010,1988,2034,2044,2026
2031,2045,2033,2012,1963,2034,2040,2032
2038,2053,2047,2022,2015,2044,2036,2040
2044,2062,2067,2040,2082,2055,2041,2050
2047,2065,2072,2058,2113,2066,2046,2058
2051,2057,2069,2058,2099,2064,2034,2055
2058,2058,2058,2055,2077,2058,2062,2056
2047,2039,2045,2044,2063,2048,2045,2055
2035,2034,2043,2033,2052,2039,2043,2059
2029,2030,2047,2035,2055,2046,2060,2065
2044,2052,2067,2052,2061,2046,2057,2070
2056,2062,2071,2048,2058,2045,2062,2071
2049,2051,2058,2039,2046,2037,2053,2073
2042,2039,2049,2034,2031,2027,2049,2073
2041,2039,2047,2029,2024,2020,2039,2069
2034,2051,2050,2033,2012,2025,2049,2059
2036,2044,2042,2030,2010,2021,2056,2059
2033,2049,2042,2024,2013,2031,2021,2051
2037,2039,2037,2031,2016,2050,2027,2053
2051,2038,2042,2035,2021,2067,2033,2048
2054,2054,2060,2044,2015,2079,2051,2058
2058,2060,2060,2044,2007,2066,2052,2045
2050,2056,2050,2036,1993,2038,2031,2042
2061,2068,2058,2042,2008,2032,2032,2060
2085,2075,2066,2054,2030,2046,2055,2050
2073,2052,2054,2053,2050,2075,2060,2036
2056,2047,2048,2041,2065,2102,2067,2030
2039,2029,2037,2038,2120,2084,2065,2028
2050,2044,2041,2051,2125,2090,2049,2023
2047,2037,2031,2036,2061,2079,2040,2015
2040,2032,2032,2040,2023,2080,2046,2023
2052,2045,2055,2072,2071,2058,2047,2037
2061,2048,2072,2081,2094,2049,2046,2034
2060,2048,2073,2102,2111,2023,2058,2039
2060,2055,2087,2117,2137,2023,2059,2047
2050,2042,2070,2102,2118,2037,2032,2040
2044,2040,2059,2097,2098,2045,2052,2039
2044,2054,2065,2094,2097,2049,2059,2045
2050,2055,2071,2096,2088,2046,2039,2049
2052,2059,2066,2082,2037,2037,2041,2045
2048,2064,2063,2085,2056,2044,2047,2051
2051,2068,2062,2090,2067,2047,2055,2048
2049,2064,2051,2083,2063,2044,2043,2061
2044,2061,2045,2070,2057,2034,2040,2057
2046,2059,2027,2042,2024,2030,2034,2048
2034,2029,2005,2011,2018,2029,2023,2045
2027,2013,1985,1997,2016,2028,2029,2048
2018,2018,1982,1989,2007,2032,2038,2057
2022,2029,1990,2001,2003,2036,2053,2065
2041,2042,2000,2019,2019,2043,2051,2059
2045,2042,1998,2021,2024,2057,2058,2062
2054,2034,1986,2020,2026,2059,2064,2053
2046,2032,1981,2013,2017,2064,2058,2046
2040,2030,1984,2005,1996,2075,2046,2038
2039,2022,1994,1996,1987,2057,2034,2037
2039,2028,2001,1998,1980,2015,2023,2027
2035,2027,2015,1983,1968,2009,2029,2025
2030,2035,2035,1995,1968,1991,2027,2029
2039,2045,2048,2016,2000,1981,2028,2032
2054,2052,2056,2044,2050,2010,2042,2037
2058,2060,2060,2057,2080,2047,2068,2021
2044,2064,2062,2057,2081,2053,2045,2011
2044,2045,2048,2042,2073,2052,2040,2023
2040,2050,2049,2043,2098,2066,2064,2030
2048,2053,2068,2047,2119,2075,2050,2032
2051,2056,2076,2052,2117,2072,2053,2032
2047,2057,2077,2049,2091,2057,2072,2038
2054,2054,2063,2049,2054,2045,2045,2037
2045,2052,2058,2045,2035,2038,2023,2036
2059,2046,2053,2043,2024,2032,2035,2040
2051,2056,2059,2046,2036,2040,2044,2046
2056,2064,2076,2057,2064,2056,2059,2057
2056,2066,2080,2062,2075,2064,2070,2060
2055,2060,2066,2063,2072,2064,2078,2057
2040,2057,2058,2060,2073,2065,2068,2052
2045,2054,2055,2058,2059,2057,2061,2062
2051,2053,2058,2059,2064,2063,2072,2057
2044,2050,2050,2057,2070,2055,2064,2053
2039,2039,2042,2048,2065,2045,2048,2055
2040,2039,2038,2052,2082,2057,2044,2062
2052,2049,2045,2060,2073,2061,2063,2069
2056,2054,2049,2057,2067,2060,2065,2059
2056,2057,2047,2051,2056,2054,2057,2053
2051,2056,2037,2046,2050,2055,2062,2047
2050,2050,2020,2048,2042,2060,2065,2046
2049,2044,2014,2032,2023,2046,2060,2046
2050,2043,2007,2031,1999,2037,2054,2040
2038,2040,2007,2038,1993,2032,2038,2034
2038,2031,2009,2033,1987,2008,2054,2041
2039,2030,2012,2040,2006,1999,2035,2043
2043,2032,2022,2055,2035,2020,2054,2045
2058,2052,2035,2075,2079,2041,2058,2044
2055,2059,2042,2086,2109,2071,2066,2038
2052,2051,2041,2079,2110,2074,2070,2023
2038,2034,2027,2060,2094,2048,2060,2026
2036,2024,2025,2062,2075,2045,2059,2034
2042,2036,2019,2054,2063,2042,2054,2042
2042,2033,2012,2047,2061,2036,2055,2041
2041,2034,2028,2053,2054,2040,2046,2040
2043,2044,2041,2051,2057,2037,2052,2034
2049,2053,2056,2054,2062,2046,2066,2036
2049,2061,2062,2051,2064,2050,2068,2041
2049,2058,2064,2046,2061,2050,2058,2048
2054,2061,2076,2045,2067,2051,2054,2059
2048,2059,2071,2046,2068,2047,2068,2060
2049,2056,2056,2045,2069,2053,2067,2057
2054,2053,2038,2043,2067,2056,2051,2058
2054,2050,2030,2037,2062,2059,2047,2061
2051,2042,2024,2040,2060,2053,2033,2055
2050,2035,2031,2043,2043,2033,2033,2046
2031,2021,2054,2046,2038,2022,2029,2048
2031,2030,2078,2056,2041,2027,2035,2063
2038,2051,2108,2079,2046,2034,2052,2061
2039,2067,2117,2080,2050,2041,2035,2062
2046,2062,2103,2076,2048,2041,2041,2059
2049,2065,2093,2081,2049,2043,2051,2063
2055,2064,2076,2080,2049,2042,2043,2061
2058,2063,2066,2077,2032,2038,2028,2051
2064,2056,2057,2077,2016,2023,2043,2044
2059,2053,2045,2068,2006,2019,2042,2036
2052,2048,2039,2051,2000,2015,2051,2031
2041,2040,2028,2028,1994,2018,2036,2024
2037,2036,2019,2021,2018,2039,2042,2029
2045,2047,2035,2051,2065,2064,2054,2039
2051,2060,2051,2060,2080,2069,2053,2049
2054,2052,2031,2039,2077,2060,2040,2034
2032,2034,2016,2018,2059,2069,2044,2035
2040,2042,2014,2015,2038,2072,2052,2037
2046,2048,2025,2024,2020,2069,2046,2045
2044,2032,2017,2018,2003,2057,2039,2032
2028,2022,2014,2019,2008,2036,2029,2032
2034,2025,2027,2042,2044,2026,2036,2039
2054,2051,2057,2070,2081,2052,2041,2049
2057,2058,2058,2072,2087,2068,2032,2050
2064,2062,2055,2069,2090,2071,2050,2059
2053,2056,2044,2064,2085,2077,2059,2056
2052,2050,2051,2074,2079,2073,2063,2059
2043,2049,2057,2078,2085,2071,2054,2064
2043,2050,2064,2078,2083,2064,2038,2060
2040,2044,2063,2080,2087,2060,2032,2060
2043,2048,2072,2081,2088,2067,2020,2068
2052,2059,2068,2086,2085,2054,2021,2064
2049,2051,2058,2071,2061,2035,2021,2064
2043,2044,2040,2067,2058,2049,2050,2070
2047,2048,2037,2066,2058,2060,2044,2060
2043,2040,2024,2058,2060,2055,2055,2058
2042,2039,2021,2046,2045,2042,2031,2056
2044,2038,2020,2042,2046,2039,2022,2059
2050,2044,2028,2046,2041,2041,2049,2060
2054,2056,2039,2058,2046,2037,2049,2054
2063,2062,2042,2047,2033,2042,2046,2041
2057,2055,2030,2022,2029,2047,2039,2036
2049,2051,2025,2016,2024,2049,2054,2035
2047,2052,2020,2018,2020,2040,2041,2041
2054,2051,2030,2031,2017,2020,2029,2039
2051,2055,2039,2043,2023,2019,2034,2038
2056,2067,2054,2047,2030,2037,2039,2030
2053,2062,2051,2041,2012,2079,2029,2019
2039,2043,2027,2016,1972,2097,2020,2018
2034,2033,2017,1993,1949,2103,2031,2022
2037,2040,2026,1997,1957,2114,2028,2022
2046,2041,2028,1991,1950,2084,2002,2026
2048,2051,2035,2010,2000,2008,2024,2052
2062,2065,2053,2047,2077,2002,2029,2057
2059,2056,2047,2047,2077,2041,2038,2045
2043,2042,2034,2040,2056,2036,2050,2039
2036,2037,2036,2041,2063,2049,2043,2049
2043,2047,2039,2042,2065,2062,2038,2041
2047,2047,2034,2042,2042,2049,2038,2050
2051,2051,2034,2045,2066,2029,2041,2059
2052,2050,2030,2042,2089,2053,2050,2062
2054,2053,2029,2038,2070,2069,2048,2073
2049,2049,2027,2036,2034,2088,2065,2084
2058,2050,2022,2038,2037,2082,2046,2083
2054,2042,2017,2038,2033,2012,2037,2076
2058,2040,2028,2057,2068,1952,2054,2089
2061,2049,2038,2074,2108,2001,2078,2073
2046,2040,2031,2067,2102,2042,2082,2073
2045,2044,2033,2065,2057,2055,2082,2082
2055,2052,2037,2052,1976,2037,2072,2088
2064,2056,2039,2059,2007,2030,2053,2083
2069,2056,2045,2070,2060,2038,2061,2063
2064,2052,2048,2072,2095,2039,2044,2042
2052,2040,2039,2059,2098,2042,2001,2018
2038,2031,2038,2039,2074,2037,1999,2015
2044,2034,2047,2035,2052,2053,2021,2021
2049,2043,2054,2024,1995,2058,2008,2030
2054,2050,2051,2010,1901,2032,1978,2029
2047,2046,2039,1996,1870,1998,1988,2011
2037,2037,2029,1992,1919,1960,1981,2007
2031,2026,2017,2013,1986,1928,1999,2006
2023,2014,2028,2030,2054,1982,2010,2014
2024,2028,2037,2052,2082,2044,2029,2032
2044,2051,2056,2066,2099,2091,2050,2052
2063,2063,2060,2076,2112,2098,2083,2064
2064,2061,2049,2070,2123,2104,2096,2068
2066,2055,2043,2063,2101,2095,2084,2062
2054,2052,2044,2036,2045,2068,2061,2050
2049,2048,2044,2034,2061,2073,2047,2039
2040,2042,2044,2046,2085,2088,2058,2051
2043,2047,2043,2050,2092,2099,2040,2060
2045,2050,2042,2052,2080,2096,2047,2064
2053,2046,2040,2051,2072,2092,2057,2061
2050,2045,2044,2054,2062,2084,2054,2054
2044,2045,2046,2049,2051,2077,2046,2062
2051,2043,2042,2036,2022,2070,2044,2051
2044,2034,2035,2026,1994,2048,2020,2051
2034,2036,2032,2024,1976,2049,2022,2056
2031,2038,2032,2029,1956,2068,2028,2050
2034,2045,2037,2020,1928,2041,2029,2051
2034,2041,2034,2022,1935,2006,2034,2057
2047,2051,2045,2046,1998,2000,2036,2069
2053,2056,2058,2065,2030,2009,2040,2060
2060,2056,2055,2066,2066,2029,2056,2053
2070,2052,2050,2072,2105,2068,2058,2058
2077,2057,2049,2070,2118,2078,2057,2059
2082,2057,2046,2065,2093,2074,2046,2054
2077,2041,2036,2058,2081,2059,2064,2040
2064,2036,2037,2054,2081,2047,2034,2025
2060,2034,2031,2055,2075,2034,2020,2025
2049,2032,2032,2049,2081,2019,2035,2022
2034,2031,2034,2054,2091,2022,2048,2030
2039,2041,2036,2057,2094,2029,2054,2036
2040,2037,2037,2052,2090,2038,2045,2031
2041,2043,2044,2060,2079,2061,2056,2038
2053,2047,2044,2049,2069,2082,2046,2034
2038,2048,2043,2051,2060,2087,2039,2030
2039,2049,2042,2048,2046,2087,2036,2045
2045,2044,2040,2048,2038,2061,2033,2051
2049,2046,2046,2044,2036,2021,2014,2054
2049,2039,2045,2043,2039,2038,2042,2052
2048,2044,2047,2050,2041,2062,2042,2050
2037,2044,2043,2048,2041,2076,2057,2035
2030,2040,2032,2035,2028,2074,2071,2033
2032,2035,2036,2034,2016,2070,2029,2050
2042,2038,2031,2033,2020,2072,2056,2052
2040,2033,2029,2035,2046,2049,2044,2054
2043,2042,2028,2042,2063,2003,2048,2066
2043,2039,2029,2036,2051,1990,2029,2063
2041,2031,2025,2036,2067,1997,2045,2063
2037,2033,2030,2026,2067,2020,2039,2055
2039,2035,2026,2041,2090,2039,2054,2065
2054,2044,2041,2063,2129,2053,2059,2060
2059,2046,2036,2060,2130,2068,2049,2058
2059,2055,2040,2058,2132,2076,2059,2057
2060,2045,2029,2054,2100,2058,2034,2045
2056,2044,2031,2041,2089,2040,2056,2026
2035,2037,2030,2038,2082,2042,2015,2023
2036,2039,2029,2033,2013,2035,2018,2028
2038,2034,2030,2031,1987,2036,2036,2029
2044,2040,2037,2034,2008,2039,2044,2030
2048,2043,2045,2042,2022,2044,2044,2028
2054,2047,2039,2041,2034,2042,2039,2027
2050,2046,2035,2040,2046,2048,2024,2030
2056,2046,2032,2041,2042,2040,2019,2027
2042,2037,2035,2041,2046,2049,2026,2033
2037,2046,2035,2048,2057,2056,2049,2041
2041,2054,2044,2048,2058,2068,2066,2045
2056,2063,2053,2050,2056,2076,2047,2047
2057,2069,2052,2050,2050,2052,2034,2046
2051,2061,2045,2050,2048,2040,2049,2050
2060,2056,2043,2050,2051,2038,2051,2052
2059,2052,2046,2049,2057,2043,2044,2057
2053,2050,2047,2052,2059,2043,2037,2065
2058,2052,2044,2052,2052,2039,2048,2064
2060,2052,2036,2048,2054,2041,2061,2069
2051,2044,2032,2042,2049,2046,2038,2061
2050,2047,2040,2039,2041,2044,2050,2054
2036,2043,2042,2041,2042,2044,2037,2050
2028,2042,2045,2044,2050,2051,2057,2052
2036,2034,2036,2038,2040,2039,2050,2052
2036,2024,2024,2031,2039,2046,2045,2055
2043,2028,2037,2045,2051,2054,2052,2064
2052,2039,2038,2043,2051,2061,2069,2061
2048,2043,2036,2040,2048,2074,2073,2063
2046,2043,2040,2041,2056,2075,2061,2057
2049,2045,2043,2041,2057,2070,2061,2047
2047,2040,2036,2042,2040,2061,2068,2044
2045,2039,2031,2040,2051,2065,2044,2034
2042,2032,2028,2032,2048,2077,2044,2034
2054,2032,2022,2024,2033,2092,2055,2031
2049,2041,2025,2028,2038,2090,2063,2033
2044,2037,2028,2024,2027,2091,2063,2030
2036,2044,2027,2026,2031,2048,2065,2040
2042,2039,2037,2047,2056,2015,2062,2058
2063,2050,2046,2060,2071,2033,2094,2058
2063,2057,2049,2054,2062,2038,2066,2046
2053,2048,2049,2054,2053,2054,2057,2040
2049,2046,2049,2055,2066,2053,2065,2034
2050,2050,2050,2056,2060,2037,2044,2029
2043,2044,2046,2049,2041,2036,2046,2030
2039,2035,2037,2041,2016,2043,2040,2033
2037,2030,2043,2037,2018,2044,2047,2038
2042,2043,2045,2041,2039,2040,2054,2044
2048,2051,2053,2054,2051,2044,2062,2046
2054,2053,2055,2059,2057,2052,2070,2049
2052,2051,2057,2055,2052,2047,2041,2054
2055,2047,2051,2057,2051,2034,2056,2056
2052,2045,2051,2055,2057,2023,2054,2056
2047,2043,2050,2052,2048,2024,2060,2058
2045,2048,2051,2049,2043,2030,2060,2064
2047,2046,2050,2049,2031,2038,2059,2069
2044,2037,2042,2035,2022,2033,2068,2076
2043,2031,2041,2030,2030,2036,2058,2072
2051,2042,2048,2044,2032,2036,2058,2077
2058,2050,2050,2040,2012,2027,2043,2070
2060,2055,2047,2044,2037,2042,2042,2071
2058,2048,2040,2049,2066,2042,2040,2070
2059,2047,2049,2046,2071,2038,2029,2062
2066,2052,2049,2056,2059,2030,2017,2059
2064,2052,2051,2059,2052,2026,2010,2052
2060,2050,2052,2074,2073,2029,1993,2047
2050,2047,2048,2071,2079,2031,1986,2033
2050,2043,2051,2050,2056,2041,1974,2027
2047,2049,2047,2038,2062,2040,1969,2020
2041,2048,2039,2037,2089,2056,1949,2021
2043,2040,2042,2036,2102,2058,2000,2020
2045,2035,2033,2028,2097,2034,2024,2021
2046,2035,2029,2025,2100,2021,2029,2014
2044,2045,2046,2046,2084,2033,2029,2032
2058,2069,2063,2060,2053,2068,2061,2042
2059,2070,2069,2062,1994,2067,2028,2036
2055,2066,2072,2062,2030,2064,2037,2032
2044,2059,2061,2052,2038,2085,2061,2027
2043,2055,2058,2042,1999,2089,2071,2032
2046,2046,2053,2039,2000,2059,2066,2038
2045,2051,2057,2035,2008,2043,2063,2042
2056,2045,2053,2042,2007,2052,2053,2045
2044,2042,2049,2044,2007,2056,2065,2039
2029,2043,2037,2035,2009,2058,2047,2040
2039,2045,2042,2038,2048,2072,2053,2054
2050,2043,2047,2053,2083,2090,2060,2064
2059,2048,2049,2069,2119,2113,2089,2072
2062,2053,2054,2074,2140,2116,2075,2068
2046,2033,2040,2060,2116,2089,2056,2058
2033,2021,2028,2048,2081,2080,2062,2063
2031,2031,2033,2042,2056,2075,2065,2061
2036,2038,2033,2037,2039,2087,2063,2053
2036,2040,2038,2042,2034,2104,2062,2046
2046,2053,2045,2047,2031,2102,2052,2046
2053,2060,2047,2052,2022,2075,2029,2049
2055,2063,2053,2067,2059,2014,2035,2062
2067,2060,2055,2075,2094,2006,2037,2051
2057,2055,2048,2069,2097,2040,2044,2042
2050,2045,2041,2064,2067,2044,2048,2040
2052,2046,2043,2061,2038,2032,2051,2038
2039,2042,2039,2052,2023,2034,2064,2029
2038,2034,2042,2050,2029,2040,2076,2029
2043,2036,2044,2046,2011,2037,2057,2033
2048,2045,2043,2035,1991,2043,2075,2034
2050,2051,2049,2031,1987,2057,2054,2028
2043,2047,2047,2031,1963,2040,2050,2028
2050,2046,2042,2034,1966,2042,2048,2028
2044,2043,2041,2034,1969,2028,2034,2029
2049,2047,2046,2039,2009,2015,2041,2042
2056,2046,2053,2065,2078,2054,2071,2062
2064,2052,2064,2077,2132,2120,2092,2065
2067,2059,2063,2087,2160,2157,2086,2073
2066,2052,2061,2085,2156,2150,2068,2067
2061,2052,2052,2077,2132,2108,2066,2052
2053,2047,2052,2074,2106,2078,2073,2052
2045,2044,2053,2071,2093,2087,2066,2043
2037,2045,2056,2057,2075,2089,2054,2052
2039,2046,2050,2042,2037,2089,2058,2054
2036,2045,2049,2036,2031,2088,2066,2061
2048,2044,2040,2037,2054,2081,2079,2064
2042,2034,2034,2029,2046,2040,2066,2056
2036,2027,2032,2031,2036,2017,2077,2062
2038,2031,2042,2038,2035,2004,2071,2068
2046,2039,2042,2045,2043,1995,2065,2057
2039,2040,2046,2044,2046,1994,2068,2051
2044,2036,2040,2042,2036,1981,2069,2057
2051,2034,2033,2039,2020,1985,2037,2058
2045,2052,2047,2047,2021,1989,2057,2060
2056,2060,2060,2051,2022,1988,2055,2059
2045,2051,2048,2047,2024,1995,2069,2054
2038,2050,2035,2042,2039,2032,2063,2047
2040,2041,2035,2050,2048,2057,2073,2045
2039,2038,2036,2038,2044,2058,2075,2042
2038,2037,2031,2034,2039,2060,2070,2035
2044,2031,2028,2036,2060,2077,2064,2037
2045,2029,2024,2034,2056,2089,2063,2032
2048,2035,2022,2033,2048,2080,2046,2022
2037,2026,2020,2027,2043,2064,2035,2031
2039,2030,2020,2033,2053,2069,2064,2039
2048,2036,2022,2035,2050,2060,2063,2055
2049,2043,2027,2036,2048,2055,2072,2046
2052,2047,2033,2034,2038,2021,2078,2045
2045,2047,2027,2024,2028,2007,2056,2043
2040,2045,2032,2023,2016,2006,2064,2050
2048,2051,2037,2025,2016,2005,2058,2050
2050,2054,2037,2022,2010,2010,2058,2056
2049,2057,2037,2021,2008,2008,2053,2056
2043,2050,2037,2013,2009,2003,2048,2046
2035,2046,2029,2010,2021,2019,2037,2051
2037,2047,2037,2029,2052,2042,2059,2052
2047,2051,2044,2044,2061,2052,2060,2061
2042,2049,2044,2046,2066,2024,2046,2060
2038,2056,2050,2052,2058,1995,2034,2056
2027,2044,2044,2057,2046,2011,2040,2055
2035,2042,2057,2053,2013,2043,2036,2053
2044,2050,2064,2042,1985,2053,2049,2054
2044,2052,2062,2041,1981,2064,2031,2049
2029,2047,2061,2036,1964,2065,2037,2042
2026,2046,2060,2025,1971,2055,2022,2049
2041,2062,2072,2053,2048,2056,2058,2066
2058,2070,2085,2072,2091,2069,2049,2058
2053,2064,2081,2071,2091,2084,2056,2049
2049,2056,2078,2067,2096,2088,2073,2045
2043,2054,2074,2066,2100,2093,2065,2047
2045,2059,2074,2066,2100,2081,2079,2056
2054,2054,2065,2064,2104,2085,2070,2055
2061,2054,2056,2059,2104,2101,2066,2047
2058,2053,2056,2054,2097,2104,2066,2043
2060,2055,2052,2061,2095,2112,2056,2038
2049,2049,2050,2054,2097,2095,2039,2034
2049,2046,2046,2054,2104,2066,2018,2032
2059,2059,2052,2060,2093,2029,2041,2032
2045,2046,2048,2047,2076,2046,2066,2029
2048,2046,2048,2044,2063,2062,2054,2033
2054,2045,2052,2045,2058,2069,2042,2037
2047,2045,2050,2048,2061,2071,2040,2046
2046,2050,2056,2051,2056,2075,2042,2055
2049,2062,2060,2061,2048,2059,2028,2061
2060,2063,2066,2050,2030,2024,2022,2054
2061,2062,2071,2052,2024,1952,2027,2064
2061,2061,2061,2056,2035,1958,2051,2070
2051,2050,2056,2059,2044,2006,2058,2070
2046,2046,2053,2059,2055,2045,2054,2072
2051,2039,2052,2054,2063,2072,2062,2078
2059,2043,2045,2054,2062,2074,2035,2075
2050,2025,2035,2042,2049,2068,2034,2067
2044,2022,2029,2040,2049,2087,2051,2057
2042,2029,2035,2042,2060,2093,2047,2049
2039,2039,2041,2050,2078,2096,2067,2056
2042,2045,2045,2058,2080,2084,2070,2058
2044,2048,2044,2056,2066,2083,2076,2055
2040,2045,2046,2056,2060,2076,2062,2048
2050,2050,2055,2053,2053,2080,2053,2051
2049,2049,2050,2054,2044,2083,2074,2054
2055,2051,2053,2056,2042,2098,2086,2055
2053,2052,2044,2052,2045,2087,2067,2045
2056,2051,2049,2054,2033,2069,2059,2040
2051,2049,2051,2046,2009,2060,2045,2031
2043,2041,2045,2042,2000,2068,2034,2032
2041,2042,2039,2045,2010,2087,2031,2036
2052,2038,2044,2054,2018,2082,2037,2036
2046,2023,2039,2051,2030,2082,1996,2033
2040,2020,2032,2050,2051,2107,2019,2031
2051,2043,2048,2060,2116,2125,2032,2037
2051,2048,2051,2064,2124,2111,2047,2043
2050,2043,2046,2056,2102,2100,2044,2045
2046,2041,2052,2055,2083,2055,2036,2045
2048,2048,2052,2057,2072,1999,2012,2039
2049,2046,2052,2047,2035,1941,2007,2042
2046,2046,2048,2040,2002,1921,2013,2047
2054,2045,2055,2041,1996,1940,2030,2047
2050,2040,2051,2029,1994,1970,2031,2038
2035,2030,2037,2018,1995,2020,2033,2043
2032,2034,2046,2046,2050,2087,2038,2056
2044,2046,2050,2058,2077,2100,2052,2061
2049,2044,2046,2049,2074,2059,2037,2061
2042,2035,2033,2045,2070,2051,2036,2061
2038,2029,2030,2038,2057,2028,2024,2054
2035,2023,2028,2041,2061,1992,2025,2058
2038,2024,2027,2041,2057,1993,2024,2055
2028,2019,2019,2028,2020,1982,2011,2039
2031,2017,2020,2022,2005,1982,2015,2044
2032,2023,2020,2022,1984,1981,2017,2043
2036,2035,2026,2024,1987,1983,2023,2045
2038,2044,2034,2025,1999,1991,2020,2040
2040,2045,2029,2016,2017,1999,2043,2037
2046,2045,2034,2026,2052,2040,2044,2050
2054,2059,2051,2047,2089,2059,2059,2049
2059,2065,2062,2066,2115,2072,2073,2050
2056,2062,2061,2067,2119,2084,2062,2050
2060,2064,2065,2062,2102,2091,2055,2048
2053,2063,2059,2051,2076,2095,2045,2053
2058,2060,2054,2042,2048,2086,2032,2061
2060,2064,2056,2034,2047,2101,2043,2057
2060,2063,2053,2043,2046,2130,2037,2052
2059,2059,2054,2043,2071,2167,2050,2044
2051,2058,2058,2047,2094,2184,2066,2037
2046,2053,2054,2045,2111,2183,2086,2037
2047,2052,2051,2040,2124,2101,2072,2035
2046,2044,2044,2038,2082,2009,2054,2036
2047,2043,2043,2037,2076,1992,2054,2041
2052,2040,2040,2042,2126,2001,2066,2061
2061,2043,2044,2055,2162,2010,2069,2064
2064,2044,2053,2068,2167,2015,2069,2064
2068,2054,2064,2074,2076,2035,2072,2063
2058,2055,2066,2067,1996,2059,2053,2052
2051,2049,2056,2062,2030,2070,2062,2051
2045,2049,2053,2052,2041,2101,2063,2059
2053,2044,2056,2024,1961,2068,2042,2057
2047,2041,2048,2004,1926,2035,2030,2057
2048,2044,2042,2007,1969,2034,2000,2054
2050,2051,2047,2008,1995,2053,2011,2059
2050,2055,2049,2022,2039,2050,2020,2051
2038,2054,2058,2036,2073,2066,2038,2049
2036,2053,2056,2039,2079,2081,2024,2045
2037,2047,2049,2026,2035,2063,2037,2047
2044,2056,2045,2021,2021,2027,2043,2044
2043,2051,2047,2024,2036,1991,2053,2041
2047,2047,2048,2027,2044,2004,2060,2032
2034,2036,2041,2024,2064,2004,2071,2031
2045,2030,2039,2037,2078,2010,2057,2028
2042,2027,2032,2044,2097,2026,2049,2024
2040,2026,2029,2047,2089,2032,2056,2037
2046,2038,2035,2045,2070,2022,2043,2034
2048,2032,2034,2038,2049,2025,2045,2037
2046,2032,2030,2031,2040,2022,2050,2028
2050,2041,2034,2032,2043,2043,2050,2021
2043,2029,2035,2032,2072,2064,2071,2021
2039,2030,2042,2044,2088,2063,2062,2030
2045,2045,2047,2045,2088,2058,2068,2028
2047,2046,2042,2047,2087,2045,2060,2032
2056,2044,2040,2046,2071,2024,2053,2041
2055,2053,2043,2044,2071,2037,2045,2053
2056,2054,2046,2040,2054,2038,2059,2057
2056,2047,2037,2032,2014,2058,2045,2049
2057,2040,2036,2017,1952,2059,2047,2041
2058,2039,2036,2016,1931,2058,2042,2042
2050,2042,2034,2012,1925,2043,2033,2057
2051,2040,2030,2004,1930,2002,2028,2074
2058,2042,2036,2023,1987,1948,2029,2088
2061,2051,2043,2061,2114,1986,2040,2084
2063,2050,2047,2075,2173,2031,2042,2081
2057,2047,2040,2078,2168,2036,2042,2083
2044,2037,2031,2069,2142,2027,2038,2069
2041,2038,2027,2051,2103,2009,2004,2062
2041,2035,2026,2047,2065,2000,2014,2054
2044,2037,2027,2039,2039,2000,2030,2054
2048,2039,2037,2035,2031,2019,2035,2060
2041,2043,2034,2033,2013,2046,2049,2052
2045,2039,2035,2012,1988,2052,2039,2045
2042,2038,2027,2009,2004,2082,2044,2043
2047,2045,2036,2033,2035,2105,2068,2042
2051,2044,2038,2034,2011,2107,2064,2036
2047,2041,2037,2024,1993,2111,2053,2042
2040,2031,2029,2017,1980,2078,2045,2037
2036,2022,2019,2011,1964,2052,2043,2034
2032,2031,2031,2028,2002,2030,2054,2038
2042,2050,2055,2041,2045,2048,2054,2043
2049,2056,2056,2042,2075,2071,2033,2029
2046,2047,2057,2048,2084,2053,2044,2031
2034,2047,2052,2048,2094,2006,2003,2024
2038,2048,2058,2047,2076,2025,2001,2036
2044,2054,2054,2043,2056,2025,1990,2039
2049,2058,2046,2035,2023,2026,2009,2042
2052,2057,2034,2026,2017,2040,2029,2041
2054,2049,2031,2025,2033,2053,2034,2034
2044,2041,2028,2038,2081,2109,2049,2041
2049,2049,2039,2054,2100,2107,2050,2040
2050,2053,2048,2062,2091,2061,2036,2037
2043,2051,2046,2051,2082,2024,2040,2044
2046,2054,2054,2059,2073,2027,2030,2051
2041,2057,2056,2058,2074,2032,2036,2060
2039,2053,2051,2056,2071,2031,2045,2071
2046,2048,2044,2057,2080,2038,2043,2069
2057,2051,2041,2052,2071,2049,2053,2073
2058,2049,2043,2050,2040,2048,2052,2070
2052,2042,2032,2045,2048,2054,2050,2060
2043,2035,2032,2053,2070,2068,2050,2067
2044,2060,2043,2051,2068,2058,2055,2068
2044,2059,2039,2044,2068,2054,2042,2063
2042,2045,2028,2037,2062,2049,2047,2055
2038,2038,2037,2035,2069,2050,2023,2037
2042,2046,2039,2031,2071,2057,2039,2037
2042,2056,2045,2035,2069,2061,2060,2042
2045,2058,2042,2029,2071,2065,2066,2040
2045,2051,2031,2020,2066,2071,2055,2036
2039,2044,2019,2010,2052,2071,2036,2028
2034,2031,2004,1994,2026,2061,2026,2023
2036,2028,2009,1982,2025,2063,2027,2016
2033,2032,2018,1991,2031,2070,2038,2027
2041,2039,2028,2006,2047,2051,2044,2042
2046,2048,2041,2020,2058,2047,2044,2045
2048,2055,2039,2022,2049,2050,2043,2036
2048,2049,2047,2027,2052,2053,2050,2037
2053,2060,2051,2032,2046,2060,2067,2039
2067,2065,2058,2041,2046,2064,2069,2042
2064,2064,2053,2041,2025,2066,2064,2045
2060,2054,2046,2034,2013,2050,2068,2037
2056,2044,2045,2026,2059,2042,2066,2038
2052,2037,2040,2034,2085,2045,2060,2051
2048,2043,2044,2045,2097,2052,2067,2046
2046,2038,2042,2046,2120,2052,2048,2035
2037,2032,2040,2041,2092,2042,2053,2033
2030,2027,2040,2027,2037,2048,2061,2042
2023,2024,2038,2017,2014,2060,2041,2051
2036,2029,2045,2016,1996,2065,2034,2056
2043,2036,2051,2016,2003,2069,2028,2069
2058,2048,2061,2034,2043,2074,2021,2078
2060,2058,2062,2045,2087,2081,2029,2082
2058,2059,2063,2060,2124,2101,2056,2085
2065,2063,2070,2057,2121,2112,2065,2078
2054,2059,2061,2044,2091,2090,2058,2071
2048,2054,2054,2037,2061,2068,2068,2057
2048,2051,2051,2031,2045,2043,2056,2052
2053,2060,2059,2046,2047,1992,2048,2050
2057,2069,2058,2050,2068,1983,2068,2050
2058,2063,2056,2055,2077,2009,2055,2042
2052,2056,2048,2053,2072,2024,2044,2029
2050,2056,2051,2047,2057,2041,2033,2032
2054,2055,2051,2041,2051,2061,2017,2030
2044,2057,2042,2033,2052,2086,2026,2037
2046,2052,2044,2038,2045,2102,2050,2027
2047,2049,2038,2027,2048,2118,2047,2022
2046,2045,2040,2036,2057,2091,2064,2021
2049,2045,2046,2043,2054,1994,2037,2018
2040,2038,2036,2041,2050,1990,2025,2022
2036,2032,2035,2041,2056,2050,2053,2029
2039,2036,2031,2037,2064,2057,2032,2032
2041,2040,2033,2042,2062,2039,2041,2035
2042,2044,2041,2056,2072,2034,2038,2042
2046,2045,2041,2052,2072,2057,2032,2036
2044,2038,2034,2042,2061,2078,2028,2026
2035,2038,2035,2034,2041,2089,2030,2023
2031,2036,2035,2023,1994,2072,2040,2023
2033,2036,2034,2020,1970,2051,2044,2031
2046,2033,2033,2020,1979,2028,2043,2048
2043,2039,2033,2023,2001,1997,2039,2051
2038,2027,2028,2021,2033,2005,2033,2055
2045,2036,2030,2036,2081,2044,2054,2059
2049,2040,2038,2058,2118,2068,2066,2066
2046,2041,2043,2064,2107,2067,2052,2056
2036,2033,2039,2050,2069,2065,2034,2045
2026,2036,2043,2036,2027,2059,2047,2052
2036,2050,2047,2041,2025,2071,2038,2055
2046,2046,2044,2030,2004,2068,2042,2049
2047,2043,2037,2022,1958,2032,2048,2051
2046,2044,2037,2022,1992,2012,2056,2065
2053,2056,2054,2038,2077,2027,2071,2049
2051,2066,2069,2055,2108,2052,2067,2042
2051,2067,2072,2055,2127,2069,2061,2043
2053,2059,2067,2054,2145,2060,2053,2040
2049,2050,2064,2050,2130,2038,2058,2036
2050,2050,2056,2045,2108,2028,2052,2035
2051,2050,2055,2050,2146,2031,2049,2032
2053,2057,2057,2062,2169,2023,2045,2036
2052,2055,2059,2060,2146,2023,2054,2029
2049,2053,2055,2058,2121,2041,2047,2026
2036,2043,2052,2054,2094,2060,2040,2022
2036,2045,2047,2057,2030,2061,2042,2033
2050,2047,2047,2043,1952,2069,2063,2033
2048,2048,2039,2038,1938,2061,2045,2029
2037,2048,2037,2029,1988,2063,2054,2028
2041,2051,2046,2041,2038,2077,2041,2031
2046,2050,2045,2042,2052,2079,2051,2029
2049,2054,2047,2050,2056,2065,2047,2041
2053,2058,2055,2059,2058,2074,2059,2043
2058,2061,2057,2056,2060,2063,2068,2053
2057,2056,2054,2055,2058,2063,2061,2053
2050,2055,2058,2050,2054,2049,2058,2060
2048,2056,2057,2052,2047,2039,2057,2058
2050,2058,2064,2052,2054,2027,2061,2056
2052,2059,2058,2062,2058,2032,2058,2057
2050,2057,2060,2058,2061,2038,2060,2061
2052,2057,2057,2049,2053,2027,2049,2056
2041,2048,2048,2043,2043,2022,2047,2053
2041,2052,2056,2044,2049,2034,2034,2059
2044,2058,2051,2042,2042,2037,2030,2055
2041,2051,2045,2046,2028,2031,2053,2050
2046,2047,2043,2039,2017,2030,2046,2044
2039,2044,2040,2031,1986,2054,2021,2025
2041,2039,2034,2018,1947,2066,2030,2023
2039,2036,2030,2013,1935,2072,2028,2028
2041,2038,2026,2011,1927,2060,2026,2018
2043,2035,2029,2011,1931,1998,2041,2026
2046,2046,2028,2038,2002,1966,2052,2028
2045,2039,2026,2047,2065,2004,2073,2025
2038,2032,2019,2049,2060,2033,2063,2017
2037,2037,2026,2043,2060,2040,2049,2022
2044,2047,2036,2046,2052,2041,2046,2021
2046,2042,2031,2034,2033,2040,2040,2011
2034,2028,2018,2029,2024,2040,2035,2020
2040,2031,2028,2046,2042,2051,2062,2031
2051,2036,2036,2055,2038,2044,2066,2037
2062,2044,2041,2050,2053,2037,2039,2036
2059,2044,2044,2048,2074,2028,2047,2038
2052,2039,2049,2057,2134,2053,2058,2032
2055,2043,2059,2064,2140,2065,2040,2039
2045,2044,2054,2060,2101,2062,2045,2046
2050,2058,2059,2056,2094,2078,2062,2041
2036,2054,2056,2054,2089,2082,2075,2047
2030,2050,2060,2047,2080,2062,2047,2045
2041,2051,2064,2053,2075,2060,2052,2047
2043,2053,2060,2059,2077,2067,2059,2052
2038,2050,2055,2055,2077,2072,2055,2050
2025,2045,2042,2050,2070,2064,2058,2063
2025,2045,2042,2044,2061,2065,2055,2052
2035,2044,2046,2046,2049,2034,2040,2049
2038,2040,2056,2052,2051,1979,2039,2073
2048,2054,2057,2054,2057,1982,2044,2068
2048,2049,2066,2057,2059,1998,2061,2056
2050,2058,2061,2060,2074,2021,2033,2039
2050,2055,2059,2058,2082,2070,2039,2031
2053,2050,2058,2049,2071,2116,2036,2029
2051,2043,2055,2053,2064,2128,2034,2030
2035,2034,2045,2045,2062,2108,2047,2019
2032,2045,2044,2050,2073,2103,2046,2022
2038,2049,2050,2056,2071,2069,2039,2026
2043,2057,2056,2054,2064,2019,2052,2027
2045,2057,2056,2050,2074,2030,2041,2026
2049,2056,2056,2060,2081,2053,2050,2029
2045,2052,2054,2059,2071,2052,2047,2021
2046,2050,2042,2055,2064,2041,2038,2013
2037,2037,2033,2040,2054,2037,2019,2013
2038,2034,2039,2048,2065,2045,2028,2018
2050,2057,2047,2053,2063,2047,2027,2027
2048,2052,2049,2043,2057,2044,2030,2037
2052,2051,2047,2045,2058,2036,2043,2027
2049,2059,2054,2048,2058,2032,2049,2043
2052,2061,2056,2056,2049,2031,2062,2043
2054,2062,2058,2054,2050,2028,2044,2044
2042,2055,2050,2048,2039,2025,2038,2033
2042,2043,2035,2039,2031,2014,2036,2041
2034,2043,2037,2042,2059,2025,2039,2042
2033,2046,2038,2054,2076,2056,2053,2047
2031,2035,2036,2053,2085,2087,2070,2051
2026,2044,2040,2050,2089,2092,2076,2055
2036,2048,2039,2052,2075,2079,2073,2054
2037,2046,2042,2052,2077,2076,2045,2053
2034,2031,2038,2038,2053,2068,2054,2046
2027,2029,2030,2027,2033,2067,2057,2057
2040,2039,2032,2032,2027,2069,2059,2060
2043,2044,2041,2037,2038,2080,2075,2056
2047,2047,2042,2037,2055,2083,2073,2053
2055,2054,2042,2049,2077,2097,2079,2042
2052,2055,2037,2055,2079,2088,2062,2037
2050,2055,2042,2051,2071,2058,2054,2027
2048,2045,2045,2047,2071,2036,2039,2015
2039,2047,2035,2044,2049,2042,2030,2019
2041,2041,2037,2030,2016,2059,2042,2022
2046,2041,2031,2025,2002,2077,2051,2023
2051,2037,2031,2021,1979,2074,2060,2026
2052,2034,2030,2022,1960,2046,2046,2020
2045,2028,2032,2023,1982,2006,2058,2037
2043,2033,2035,2039,2020,2006,2042,2033
2040,2035,2033,2042,2048,2026,2024,2029
2037,2039,2039,2041,2058,2042,2029,2033
2048,2037,2042,2049,2057,2041,2045,2035
2047,2033,2043,2051,2034,1998,2047,2035
2051,2038,2044,2041,2006,1983,2048,2034
2056,2047,2045,2035,1982,1983,2042,2021
2050,2044,2040,2025,1990,2005,2029,2017
2050,2054,2045,2038,2049,2041,2048,2028
2046,2047,2043,2049,2096,2089,2053,2024
2050,2043,2040,2051,2104,2130,2057,2032
2038,2039,2038,2045,2084,2134,2063,2045
2042,2048,2043,2029,2037,2113,2065,2049
2049,2051,2047,2029,2021,2088,2073,2062
2061,2061,2056,2050,2044,1996,2057,2077
2071,2059,2056,2060,2061,1982,2078,2078
2069,2050,2058,2052,2053,2010,2072,2072
2063,2037,2043,2032,2026,2016,2038,2061
2052,2029,2039,2030,2014,2026,2038,2067
2065,2041,2047,2040,2046,2047,2046,2051
2050,2044,2057,2053,2071,2068,2056,2039
2041,2053,2070,2057,2081,2091,2054,2037
2048,2056,2068,2058,2070,2083,2057,2037
2053,2060,2061,2056,2049,2074,2068,2034
2055,2054,2060,2056,2042,2062,2051,2029
2047,2048,2056,2060,2061,2050,2044,2029
2047,2049,2056,2055,2069,2042,2044,2022
2041,2042,2052,2050,2061,2039,2029,2021
2049,2043,2049,2039,2066,2018,2030,2031
2051,2049,2052,2037,2074,2005,2030,2030
2055,2045,2052,2038,2068,1994,2033,2029
2062,2053,2058,2039,2049,1980,2039,2026
2064,2052,2054,2038,2042,1986,2033,2023
2049,2043,2055,2037,2020,2000,1995,2020
2051,2043,2055,2043,2033,2029,2037,2019
2041,2047,2065,2055,2045,2053,2048,2014
2046,2058,2062,2054,2043,2060,2032,2026
2049,2059,2059,2053,2044,2055,2049,2037
2055,2055,2061,2050,2045,2050,2056,2034
2054,2054,2055,2057,2058,2057,2054,2040
2056,2052,2058,2054,2064,2062,2054,2042
2055,2050,2049,2056,2064,2075,2042,2039
2051,2047,2051,2055,2071,2083,2047,2045
2044,2047,2056,2053,2059,2085,2054,2040
2037,2042,2057,2052,2057,2090,2070,2050
2044,2054,2058,2047,2061,2084,2061,2055
2052,2056,2056,2044,2083,2072,2047,2062
2059,2056,2055,2052,2077,2053,2054,2071
2057,2059,2060,2055,2070,2002,2069,2080
2054,2056,2054,2052,2062,1969,2046,2072
2044,2045,2042,2045,2046,1981,2059,2070
2044,2047,2050,2045,2039,2000,2057,2064
2051,2044,2055,2045,2025,2002,2053,2061
2052,2047,2058,2046,2017,2018,2047,2052
2047,2048,2059,2047,2027,2035,2034,2052
2048,2051,2058,2045,2019,2046,2046,2051
2052,2056,2056,2039,2012,2049,2045,2045
2060,2054,2059,2049,2023,2043,2065,2046
2060,2058,2061,2052,2051,2045,2044,2042
2057,2052,2059,2050,2057,2043,2044,2035
2050,2055,2058,2056,2069,2041,2036,2035
2055,2053,2057,2063,2087,2046,2055,2030
2051,2055,2055,2065,2103,2062,2069,2030
2054,2052,2053,2069,2096,2054,2033,2033
2056,2053,2051,2066,2079,2049,2042,2036
2048,2045,2042,2057,2059,2038,2039,2034
2038,2031,2037,2048,2031,2024,2035,2028
2038,2036,2044,2036,2010,2029,2030,2027
2041,2042,2044,2028,2015,2040,2056,2026
2049,2039,2042,2032,2012,2072,2056,2037
2051,2042,2040,2034,2000,2091,2057,2030
2039,2031,2039,2027,1994,2075,2053,2039
2040,2031,2038,2032,2010,2053,2053,2049
2040,2042,2046,2040,2032,2009,2057,2047
2047,2042,2058,2056,2059,1999,2051,2061
2054,2038,2058,2065,2107,2028,2065,2066
2052,2040,2055,2075,2115,2060,2055,2073
2049,2037,2053,2067,2095,2069,2048,2075
2063,2032,2052,2060,2050,2069,2036,2066
2047,2031,2051,2066,2085,2066,2056,2064
2046,2033,2049,2070,2093,2080,2065,2066
2034,2042,2056,2069,2079,2106,2054,2058
2030,2033,2055,2067,2057,2090,2058,2067
2034,2031,2052,2060,2032,2067,2060,2072
2051,2044,2048,2047,2014,2037,2055,2070
2052,2040,2045,2038,1977,2018,2030,2058
2046,2045,2045,2010,1904,2009,2019,2048
2050,2048,2040,2009,1957,2021,2017,2045
2048,2047,2042,2024,2015,2058,2028,2046
2055,2046,2047,2027,2011,2090,2056,2045
2055,2042,2044,2022,2019,2135,2050,2038
2058,2044,2051,2037,2023,2123,2048,2036
2056,2045,2046,2037,2032,2044,2046,2035
2049,2039,2047,2034,2015,1948,2032,2033
2050,2034,2041,2032,2011,1956,2022,2026
2045,2041,2041,2034,2047,1997,2027,2025
2048,2036,2038,2045,2075,2018,2027,2020
2050,2036,2040,2039,2069,2024,2022,2015
2036,2031,2035,2039,2063,2026,2020,2022
2039,2034,2040,2045,2067,2043,2044,2030
2044,2045,2041,2051,2081,2049,2043,2025
2042,2045,2042,2055,2120,2053,2056,2028
2035,2040,2043,2054,2134,2054,2060,2025
2029,2049,2055,2055,2137,2050,2052,2044
2035,2059,2054,2058,2141,2043,2053,2051
2047,2049,2054,2062,2144,2054,2054,2050
2050,2049,2055,2055,2125,2050,2045,2057
2052,2050,2057,2054,2094,2042,2047,2058
2047,2051,2052,2046,2058,2017,2035,2055
2045,2047,2049,2039,1944,1987,2027,2059
2044,2047,2046,2035,1906,2000,2031,2062
2054,2053,2053,2044,1950,2038,2065,2072
2049,2053,2055,2052,1991,2050,2070,2068
2056,2051,2047,2053,2010,2050,2056,2072
2042,2045,2049,2042,2011,2054,2056,2064
2042,2045,2045,2040,2010,2073,2043,2072
2046,2045,2054,2046,2017,2078,2054,2069
2045,2045,2053,2051,2030,2088,2055,2066
2048,2057,2061,2056,2051,2092,2064,2055
2046,2056,2056,2051,2064,2101,2060,2048
2043,2048,2052,2052,2065,2092,2044,2047
2041,2046,2053,2042,2043,2068,2035,2038
2037,2041,2049,2043,2032,2038,2027,2028
2038,2044,2050,2045,2043,1991,2043,2029
2047,2046,2051,2045,2042,1994,2043,2033
2052,2051,2059,2054,2057,2016,2054,2035
2048,2056,2057,2054,2068,2029,2049,2036
2048,2055,2056,2055,2062,2021,2051,2037
2040,2056,2048,2047,2048,2024,2061,2035
2050,2055,2048,2041,2044,2019,2045,2030
2044,2037,2035,2039,2021,2008,2051,2027
2037,2038,2035,2034,2011,2018,2046,2037
2041,2041,2036,2040,2018,2017,2056,2042
2045,2040,2036,2039,2001,2017,2053,2044
2047,2039,2027,2031,1983,2004,2059,2054
2047,2036,2029,2033,1974,1999,2058,2067
2060,2042,2034,2024,1972,2007,2038,2066
2064,2041,2042,2023,1992,2039,2040,2064
2047,2049,2054,2045,2035,2054,2054,2057
2035,2050,2064,2053,2066,2051,2072,2064
2032,2051,2065,2054,2101,2058,2080,2074
2039,2053,2057,2064,2113,2059,2076,2064
2043,2050,2051,2055,2059,2015,2057,2068
2040,2044,2039,2045,2021,1997,2045,2073
2043,2039,2044,2044,2019,2001,2050,2068
2045,2032,2041,2040,2034,2042,2045,2050
2039,2024,2031,2043,2072,2096,2063,2059
2042,2032,2047,2061,2109,2124,2070,2060
2057,2051,2061,2074,2101,2100,2058,2070
2059,2055,2062,2070,2080,2107,2056,2063
2058,2055,2059,2061,2071,2138,2063,2049
2041,2047,2049,2058,2065,2142,2062,2048
2049,2049,2047,2056,2038,2065,2040,2054
2044,2054,2051,2047,2008,1960,2038,2049
2040,2054,2047,2041,2002,1984,2041,2040
2041,2057,2044,2036,2031,2036,2045,2034
2045,2052,2046,2035,2049,2050,2026,2035
2034,2051,2045,2039,2059,2055,2041,2025
2031,2048,2050,2045,2058,2057,2046,2026
2034,2050,2054,2044,2050,2059,2031,2026
2036,2052,2060,2043,2047,2057,2057,2037
2045,2053,2063,2046,2041,2062,2039,2037
2047,2044,2050,2042,2038,2055,2041,2031
2044,2034,2048,2036,2036,2043,2049,2028
2044,2043,2058,2038,2041,2047,2069,2039
2049,2050,2059,2036,2038,2052,2075,2053
2048,2060,2068,2045,2032,2051,2096,2055
2050,2054,2062,2048,2019,2052,2080,2054
2045,2054,2062,2049,2020,2047,2066,2059
2047,2053,2057,2053,2015,2050,2078,2051
2045,2056,2066,2053,2039,2048,2067,2047
2047,2055,2064,2056,2064,2046,2060,2047
2039,2054,2059,2057,2069,2041,2063,2052
2042,2050,2060,2056,2059,2030,2043,2059
2044,2046,2067,2054,2047,2031,2046,2067
2043,2042,2055,2050,2039,2030,2040,2071
2041,2034,2045,2043,2030,2019,2038,2065
2034,2034,2041,2045,2031,2025,2036,2076
2038,2039,2038,2044,2040,2030,2026,2072
2036,2030,2035,2044,2054,2022,2044,2073
2051,2046,2044,2054,2060,2033,2062,2071
2053,2044,2046,2056,2060,2037,2048,2067
2060,2042,2048,2047,2042,2028,2052,2056
2046,2041,2046,2046,2019,2033,2058,2057
2043,2041,2049,2044,2042,2045,2068,2050
2041,2041,2051,2048,2056,2050,2076,2041
2041,2046,2047,2041,2053,2061,2077,2040
2049,2051,2051,2042,2045,2058,2082,2047
2050,2045,2048,2042,2048,2048,2086,2041
2049,2041,2050,2041,2030,2046,2078,2044
2057,2043,2046,2043,2034,2061,2080,2041
2047,2047,2053,2046,2038,2067,2093,2049
2054,2044,2050,2046,2036,2056,2083,2049
2055,2049,2056,2049,2040,2046,2081,2048
2054,2041,2052,2035,2036,2031,2064,2040
2043,2032,2038,2031,2033,2020,2040,2029
2041,2036,2040,2030,2029,2027,2064,2032
2047,2039,2035,2030,2021,2010,2045,2028
2032,2029,2022,2018,1997,1996,2020,2027
2036,2023,2025,2021,1993,2006,2041,2044
2043,2032,2037,2032,1990,2010,2044,2052
2041,2043,2042,2031,2008,2024,2050,2052
2047,2045,2050,2048,2041,2049,2068,2064
2047,2049,2058,2055,2080,2059,2067,2069
2049,2048,2053,2063,2104,2076,2075,2071
2058,2044,2057,2062,2114,2091,2073,2067
2052,2045,2057,2061,2078,2077,2069,2066
2052,2045,2059,2050,2038,2060,2059,2065
2042,2040,2055,2044,2029,2055,2076,2071
2043,2044,2060,2049,2031,2063,2074,2077
2042,2040,2057,2050,2033,2053,2060,2070
2036,2034,2053,2045,2021,2036,2053,2065
2037,2028,2044,2042,2010,2032,2049,2067
2041,2039,2057,2048,2020,2030,2052,2066
2046,2050,2064,2059,2036,2042,2050,2053
2052,2052,2072,2057,2042,2053,2061,2046
2046,2060,2071,2056,2046,2056,2065,2053
2048,2058,2074,2061,2058,2068,2070,2051
2054,2054,2076,2062,2049,2065,2066,2059
2060,2062,2079,2070,2056,2060,2062,2058
2067,2059,2071,2069,2060,2060,2054,2063
2059,2064,2067,2068,2068,2094,2059,2052
2055,2052,2064,2060,2066,2108,2063,2041
2044,2048,2068,2063,2054,2108,2058,2037
2044,2048,2063,2060,2045,2103,2065,2032
2048,2056,2064,2055,2023,2073,2061,2035
2046,2050,2059,2040,1996,2048,2046,2032
2042,2042,2048,2039,2035,2056,2058,2029
2041,2043,2054,2042,2062,2053,2069,2029
2049,2050,2060,2051,2062,2040,2078,2041
2053,2055,2062,2054,2051,2010,2059,2040
2057,2055,2052,2057,2035,1994,2054,2041
2057,2050,2045,2060,2034,1986,2061,2048
2057,2048,2043,2059,2030,1980,2065,2047
2047,2053,2044,2059,2045,2000,2056,2047
2047,2046,2041,2068,2062,2024,2048,2052
2047,2049,2037,2070,2058,2048,2056,2048
2047,2043,2030,2066,2046,2038,2030,2050
2046,2038,2028,2061,2005,2007,2034,2054
2036,2034,2027,2061,2003,2022,2018,2048
2030,2038,2035,2054,1995,2070,2039,2042
2029,2037,2031,2039,1995,2123,2034,2044
2030,2037,2019,2019,1986,2131,2050,2049
2028,2025,2003,2005,1975,2106,2054,2047
2037,2026,2012,2008,2004,2053,2060,2072
2059,2052,2041,2031,2051,1990,2044,2087
2069,2062,2057,2041,2064,1988,2036,2077
2059,2061,2061,2034,2058,2001,2033,2068
2061,2059,2056,2037,2054,2027,2048,2057
2060,2052,2048,2040,2053,2047,2039,2053
2049,2039,2036,2034,2047,2059,2041,2049
2041,2034,2031,2032,2046,2054,2061,2046
2037,2035,2040,2038,2046,2054,2068,2048
2048,2043,2053,2043,2050,2047,2072,2048
2051,2044,2053,2042,2052,2051,2076,2051
2048,2055,2059,2053,2044,2049,2067,2047
2052,2056,2065,2059,2039,2046,2058,2043
2052,2058,2065,2059,2038,2049,2055,2039
2046,2050,2057,2060,2039,2045,2034,2038
2041,2043,2056,2055,2032,2048,2059,2036
2042,2047,2053,2051,2027,2045,2062,2040
2049,2056,2061,2057,2036,2052,2061,2045
2052,2051,2060,2061,2045,2049,2064,2045
2048,2048,2051,2063,2049,2047,2054,2040
2050,2045,2050,2066,2041,2045,2057,2042
2046,2045,2056,2053,2046,2049,2056,2045
2049,2047,2051,2055,2066,2045,2059,2043
2055,2051,2055,2060,2078,2052,2059,2054
2050,2052,2064,2062,2081,2053,2057,2057
2055,2053,2064,2061,2071,2052,2045,2064
2063,2051,2060,2052,2065,2049,2045,2075
2056,2045,2063,2047,2044,2039,2048,2077
2061,2044,2047,2048,2032,2035,2049,2078
2056,2040,2056,2051,2036,2032,2024,2069
2053,2046,2054,2046,2032,2040,2050,2072
2056,2041,2039,2038,2022,2032,2060,2074
2047,2035,2036,2033,2011,2035,2048,2080
2056,2045,2036,2033,2016,2042,2053,2073
2054,2049,2034,2036,2013,2054,2070,2073
2057,2056,2043,2036,2013,2050,2060,2078
2057,2054,2040,2039,2022,2044,2048,2061
2049,2044,2032,2028,2026,2036,2036,2050
2045,2040,2033,2031,2030,2050,2057,2042
2049,2051,2042,2034,2002,2074,2071,2043
2057,2050,2044,2036,2014,2068,2076,2051
2065,2045,2046,2042,2050,2046,2074,2051
2062,2041,2048,2055,2074,2041,2052,2048
2056,2041,2050,2073,2117,2064,2066,2046
2048,2042,2056,2086,2117,2071,2070,2046
2051,2045,2057,2083,2110,2094,2071,2038
2041,2059,2073,2089,2099,2105,2068,2035
2042,2053,2069,2064,2042,2075,2050,2025
2039,2046,2066,2040,2004,2059,2039,2026
2047,2056,2065,2046,2029,2082,2060,2039
2055,2057,2070,2043,1992,2062,2056,2045
2063,2059,2060,2041,2009,2009,2052,2054
2062,2056,2055,2043,2028,1994,2053,2057
2055,2050,2058,2047,2036,2016,2055,2049
2051,2050,2052,2050,2049,2012,2041,2047
2045,2052,2054,2054,2067,2010,2048,2047
2043,2051,2056,2053,2060,2013,2044,2045
2051,2056,2054,2058,2057,2013,2037,2054
2041,2056,2050,2049,2045,2003,2029,2062
2036,2051,2043,2049,2034,2023,2022,2059
2045,2043,2049,2053,2041,2026,2045,2066
2047,2044,2053,2051,2030,2036,2046,2072
2053,2050,2062,2053,2032,2039,2040,2074
2050,2040,2049,2044,2021,2031,2032,2074
2050,2031,2046,2045,2038,2026,2028,2074
2053,2042,2050,2057,2084,2035,2049,2065
2051,2044,2050,2059,2132,2040,2049,2066
2048,2048,2047,2062,2150,2043,2069,2064
2052,2052,2055,2067,2146,2054,2082,2062
2056,2058,2057,2070,2143,2062,2080,2062
2050,2058,2053,2072,2132,2063,2072,2053
2048,2056,2048,2067,2121,2052,2072,2060
2055,2052,2042,2060,2084,2058,2068,2055
2056,2048,2044,2049,2023,2053,2062,2056
2055,2053,2043,2027,1894,2033,2045,2051
2049,2052,2046,2028,1901,2028,2068,2047
2049,2052,2049,2039,1960,2036,2063,2041
2041,2048,2052,2050,2004,2046,2061,2034
2036,2047,2055,2057,2034,2049,2043,2033
2036,2054,2059,2059,2031,2049,2045,2038
2039,2049,2051,2051,2036,2046,2049,2042
2042,2047,2053,2054,2043,2050,2047,2048
2049,2062,2060,2054,2042,2045,2051,2047
2046,2057,2058,2054,2045,2044,2063,2056
2051,2056,2056,2050,2047,2025,2059,2054
2056,2052,2054,2051,2033,2007,2060,2054
2053,2048,2054,2044,2031,2014,2065,2053
2047,2040,2046,2044,2031,2020,2079,2052
2043,2038,2043,2044,2042,2036,2072,2062
2040,2038,2052,2052,2044,2039,2088,2072
2037,2052,2060,2054,2045,2047,2088,2080
2037,2053,2057,2049,2038,2050,2080,2075
2041,2049,2050,2051,2032,2059,2088,2073
2046,2050,2047,2050,2041,2081,2059,2069
2044,2050,2043,2047,2038,2079,2056,2065
2040,2049,2043,2048,2033,2071,2047,2057
2037,2035,2037,2042,2036,2087,2040,2053
2028,2027,2027,2039,2028,2075,2031,2066
2038,2045,2050,2043,2027,2047,2001,2065
2046,2048,2056,2044,2030,2030,2013,2070
2046,2052,2053,2046,2048,2034,2014,2068
2048,2053,2053,2049,2059,2021,2039,2064
2048,2052,2047,2047,2066,1994,2037,2059
2047,2055,2044,2044,2054,1984,2042,2056
2051,2050,2038,2043,2043,2000,2031,2053
2057,2054,2040,2048,2036,2016,2033,2055
2057,2050,2047,2047,2039,2040,2049,2046
2056,2043,2041,2046,2039,2056,2048,2039
2049,2041,2038,2043,2040,2060,2048,2046
2043,2035,2038,2042,2038,2057,2056,2041
2045,2041,2037,2042,2026,2044,2048,2041
2044,2042,2041,2037,2002,2037,2040,2041
2040,2045,2037,2030,1976,2055,2029,2034
2037,2033,2024,2008,1935,2071,2033,2030
2023,2017,2015,1990,1904,2078,2036,2027
2031,2023,2023,2000,1917,2078,2034,2031
2035,2018,2027,2014,1938,2035,2043,2041
2044,2041,2046,2033,1976,1961,2043,2060
2054,2060,2064,2058,2043,1966,2050,2068
2060,2068,2068,2067,2100,2014,2057,2060
2053,2068,2069,2072,2123,2045,2064,2063
2044,2061,2054,2082,2137,2069,2064,2061
2046,2052,2049,2073,2153,2075,2064,2057
2040,2037,2050,2068,2149,2069,2064,2064
2052,2040,2044,2067,2136,2080,2064,2070
2052,2044,2050,2069,2120,2076,2056,2072
2049,2053,2057,2061,2105,2062,2059,2062
2044,2058,2052,2059,2084,2041,2050,2067
2043,2058,2059,2057,2073,2009,2047,2073
2042,2047,2046,2050,2059,1996,2045,2071
2039,2042,2047,2052,2058,2004,2046,2073
2049,2052,2057,2057,2059,2022,2050,2080
2053,2055,2054,2056,2060,2035,2050,2082
2054,2057,2060,2061,2057,2037,2055,2066
2052,2061,2057,2052,2048,2040,2052,2069
2058,2067,2065,2055,2052,2045,2059,2061
2059,2064,2064,2051,2049,2049,2058,2054
2058,2060,2054,2051,2054,2058,2056,2051
2053,2058,2050,2049,2049,2050,2054,2040
2049,2057,2056,2047,2052,2059,2057,2045
2048,2054,2059,2049,2055,2068,2056,2044
2053,2050,2055,2050,2055,2074,2051,2044
2052,2058,2053,2052,2055,2075,2055,2046
2057,2048,2049,2048,2059,2082,2048,2044
2062,2052,2050,2047,2052,2070,2048,2040
2056,2046,2044,2035,2035,2046,2045,2033
2050,2036,2040,2032,2033,2042,2035,2036
2043,2043,2046,2040,2043,2041,2053,2036
2040,2047,2049,2045,2045,2032,2059,2040
2036,2046,2053,2046,2058,2036,2058,2043
2046,2053,2054,2054,2063,2019,2055,2049
2047,2056,2052,2052,2054,2010,2056,2054
2042,2055,2054,2043,2050,1998,2052,2052
2052,2053,2051,2049,2045,2006,2056,2059
2054,2060,2055,2050,2051,2025,2053,2060
2051,2057,2051,2048,2047,2046,2043,2061
2050,2049,2048,2041,2045,2052,2041,2068
2050,2053,2041,2040,2050,2058,2049,2064
2045,2042,2048,2037,2050,2052,2046,2068
2044,2047,2051,2044,2050,2055,2049,2073
2055,2055,2051,2041,2044,2054,2047,2064
2051,2050,2050,2039,2046,2052,2052,2069
2039,2038,2042,2037,2046,2042,2047,2069
2038,2037,2038,2040,2046,2044,2055,2070
2051,2046,2044,2042,2041,2044,2055,2064
2050,2047,2042,2042,2036,2047,2054,2064
2044,2050,2043,2037,2035,2047,2049,2054
2045,2047,2038,2037,2050,2043,2056,2052
2051,2046,2042,2039,2066,2042,2054,2051
2050,2040,2044,2045,2066,2045,2050,2050
2046,2040,2040,2046,2058,2044,2050,2042
2049,2043,2043,2047,2053,2045,2050,2047
2054,2047,2048,2049,2050,2039,2050,2043
2049,2045,2047,2043,2042,2039,2047,2042
2054,2044,2043,2041,2042,2036,2059,2047
2057,2042,2032,2036,2042,2033,2051,2038
2047,2033,2033,2032,2023,2021,2042,2041
2039,2030,2027,2026,1988,2005,2034,2032
2033,2019,2016,2009,1985,1987,2037,2033
2034,2022,2019,2008,1977,1976,2008,2039
2045,2034,2028,2014,1976,1976,2033,2046
2053,2043,2040,2033,2007,2001,2040,2058
2068,2049,2050,2047,2057,2015,2050,2047
2066,2040,2039,2054,2083,2032,2044,2048
2058,2029,2035,2046,2085,2052,2044,2057
2056,2030,2035,2039,2069,2073,2044,2055
