CH1,CH2,CH3,CH4,CH5,CH6,CH7,CH8
2039,2040,2036,2038,2038,2045,2068,2043
2028,2034,2030,2048,2051,2048,2064,2031
2029,2032,2040,2049,2038,2047,2059,2030
2033,2035,2049,2056,2030,2048,2044,2020
2039,2049,2068,2067,2035,2058,2041,2027
2048,2056,2079,2083,2062,2068,2058,2033
2057,2066,2080,2085,2064,2074,2057,2036
2052,2063,2070,2089,2049,2074,2060,2035
2058,2055,2063,2097,2084,2071,2057,2028
2047,2050,2052,2094,2098,2071,2051,2018
2055,2058,2050,2090,2074,2062,2065,2022
2057,2058,2057,2070,2047,2049,2046,2026
2052,2048,2049,2067,2025,2044,2055,2028
2047,2046,2051,2068,2034,2052,2074,2032
2054,2045,2052,2072,2068,2060,2050,2030
2046,2044,2044,2060,2046,2037,2042,2039
2041,2041,2032,2027,2034,2027,2054,2040
2033,2033,2026,2030,2076,2045,2055,2047
2042,2034,2022,2025,2055,2042,2049,2044
2042,2040,2010,2003,2017,2035,2041,2049
2038,2025,2002,1989,2009,2038,2050,2056
2036,2021,2010,1991,2018,2040,2068,2076
2039,2037,2025,2000,2023,2050,2079,2091
2043,2040,2033,2014,2032,2060,2069,2092
2051,2039,2039,2021,2049,2060,2080,2081
2041,2022,2025,2002,1970,2040,2042,2067
2034,2021,2018,1999,1973,2041,2047,2073
2040,2028,2030,2018,2041,2061,2032,2071
2039,2037,2037,2030,2060,2079,2030,2066
2040,2038,2038,2036,2072,2072,2018,2061
2038,2037,2041,2036,2065,2058,2026,2054
2038,2044,2042,2033,2052,2045,2028,2055
2041,2040,2045,2036,2042,2042,2040,2053
2044,2045,2046,2037,2031,2032,2030,2053
2048,2051,2051,2045,2023,2031,2037,2044
2049,2059,2056,2056,2022,2032,2044,2036
2049,2055,2060,2052,2017,2034,2034,2032
2043,2053,2055,2051,2019,2030,2035,2024
2044,2049,2059,2045,2032,2042,2021,2018
2045,2052,2066,2050,2057,2062,2049,2020
2045,2056,2067,2062,2080,2071,2050,2026
2050,2056,2063,2058,2068,2057,2047,2021
2044,2044,2057,2046,2065,2056,2044,2018
2039,2042,2059,2056,2067,2057,2040,2015
2038,2050,2058,2055,2060,2054,2037,2023
2052,2049,2058,2057,2065,2059,2051,2027
2050,2055,2062,2064,2058,2057,2056,2032
2051,2052,2060,2058,2058,2060,2030,2038
2044,2046,2053,2056,2054,2059,2039,2038
2043,2049,2040,2050,2047,2059,2048,2042
2027,2032,2043,2050,2054,2061,2042,2052
2041,2049,2054,2058,2056,2067,2057,2068
2059,2060,2058,2068,2070,2065,2048,2072
2057,2057,2051,2056,2067,2060,2047,2070
2048,2042,2046,2049,2051,2055,2053,2063
2047,2041,2048,2056,2057,2059,2064,2062
2041,2047,2055,2056,2056,2061,2043,2076
2044,2052,2056,2059,2061,2056,2062,2080
2051,2046,2045,2050,2056,2050,2042,2084
2047,2042,2047,2049,2055,2057,2044,2083
2044,2046,2049,2048,2046,2059,2042,2070
2049,2047,2049,2047,2042,2069,2054,2072
2047,2047,2050,2041,2035,2080,2041,2069
2054,2041,2046,2042,2032,2080,2037,2070
2058,2042,2040,2040,2029,2072,2040,2065
2056,2037,2034,2030,2021,2049,2023,2052
2049,2026,2032,2041,2038,2017,2027,2041
2040,2031,2037,2053,2055,2023,2037,2035
2038,2040,2047,2051,2049,2042,2053,2031
2038,2039,2043,2055,2050,2045,2036,2027
2042,2038,2055,2060,2052,2050,2047,2030
2036,2040,2052,2056,2045,2043,2045,2019
2032,2038,2049,2053,2043,2039,2027,2017
2029,2044,2052,2046,2048,2042,2039,2015
2031,2039,2038,2045,2041,2034,2049,2013
2036,2040,2040,2047,2036,2036,2057,2022
2049,2055,2052,2052,2043,2037,2065,2029
2045,2055,2052,2054,2039,2042,2062,2031
2050,2052,2050,2051,2045,2041,2058,2043
2051,2053,2047,2054,2049,2035,2052,2045
2046,2058,2051,2052,2043,2033,2052,2043
2053,2058,2047,2056,2053,2041,2055,2055
2045,2054,2046,2049,2041,2044,2053,2056
2043,2057,2039,2040,2050,2052,2058,2061
2048,2054,2037,2040,2050,2047,2062,2061
2047,2053,2039,2039,2059,2040,2065,2068
2043,2051,2043,2035,2063,2044,2023,2073
2050,2052,2041,2030,2056,2050,2039,2079
2049,2050,2043,2031,2052,2053,2047,2088
2047,2051,2046,2042,2050,2058,2065,2088
2050,2058,2059,2039,2054,2055,2045,2079
2040,2047,2057,2042,2047,2048,2036,2084
2041,2053,2054,2043,2046,2033,2020,2078
2047,2053,2058,2041,2023,2023,2035,2066
2044,2053,2049,2037,2008,2019,2027,2062
2041,2042,2040,2035,1993,2018,2013,2038
2029,2041,2037,2021,1990,2020,2011,2028
2026,2036,2036,2018,1986,2019,2020,2030
2028,2043,2037,2037,2023,2041,2040,2047
2039,2058,2053,2056,2072,2056,2046,2050
2051,2069,2063,2064,2095,2072,2059,2046
2038,2064,2060,2062,2096,2076,2050,2036
2041,2054,2052,2051,2076,2068,2043,2027
2041,2050,2051,2047,2062,2053,2030,2026
2046,2056,2051,2042,2060,2045,2021,2023
2050,2059,2054,2047,2061,2046,2043,2030
2046,2057,2049,2049,2058,2052,2050,2025
2037,2039,2033,2041,2050,2038,2042,2022
2037,2039,2036,2042,2058,2052,2032,2028
2041,2052,2046,2044,2058,2077,2022,2028
2041,2044,2052,2047,2062,2080,2056,2036
2039,2044,2051,2040,2056,2084,2039,2029
2046,2036,2048,2046,2050,2074,2046,2030
2044,2045,2050,2045,2052,2059,2055,2046
2048,2045,2054,2055,2067,2028,2051,2060
2050,2044,2053,2062,2071,2026,2041,2059
2046,2046,2046,2060,2068,2038,2065,2062
2044,2045,2045,2056,2072,2042,2045,2066
2043,2047,2044,2050,2071,2043,2068,2071
2039,2049,2045,2055,2062,2046,2022,2070
2034,2047,2050,2051,2054,2036,2049,2079
2045,2045,2047,2058,2050,2046,2051,2081
2046,2050,2054,2056,2049,2066,2051,2082
2039,2035,2043,2050,2040,2067,2039,2091
2033,2035,2041,2050,2042,2060,2056,2088
2041,2040,2047,2050,2042,2069,2046,2083
2042,2046,2052,2050,2044,2084,2048,2076
2040,2045,2046,2045,2041,2116,2043,2068
2036,2043,2047,2044,2021,2146,2052,2061
2046,2044,2041,2034,2005,2162,2054,2050
2036,2043,2038,2021,1995,2158,2033,2037
2026,2038,2036,2024,1986,2107,2027,2021
2031,2039,2034,2025,1993,2043,2037,2034
2042,2044,2041,2037,2034,2033,2037,2043
2051,2058,2044,2056,2077,2021,2044,2059
2060,2065,2060,2076,2107,2013,2041,2050
2065,2071,2058,2073,2115,2033,2063,2041
2060,2068,2059,2072,2097,2032,2061,2038
2053,2065,2052,2062,2079,2016,2046,2034
2056,2063,2050,2064,2064,2002,2042,2031
2053,2056,2050,2056,2065,2003,2049,2029
2051,2060,2056,2059,2075,2013,2064,2037
2055,2061,2058,2063,2072,2015,2059,2045
2055,2063,2056,2062,2059,2011,2070,2047
2060,2066,2062,2060,2053,2012,2061,2050
2057,2058,2061,2057,2036,2000,2039,2050
2055,2058,2061,2059,2043,2007,2036,2052
2056,2053,2057,2063,2044,2011,2043,2054
2054,2060,2064,2069,2049,2013,2022,2058
2052,2056,2062,2069,2049,2015,2040,2059
2051,2050,2059,2069,2049,2023,2040,2057
2049,2050,2053,2060,2050,2027,2042,2073
2047,2046,2059,2061,2040,2031,2027,2074
2046,2044,2055,2062,2039,2032,2042,2083
2051,2046,2053,2055,2037,2035,2047,2082
2043,2044,2048,2056,2032,2032,2039,2086
2029,2034,2036,2043,2016,2034,2050,2080
2034,2027,2037,2041,2022,2047,2035,2079
2041,2034,2039,2042,2014,2058,2035,2075
2048,2040,2041,2047,2022,2066,2038,2080
2042,2046,2039,2050,2025,2053,2046,2075
2041,2047,2037,2049,2026,2036,2035,2066
2045,2048,2039,2050,2017,2030,2024,2063
2046,2049,2043,2049,2033,2036,2045,2050
2037,2045,2038,2051,2038,2031,2046,2049
2035,2043,2035,2051,2037,2028,2023,2044
2044,2039,2030,2050,2043,2032,2040,2037
2043,2049,2040,2051,2038,2031,2047,2036
2047,2049,2044,2049,2042,2031,2021,2031
2044,2048,2046,2044,2044,2033,2028,2035
2039,2050,2041,2050,2045,2045,2031,2035
2042,2045,2042,2047,2046,2047,2046,2029
2038,2038,2030,2038,2036,2062,2042,2017
2036,2025,2031,2037,2032,2072,2027,2020
2037,2044,2036,2044,2046,2070,2020,2029
2042,2042,2042,2040,2053,2069,2023,2029
2037,2049,2043,2048,2052,2066,2053,2033
2040,2045,2046,2055,2065,2070,2054,2033
2045,2045,2046,2055,2066,2062,2051,2043
2045,2050,2043,2058,2057,2042,2037,2036
2046,2040,2045,2054,2058,2036,2031,2043
2044,2042,2044,2053,2052,2026,2032,2049
2043,2035,2035,2050,2044,2031,2038,2050
2043,2037,2035,2046,2062,2044,2057,2060
2042,2035,2034,2048,2057,2046,2077,2070
2037,2040,2028,2053,2054,2042,2078,2077
2038,2038,2037,2054,2060,2043,2065,2075
2035,2044,2036,2054,2046,2040,2074,2069
2033,2048,2032,2051,2036,2038,2061,2068
2032,2038,2032,2046,2046,2052,2064,2070
2036,2044,2041,2049,2065,2062,2057,2084
2042,2052,2042,2051,2050,2064,2048,2083
2046,2059,2044,2053,2045,2068,2064,2079
2046,2056,2052,2049,2044,2078,2065,2078
2048,2064,2051,2054,2043,2078,2066,2063
2045,2061,2048,2053,2042,2072,2047,2057
2049,2057,2048,2053,2041,2055,2056,2058
2052,2057,2046,2054,2042,2041,2064,2054
2052,2052,2046,2043,2045,2050,2068,2046
2046,2050,2044,2051,2043,2066,2082,2049
2049,2052,2044,2055,2052,2075,2091,2048
2051,2053,2049,2056,2045,2081,2095,2042
2056,2055,2048,2053,2045,2066,2091,2032
2054,2052,2055,2049,2041,2066,2088,2028
2048,2046,2047,2050,2031,2061,2075,2018
2031,2037,2040,2046,2032,2055,2066,2019
2028,2031,2034,2041,2022,2053,2072,2026
2036,2045,2039,2043,2021,2047,2062,2024
2039,2038,2033,2043,2022,2033,2046,2019
2039,2037,2036,2045,2026,2035,2057,2027
2038,2040,2040,2049,2032,2041,2068,2030
2047,2043,2041,2057,2040,2060,2055,2041
2046,2054,2053,2058,2045,2068,2056,2042
2046,2067,2056,2064,2047,2065,2054,2050
2040,2064,2056,2058,2034,2043,2046,2048
2039,2062,2054,2049,2036,2028,2023,2049
2044,2047,2049,2052,2056,2033,2021,2064
2047,2052,2047,2060,2070,2041,2029,2063
2043,2039,2048,2064,2068,2046,2032,2072
2044,2049,2052,2061,2057,2044,2031,2077
2037,2046,2048,2067,2057,2041,2042,2074
2027,2038,2043,2058,2055,2035,2030,2075
2025,2032,2039,2060,2055,2042,2029,2079
2040,2042,2051,2071,2062,2041,2030,2084
2045,2051,2051,2068,2069,2038,2041,2077
2051,2052,2052,2059,2063,2042,2041,2077
2054,2052,2050,2050,2057,2046,2041,2075
2056,2053,2046,2042,2042,2038,2033,2059
2056,2045,2042,2030,2021,2025,2044,2057
2049,2046,2045,2022,2021,2016,2045,2047
2047,2044,2043,2022,2010,2007,2058,2042
2042,2045,2045,2026,2004,1993,2047,2032
2043,2041,2048,2024,2005,1989,2018,2038
2040,2046,2049,2031,2006,1998,2051,2038
2050,2049,2054,2045,2046,2004,2050,2036
2056,2051,2060,2043,2068,2012,2066,2039
2059,2055,2056,2044,2068,2024,2045,2041
2051,2047,2050,2037,2067,2031,2062,2032
2054,2039,2052,2034,2063,2043,2064,2033
2055,2044,2048,2034,2055,2058,2064,2034
2049,2047,2040,2032,2057,2080,2052,2032
2046,2051,2057,2055,2083,2108,2076,2031
2052,2059,2063,2059,2053,2129,2078,2036
2050,2051,2057,2051,1949,2135,2081,2043
2054,2055,2058,2047,1981,2136,2086,2050
2048,2055,2056,2055,2022,2124,2077,2054
2050,2053,2056,2058,2031,2032,2066,2054
2042,2042,2042,2048,2023,1960,2052,2057
2033,2034,2035,2039,2019,1989,2057,2067
2036,2026,2034,2035,2025,2019,2063,2068
2044,2044,2045,2047,2030,2032,2041,2072
2047,2053,2055,2048,2037,2035,2021,2087
2051,2057,2054,2047,2037,2035,2012,2081
2041,2036,2041,2037,2029,2032,2011,2080
2035,2031,2032,2032,2028,2039,2024,2078
2038,2043,2049,2042,2039,2044,2034,2071
2042,2048,2053,2044,2039,2047,2038,2071
2046,2061,2054,2042,2038,2055,2029,2073
2056,2052,2044,2041,2025,2065,2013,2064
2050,2040,2030,2033,2012,2068,2007,2059
2047,2031,2026,2024,2013,2058,2033,2054
2046,2031,2018,2021,2007,2039,2020,2046
2044,2034,2027,2024,2007,2051,2016,2029
2041,2043,2045,2032,2014,2076,2038,2021
2033,2048,2054,2044,2019,2089,2029,2018
2036,2052,2059,2046,2022,2087,2038,2021
2046,2060,2056,2043,2033,2070,2044,2030
2056,2064,2063,2054,2053,2046,2072,2040
2054,2068,2067,2061,2079,2042,2062,2027
2042,2057,2053,2060,2092,2041,2050,2026
2044,2050,2051,2049,2055,2029,2050,2031
2049,2060,2050,2042,2026,2022,2034,2029
2046,2052,2046,2032,1987,2001,2053,2031
2044,2051,2046,2021,1964,1984,2029,2029
2043,2049,2040,2021,1974,2010,2050,2033
2053,2054,2050,2037,2024,2049,2060,2040
2056,2051,2051,2049,2066,2074,2070,2046
2050,2058,2058,2064,2109,2099,2069,2060
2051,2053,2053,2062,2106,2095,2074,2058
2045,2045,2052,2056,2082,2085,2048,2056
2037,2042,2046,2054,2068,2078,2051,2058
2039,2038,2042,2044,2038,2076,2041,2057
2039,2044,2039,2034,2004,2055,2030,2066
2037,2040,2039,2024,1987,2047,2021,2064
2038,2039,2035,2017,1968,2033,1999,2066
2029,2029,2035,2012,1972,2001,2011,2067
2034,2043,2046,2028,2017,2002,2034,2085
2051,2054,2054,2043,2065,2034,2066,2084
2056,2057,2055,2048,2088,2058,2055,2077
2056,2056,2058,2051,2087,2065,2070,2074
2056,2056,2053,2049,2075,2044,2048,2061
2052,2057,2049,2041,2061,2037,2026,2050
2047,2052,2054,2039,2059,2045,2032,2049
2047,2048,2045,2041,2062,2063,2020,2040
2042,2050,2045,2041,2054,2070,2030,2028
2036,2049,2044,2038,2047,2084,2032,2032
2042,2055,2043,2038,2038,2081,2043,2029
2051,2053,2043,2040,2043,2059,2019,2035
2059,2058,2043,2051,2056,2035,2036,2047
2055,2052,2045,2057,2064,2051,2042,2037
2046,2044,2039,2049,2059,2080,2033,2020
2043,2042,2041,2042,2063,2112,2030,2011
2046,2045,2042,2048,2063,2130,2037,2026
2043,2045,2040,2037,2040,2126,2032,2020
2045,2042,2037,2030,2025,2095,2020,2015
2035,2036,2035,2026,2006,2036,2029,2014
2032,2040,2026,2026,1996,2001,2021,2019
2033,2035,2029,2033,2028,1993,2040,2040
2048,2040,2038,2044,2072,2004,2073,2061
2061,2057,2056,2060,2105,2021,2070,2064
2059,2063,2055,2066,2099,2017,2057,2077
2058,2054,2051,2049,2089,1989,2041,2076
2051,2046,2038,2042,2061,1982,2054,2073
2048,2039,2041,2035,2052,1995,2050,2074
2039,2036,2036,2036,2050,2024,2054,2078
2038,2033,2038,2037,2051,2046,2080,2082
2041,2032,2037,2025,2036,2051,2063,2071
2033,2023,2031,2019,2010,2047,2053,2076
2028,2035,2035,2020,1992,2051,2053,2075
2031,2037,2034,2022,2001,2048,2055,2072
2037,2039,2042,2021,2006,2057,2050,2069
2042,2034,2029,2010,2014,2079,2060,2054
2038,2039,2034,2028,2068,2092,2084,2063
2046,2048,2049,2053,2104,2092,2068,2055
2044,2052,2044,2053,2097,2073,2048,2043
2043,2050,2045,2046,2101,2060,2065,2037
2051,2060,2052,2059,2092,2028,2053,2035
2052,2053,2042,2044,2072,2001,2027,2030
2043,2050,2042,2037,2060,2000,2047,2030
2043,2052,2047,2042,2055,1998,2046,2029
2043,2052,2057,2047,2062,2021,2054,2032
2047,2051,2049,2047,2054,2031,2074,2026
2040,2043,2042,2033,2030,2015,2069,2014
2029,2029,2038,2024,2007,2022,2068,2020
2031,2039,2041,2027,2013,2038,2078,2027
2040,2036,2040,2026,2022,2047,2098,2033
2038,2043,2054,2041,2031,2058,2087,2034
2046,2051,2054,2035,2032,2062,2088,2038
2045,2048,2053,2039,2031,2044,2072,2033
2042,2041,2048,2034,2034,2022,2066,2035
2041,2036,2041,2026,2034,2031,2065,2028
2032,2035,2032,2024,2038,2037,2052,2030
2031,2034,2033,2027,2039,2052,2047,2038
2029,2037,2036,2021,2047,2073,2047,2049
2033,2037,2044,2034,2051,2076,2043,2060
2035,2042,2047,2038,2056,2072,2075,2071
2040,2046,2050,2045,2051,2056,2071,2080
2043,2048,2053,2043,2041,2047,2055,2075
2043,2038,2044,2033,2027,2048,2053,2079
2042,2042,2046,2036,2033,2052,2053,2081
2052,2058,2054,2037,2032,2050,2055,2082
2053,2060,2049,2032,2023,2048,2044,2073
2052,2058,2047,2037,2023,2045,2057,2066
2050,2052,2047,2034,2022,2048,2046,2053
2056,2045,2043,2032,2022,2048,2045,2047
2061,2052,2041,2044,2026,2050,2062,2046
2050,2049,2038,2035,2028,2056,2067,2043
2048,2050,2034,2030,2029,2048,2053,2036
2044,2046,2036,2030,2055,2057,2045,2026
2041,2044,2033,2033,2055,2085,2063,2015
2037,2044,2032,2032,2051,2086,2053,2020
2042,2042,2036,2027,2034,2086,2055,2014
2054,2053,2043,2028,2028,2080,2068,2023
2056,2063,2052,2047,2042,2024,2067,2031
2057,2053,2052,2056,2056,1996,2060,2034
2059,2049,2051,2056,2061,2022,2073,2035
2061,2062,2051,2061,2055,2035,2056,2042
2059,2065,2033,2057,2057,2041,2065,2033
2052,2053,2036,2037,2030,2046,2058,2035
2045,2043,2030,2022,1970,2044,2063,2031
2033,2036,2023,2007,1939,2024,2080,2040
2040,2036,2035,2000,1927,2014,2072,2049
2052,2045,2049,2012,1944,2015,2056,2042
2051,2054,2049,2016,1995,2016,2053,2040
2043,2046,2042,2014,2020,2020,2018,2050
2044,2048,2037,2040,2084,2054,2043,2058
2048,2048,2038,2046,2098,2083,2058,2070
2045,2043,2037,2040,2066,2106,2062,2072
2041,2044,2047,2044,2083,2109,2073,2076
2041,2047,2049,2041,2087,2090,2068,2076
2033,2046,2042,2030,2045,2075,2060,2079
2036,2045,2045,2030,2064,2090,2076,2078
2042,2042,2045,2031,2090,2107,2071,2070
2041,2044,2045,2042,2083,2102,2081,2066
2041,2051,2047,2038,2054,2093,2056,2066
2050,2051,2058,2037,2044,2059,2017,2066
2048,2053,2056,2035,2038,2027,2023,2049
2048,2050,2057,2032,2036,2032,1994,2031
2034,2038,2054,2027,2044,2043,2021,2032
2039,2043,2049,2034,2053,2046,2038,2040
2044,2052,2059,2043,2048,2032,2045,2037
2042,2049,2051,2041,2033,2017,2045,2028
2043,2048,2046,2034,2024,2021,2051,2025
2040,2048,2035,2040,2028,2028,2048,2030
2035,2041,2033,2037,2015,2017,2068,2025
2038,2034,2020,2034,2009,2011,2059,2020
2035,2035,2026,2030,2009,2013,2052,2022
2040,2038,2026,2040,2015,2030,2067,2023
2051,2029,2023,2044,2027,2037,2065,2026
2048,2035,2025,2056,2034,2053,2084,2030
2050,2042,2039,2060,2042,2058,2083,2038
2051,2047,2041,2063,2053,2050,2074,2034
2043,2049,2042,2061,2052,2038,2043,2053
2055,2043,2034,2065,2073,2033,2056,2053
2054,2042,2033,2061,2124,2029,2048,2054
2050,2043,2029,2056,2152,2034,2052,2050
2048,2037,2025,2061,2152,2077,2041,2053
2044,2033,2024,2062,2147,2092,2066,2060
2041,2033,2024,2049,2122,2080,2048,2067
2046,2043,2028,2040,2071,2059,2029,2072
2051,2049,2041,2029,2026,2051,2035,2076
2043,2047,2038,2012,2000,2046,2021,2080
2043,2044,2035,2013,1987,2073,2059,2088
2049,2042,2034,2005,1931,2091,2082,2093
2045,2047,2052,2008,1995,2102,2093,2113
2065,2070,2077,2024,2043,2031,2096,2127
2070,2083,2098,2036,2026,1918,2102,2122
2083,2089,2118,2046,1969,1926,2117,2119
2079,2084,2120,2051,1962,1995,2152,2100
2070,2075,2105,2064,2011,2028,2193,2073
2047,2063,2088,2049,2013,2028,2197,2047
2046,2061,2088,2052,2019,2022,2237,2058
2051,2058,2078,2050,2033,2014,2222,2067
2060,2064,2077,2039,2003,2001,2166,2076
2057,2064,2074,2024,2005,2019,2037,2055
2060,2058,2072,2032,2009,2007,2024,2043
2064,2064,2072,2048,2030,2025,2060,2023
2055,2056,2064,2050,2064,2044,1999,2020
2044,2046,2054,2044,2067,2066,2087,2060
2049,2056,2052,2035,2027,2091,2208,2120
2069,2063,2056,2037,2035,2108,2293,2148
2078,2070,2057,2047,2070,2143,2292,2169
2080,2084,2066,2057,2088,2179,2270,2169
2087,2084,2062,2056,2089,2175,2263,2162
2091,2084,2061,2049,2080,2112,2255,2158
2078,2072,2033,2030,2059,2058,2220,2131
2065,2056,2025,2019,2067,2058,2151,2122
2059,2044,2020,2024,2064,2047,2130,2102
2046,2029,2026,2027,2040,2053,2005,2077
2052,2035,2027,2028,2041,2097,1869,2078
2056,2031,2020,2017,1997,2113,1882,2062
2047,2026,2011,2002,1952,2081,1861,2035
2040,2037,2006,1985,1864,2086,1908,2029
2050,2034,1993,1954,1778,2080,1996,2065
2056,2027,2000,1956,1825,2095,2097,2078
2052,2039,2015,2001,1968,2060,2168,2079
2068,2067,2040,2049,2068,2040,2193,2105
2075,2075,2053,2064,2100,2080,2221,2109
2078,2067,2051,2057,2157,2050,2211,2094
2062,2057,2047,2041,2166,1999,2174,2080
2058,2050,2047,2040,2192,1989,2153,2056
2050,2049,2051,2044,2279,2065,2145,2035
2045,2044,2058,2050,2293,2114,2137,2040
2048,2049,2062,2072,2304,2138,2112,2041
2056,2056,2064,2071,2313,2141,2074,2028
2054,2048,2050,2039,2269,2120,1993,2032
2045,2042,2043,2028,2237,2087,1924,2019
2036,2038,2044,2031,2105,2078,1920,2000
2036,2039,2047,2045,2072,2073,1968,2008
2031,2025,2042,2042,2046,2042,1996,2013
2028,2012,2032,2013,2017,2012,1958,2015
2031,2018,2025,2008,2051,2000,1971,2020
2036,2021,2019,1985,1908,1964,1977,2003
2033,2023,2018,1970,1734,1949,2001,1997
2041,2028,2024,1988,1804,1965,2019,2004
2052,2036,2033,2000,1889,1968,1974,2016
2059,2048,2041,2009,1930,1960,1966,2017
2048,2049,2053,2016,1961,1970,1974,2016
2044,2047,2052,2021,1999,2002,2028,2024
2049,2043,2052,2031,2015,2021,2073,2026
2049,2035,2047,2023,2017,2029,2043,2019
2049,2030,2041,2026,2025,2021,1983,2023
2041,2032,2042,2031,2050,2010,1957,2033
2041,2036,2047,2034,2090,1997,1963,2056
2051,2041,2048,2038,2108,1981,1977,2083
2055,2042,2036,2030,2083,1945,1960,2082
2049,2048,2052,2045,2065,1968,1970,2089
2067,2064,2060,2054,2067,1971,1989,2089
2067,2064,2060,2060,2091,1980,1975,2076
2073,2072,2066,2068,2111,1976,2005,2075
2079,2076,2070,2063,2029,1953,1995,2076
2071,2072,2072,2035,1895,1942,2012,2086
2075,2065,2064,2016,1871,1976,2030,2079
2069,2059,2054,2025,1938,2099,2066,2073
2065,2057,2050,2013,1980,2156,2074,2055
2059,2049,2050,2031,2010,2195,2042,2040
2060,2069,2071,2053,2023,2190,2034,2037
2070,2083,2087,2051,1974,2157,2004,2003
2070,2082,2084,2047,2020,2167,1984,2005
2069,2078,2078,2069,2157,2189,1990,2014
2063,2056,2051,2052,2201,2167,1977,1982
2038,2022,2025,2005,2104,2076,1941,1970
2029,2007,2003,1950,1967,1963,1901,1968
2030,2011,2006,1980,2128,1966,1923,1972
2035,2022,2019,2030,2258,2006,1945,1968
2026,2019,2035,2051,2227,1992,1941,1960
2020,2019,2036,2048,2128,1979,1980,1982
2036,2031,2050,2042,1997,2006,2019,1999
2059,2054,2065,2051,1962,2037,2053,2011
2063,2056,2063,2058,2054,2052,2078,2009
2041,2049,2058,2052,2071,2065,2082,2009
2031,2043,2053,2052,2066,2102,2085,2006
2027,2041,2044,2040,2054,2138,2083,2014
2035,2041,2045,2039,2053,2164,2093,2033
2040,2042,2045,2034,2048,2159,2084,2026
2030,2032,2039,2034,2065,2097,2054,2034
2029,2039,2045,2040,2050,1986,2020,2046
2029,2029,2034,2048,2070,1966,1997,2038
2028,2032,2035,2042,2064,1997,2014,2050
2037,2047,2046,2045,2041,2035,2029,2055
2044,2047,2047,2049,2031,2043,2036,2047
2045,2046,2039,2033,1962,2032,2007,2046
2050,2043,2034,2023,1957,2042,2032,2040
2056,2054,2047,2034,1971,2052,2040,2051
2053,2056,2041,2012,1926,2039,2033,2041
2047,2043,2037,2011,1993,2040,2058,2030
2040,2048,2035,2020,2013,2036,2057,2022
2046,2046,2036,2025,1956,2022,2050,2018
2041,2040,2038,2023,1926,2024,2048,2017
2047,2044,2042,2029,1940,2047,2046,2021
2062,2060,2052,2034,1979,2070,2060,2008
2051,2062,2062,2039,1994,2090,2049,1998
2044,2062,2065,2034,2002,2092,2052,1997
2024,2051,2057,2030,2006,2067,2018,2004
2019,2043,2050,2024,2022,2037,2014,2006
2028,2056,2056,2031,2055,2059,2033,2012
2034,2061,2055,2034,2074,2081,2035,2017
2045,2065,2054,2043,2100,2103,2042,2022
2049,2060,2051,2050,2107,2074,2040,2032
2058,2060,2047,2047,2116,2051,2047,2021
2051,2054,2036,2051,2124,2037,2052,2022
2046,2057,2048,2058,2146,2042,2052,2027
2050,2059,2051,2066,2111,2036,2032,2024
2054,2056,2061,2055,2072,2028,2053,2037
2050,2051,2057,2042,2053,2033,2055,2039
2049,2052,2050,2048,2043,2038,2055,2046
2042,2046,2053,2051,2070,2044,2044,2049
2037,2042,2049,2054,2084,2047,2036,2056
2034,2043,2049,2054,2074,2057,2035,2054
2042,2042,2045,2055,2068,2052,2025,2061
2038,2043,2043,2049,2074,2057,2045,2064
2045,2048,2046,2057,2076,2066,2053,2066
2046,2050,2053,2052,2058,2055,2044,2054
2045,2050,2044,2053,2030,2050,2042,2047
2039,2045,2043,2049,2044,2050,2045,2046
2045,2051,2047,2044,2071,2054,2048,2044
2040,2049,2039,2039,2090,2043,2049,2048
2043,2040,2035,2034,2086,2027,2033,2041
2037,2034,2036,2020,2074,2029,2036,2029
2041,2036,2033,2019,2083,2050,2049,2018
2042,2046,2037,2034,2093,2060,2063,2020
2048,2045,2038,2047,2085,2063,2043,2021
2049,2039,2032,2048,2055,2062,2040,2020
2044,2039,2037,2045,1967,2057,2035,2013
2041,2049,2042,2046,1978,2059,2047,2008
2045,2044,2036,2032,1991,2044,2035,2008
2033,2038,2025,2037,2017,2039,2031,2006
2044,2049,2039,2052,2051,2021,2036,2020
2052,2056,2052,2059,2060,2001,2026,2024
2049,2053,2048,2060,2064,2019,2042,2025
2047,2048,2035,2057,2056,2038,2052,2021
2046,2050,2029,2055,2088,2063,2053,2019
2046,2054,2027,2056,2103,2082,2061,2031
2048,2053,2031,2046,2100,2082,2055,2033
2057,2047,2028,2045,2080,2081,2068,2044
2048,2035,2013,2021,2053,2062,2057,2045
2037,2021,2003,2013,2032,2051,2039,2041
2031,2032,2024,2038,2058,2084,2083,2050
2037,2052,2037,2056,2080,2097,2076,2057
2040,2047,2040,2040,2022,2108,2081,2057
2035,2031,2027,2020,1959,2106,2075,2068
2034,2031,2024,2023,1965,2113,2073,2064
2033,2024,2028,2034,2018,2091,2053,2059
2031,2032,2032,2046,2046,2053,2039,2044
2036,2036,2041,2053,2048,2056,2032,2046
2034,2035,2042,2044,2034,2082,2031,2058
2034,2030,2043,2031,2043,2096,2022,2053
2032,2036,2049,2025,2039,2045,2020,2054
2037,2059,2052,2027,2020,1957,2022,2037
2050,2056,2042,2026,2005,1949,2019,2037
2036,2050,2038,2031,2029,1990,2032,2023
2027,2040,2045,2039,2049,2030,2032,2015
2033,2043,2041,2034,2029,2042,2036,2008
2039,2050,2043,2029,2011,2037,2022,1998
2023,2036,2035,2015,1919,2020,2003,1985
2014,2030,2035,2018,1940,1954,2002,1995
2020,2040,2044,2058,2033,1950,2036,2022
2043,2054,2067,2075,2117,2009,2061,2025
2048,2054,2063,2071,2154,2055,2071,2013
2044,2049,2059,2071,2152,2084,2063,2017
2049,2058,2057,2066,2115,2077,2051,2027
2045,2051,2049,2053,2019,2061,2051,2033
2051,2052,2051,2022,1928,2028,2072,2043
2055,2050,2045,2012,1892,2020,2062,2050
2042,2043,2035,2005,1871,2037,2039,2041
2036,2032,2033,1998,1863,2078,2046,2041
2040,2043,2052,2014,1917,2108,2050,2050
2048,2046,2055,2026,1952,2101,2053,2055
2056,2048,2052,2023,1979,2099,2062,2064
2054,2035,2046,2040,2072,2134,2056,2075
2048,2025,2029,2056,2173,2125,2042,2066
2040,2012,2015,2053,2183,2090,2031,2066
2052,2025,2024,2070,2202,2062,2032,2066
2050,2021,2020,2063,2265,2038,1995,2049
2035,2017,2016,2060,2307,2036,2002,2059
2031,2027,2039,2084,2308,2045,2011,2060
2037,2048,2062,2100,2321,2039,2029,2063
2046,2055,2072,2099,2244,2039,2036,2058
2049,2057,2070,2086,2129,2053,2005,2047
2049,2042,2044,2050,2020,2041,2012,2025
2029,2022,2025,1997,1814,1990,1960,2023
2034,2025,2022,1946,1646,1966,1990,2023
2043,2049,2043,1964,1712,1942,2021,2025
2057,2058,2055,1977,1702,1907,2023,2020
2040,2054,2047,1967,1731,1967,2017,2006
2037,2048,2048,2000,1951,2028,2044,2007
2041,2053,2060,2047,2146,2064,2052,2015
2039,2053,2065,2073,2210,2077,2044,2010
2034,2060,2056,2076,2199,2079,2038,2016
2035,2057,2054,2067,2179,2056,2024,2010
2031,2053,2047,2060,2179,2044,2012,2005
2042,2056,2058,2064,2188,2062,2014,2021
2053,2058,2060,2081,2202,2088,2020,2016
2046,2056,2060,2082,2179,2089,2030,2014
2043,2047,2057,2068,2151,2083,2024,2017
2052,2047,2058,2062,2119,2064,2023,2016
2049,2046,2049,2059,2105,2056,2015,2003
2042,2040,2049,2059,2113,2040,2027,2020
2046,2034,2043,2061,2102,2026,2047,2044
2058,2026,2043,2054,2053,2004,2034,2052
2058,2032,2044,2063,2102,2019,2061,2060
2048,2043,2056,2077,2163,2059,2071,2067
2046,2044,2062,2086,2189,2116,2086,2064
2055,2046,2056,2074,2172,2157,2110,2075
2049,2034,2053,2060,2169,2182,2087,2080
2047,2033,2055,2050,2169,2149,2066,2074
2041,2014,2037,2013,2081,2088,2040,2084
2036,2016,2031,2005,2016,2058,2048,2093
2048,2032,2038,2001,1892,2014,2041,2080
2044,2031,2040,1982,1832,2008,2033,2057
2041,2033,2042,2011,1928,2044,2028,2061
2052,2037,2052,2036,1967,2059,2036,2052
2045,2029,2042,2030,1949,2051,2024,2030
2041,2032,2047,2035,1949,2017,2016,2034
2052,2044,2073,2059,1921,1996,2034,2025
2057,2044,2068,2051,1962,2015,2050,2016
2053,2044,2057,2034,2035,2050,2037,2022
2052,2038,2050,2031,2117,2035,2004,2018
2042,2022,2031,2018,2140,1993,1989,1996
2024,2028,2028,2036,2260,1984,1969,1991
2036,2038,2041,2058,2300,2026,2013,2000
2058,2058,2056,2056,2209,2048,2040,2010
2063,2056,2054,2044,2059,2061,2028,2016
2048,2054,2047,2039,1998,2079,2029,2018
2041,2044,2045,2055,2085,2086,2028,2015
2035,2031,2038,2047,1995,2069,2005,2006
2036,2038,2043,2044,1987,2080,2033,2014
2045,2049,2051,2056,2039,2082,2047,2034
2063,2059,2058,2057,2061,2072,2057,2034
2056,2053,2056,2062,2076,2046,2061,2027
2044,2043,2056,2057,2077,2045,2051,2036
2053,2038,2051,2050,2057,2050,2058,2051
2052,2034,2048,2046,2062,2049,2071,2064
2047,2031,2046,2042,2059,2045,2066,2064
2046,2041,2052,2052,2049,2049,2052,2059
2041,2034,2043,2054,2051,2057,2025,2052
2036,2028,2030,2049,2047,2071,2009,2031
2015,2012,2022,2032,2026,2069,2014,2035
2015,2005,2016,2028,2012,2047,1994,2052
2025,2030,2042,2046,2030,2049,2024,2062
2046,2058,2068,2072,2085,2054,2038,2068
2046,2073,2076,2081,2112,2068,2066,2087
2047,2060,2071,2050,2074,2073,2050,2068
2050,2051,2059,2020,1951,2040,2022,2057
2050,2052,2054,2021,1963,2031,2029,2057
2053,2060,2059,2036,2020,2053,2015,2044
2047,2055,2060,2052,2052,2052,2039,2030
2045,2062,2070,2069,2072,2053,2033,2028
2046,2066,2071,2074,2041,2056,2025,2024
2036,2056,2068,2056,1990,2045,2005,2014
2025,2041,2058,2042,1955,2021,2025,2008
2015,2029,2049,2025,1967,2012,2024,2009
2031,2043,2056,2045,2060,2032,2022,2018
2048,2051,2046,2049,2113,2041,2017,2026
2051,2031,2026,2038,2107,2037,2020,2017
2054,2027,2025,2041,2156,2054,2009,2013
2044,2036,2043,2060,2196,2083,2046,2019
2045,2038,2042,2066,2175,2081,2058,2030
2048,2047,2053,2075,2145,2093,2063,2034
2044,2051,2057,2075,2138,2102,2060,2037
2044,2050,2056,2072,2142,2110,2075,2038
2040,2056,2054,2074,2162,2089,2063,2033
2046,2055,2049,2057,2079,2061,2047,2036
2043,2056,2043,2039,1975,2056,2049,2037
2036,2050,2046,2043,1990,2076,2050,2038
2045,2043,2043,2049,2003,2049,2028,2050
2048,2050,2046,2046,1995,2019,2031,2054
2045,2049,2044,2034,2004,2020,2039,2068
2043,2048,2045,2040,2004,2046,2031,2064
2043,2045,2032,2032,1962,2019,2005,2063
2037,2032,2024,2007,1926,1972,1991,2064
2029,2023,2013,1995,1959,1964,1994,2059
2031,2023,2016,1981,1964,1951,2006,2056
2040,2043,2036,2014,2095,1996,2021,2071
2050,2057,2054,2070,2187,2073,2056,2067
2046,2049,2057,2074,2128,2089,2036,2059
2042,2042,2050,2091,2177,2147,2056,2064
2058,2056,2068,2093,2170,2176,2060,2067
2074,2067,2062,2091,2109,2148,2060,2060
2072,2059,2062,2090,2090,2069,2048,2047
2056,2057,2058,2071,2031,2013,2053,2045
2059,2046,2057,2053,1968,1958,2054,2048
2063,2032,2059,2051,2036,1959,2039,2038
2055,2034,2066,2052,2037,1980,2032,2020
2041,2019,2057,2029,1881,1976,2021,2005
2027,2018,2066,2054,1950,2016,2010,2000
2023,2013,2058,2065,2043,2025,1999,1987
2026,2010,2049,2063,2077,2015,2015,1995
2033,2026,2061,2081,2129,2026,1999,2001
2044,2041,2063,2068,2096,2041,2010,2005
2050,2044,2056,2062,2075,2056,2031,2012
2052,2037,2044,2074,2117,2079,2052,2020
2058,2033,2042,2088,2162,2095,2047,2023
2056,2038,2051,2095,2175,2105,2065,2023
2060,2030,2040,2078,2128,2075,2054,2011
2037,2005,2022,2060,2084,2035,2048,2016
2025,1997,2002,2031,2011,2027,2030,2022
2009,1996,1996,2008,1947,2007,2017,2012
1991,2004,2002,1990,1912,2001,1993,2024
2000,2010,1997,1957,1933,2017,2001,2039
2025,2020,2007,1981,2040,2010,2039,2067
2049,2031,2018,2028,2149,2007,2062,2084
2043,2026,2006,2025,2179,2046,2065,2064
2035,2033,2027,2040,2199,2082,2063,2054
2039,2057,2052,2061,2152,2089,2062,2038
2019,2048,2045,2041,2085,2079,2051,2042
2013,2032,2042,2028,2079,2071,2063,2053
2024,2030,2035,2042,2103,2074,2060,2052
2037,2035,2027,2038,2101,2059,2055,2051
2052,2040,2030,2028,2060,2049,2037,2052
2081,2050,2046,2037,2051,2044,2029,2045
2094,2044,2044,2028,2040,2036,2030,2036
2107,2036,2044,2015,2015,2030,2052,2029
2103,2027,2044,2002,1985,2031,2020,2021
2078,2040,2070,2016,1978,2038,2026,2010
2051,2040,2081,2037,1992,2056,2053,2009
2033,2035,2075,2030,1970,2069,2029,2011
2019,2043,2068,2022,1957,2087,2031,2014
2004,2049,2054,2020,1960,2098,2062,2015
2011,2044,2035,2030,1966,2114,2081,2029
2040,2052,2044,2057,2024,2100,2077,2045
2057,2051,2041,2065,2021,2051,2080,2042
2072,2063,2053,2070,2080,2022,2050,2033
2066,2043,2039,2064,2185,2024,2038,2035
2056,2031,2036,2086,2270,2053,2037,2018
2037,2033,2058,2099,2252,2080,2060,2004
2032,2043,2078,2096,2219,2102,2045,2014
2032,2050,2076,2090,2194,2100,2065,2033
2040,2057,2074,2094,2185,2088,2063,2049
2039,2058,2075,2088,2167,2089,2070,2060
2041,2058,2074,2065,2086,2060,2046,2056
2033,2057,2070,2025,1889,2008,2038,2048
2040,2068,2077,2041,1953,2001,2026,2043
2038,2063,2067,2056,2011,1968,2030,2038
2018,2043,2052,2074,2003,1979,2024,2038
2026,2042,2049,2108,2081,2030,2051,2033
2035,2048,2050,2116,2117,2054,2069,2055
2047,2050,2060,2116,2120,2058,2062,2070
2051,2050,2051,2099,2106,2044,2048,2055
2031,2032,2034,2086,2114,2037,2044,2042
2017,2033,2044,2080,2087,2053,2042,2035
2023,2034,2043,2040,1994,2055,2060,2026
2020,2024,2029,2015,1993,2050,2046,2012
2016,2008,2018,2021,2006,2041,2051,1994
1999,2017,2023,2041,2071,2075,2070,1999
2024,2036,2032,2051,2110,2121,2064,2010
2046,2047,2032,2042,2105,2140,2077,2008
2037,2031,2025,2041,2096,2129,2082,2004
2032,2024,2044,2053,2107,2102,2070,2003
2036,2030,2062,2069,2116,2055,2072,2021
2045,2043,2071,2063,2086,2051,2058,2006
2045,2044,2061,2028,1960,2003,2040,2004
2050,2042,2052,1983,1844,1954,2053,2018
2065,2049,2064,2047,2061,1995,2080,2022
2064,2047,2067,2105,2163,2053,2082,2022
2059,2057,2070,2114,2135,2061,2075,2000
2044,2051,2055,2083,2099,2045,2064,1999
2037,2045,2041,2064,2107,2053,2082,2015
2033,2034,2031,2055,2099,2056,2071,2014
2026,2041,2026,2044,2139,2064,2061,2012
2028,2050,2045,2061,2180,2066,2053,2023
2033,2049,2068,2057,2195,2063,2043,2026
2033,2054,2072,2056,2218,2051,2027,2040
2026,2050,2056,2034,2201,2038,2036,2051
2024,2042,2044,2023,2172,2015,2044,2048
2027,2040,2037,2012,2129,2000,2041,2048
2026,2020,2025,2001,2016,1989,2043,2061
2031,2024,2005,1973,1864,1988,2067,2073
2039,2033,2016,2015,1961,2015,2079,2074
2046,2031,2014,2038,2006,2029,2073,2066
2050,2028,2019,2052,2028,2036,2077,2066
2053,2046,2025,2066,2058,2053,2083,2062
2051,2041,2008,2052,2070,2069,2066,2040
2047,2036,2006,2050,2087,2086,2071,2027
2039,2038,1999,2044,2128,2107,2072,2018
2033,2035,1983,2027,2153,2121,2067,2004
2027,2027,1984,2010,2065,2146,2052,2004
2027,2027,1984,1997,1973,2138,2058,2008
2037,2031,1985,1993,1939,2078,2040,2006
2045,2039,1990,1971,1924,1950,2026,2002
2043,2039,1992,1963,1922,1937,2035,1998
2048,2040,2005,1974,1957,1965,2022,1996
2047,2044,2030,2013,2071,2007,2059,2015
2048,2058,2076,2072,2216,2053,2085,2021
2059,2073,2098,2067,2208,2053,2076,2017
2049,2066,2098,2031,2075,2045,2049,2021
2053,2080,2111,2016,2082,2047,2053,2018
2063,2064,2101,2019,2110,2051,2067,2020
2063,2055,2088,2029,2102,2049,2062,2030
2058,2064,2089,2046,2112,2064,2077,2035
2049,2059,2082,2040,2085,2074,2076,2033
2047,2054,2086,2058,2104,2095,2089,2039
2049,2051,2101,2080,2123,2117,2083,2056
2065,2053,2109,2091,2026,2074,2082,2086
2090,2063,2103,2092,2009,2049,2072,2095
2085,2055,2086,2085,2027,2041,2032,2086
2092,2046,2062,2060,1996,2015,2030,2069
2072,2004,2033,2033,1947,1988,2044,2050
2078,1980,2024,2008,1843,1980,2039,2043
2055,1982,2012,1993,1772,1988,2053,2042
2052,1999,2009,1999,1834,2004,2057,2036
2033,2026,2009,2033,1879,2030,2076,2040
2013,2057,2022,2041,1902,2040,2058,2036
2004,2055,2021,2047,1980,2056,2042,2026
2008,2058,2010,2059,2076,2067,2039,2026
2020,2064,2012,2069,2143,2037,2026,2032
2045,2067,2019,2075,2203,2017,2037,2032
2044,2065,2023,2078,2171,2027,2061,2030
2060,2074,2035,2091,2170,2048,2063,2020
2046,2071,2047,2085,2159,2047,2046,1998
2032,2063,2050,2080,2123,2042,2033,2008
2044,2063,2077,2087,2078,2042,2048,2014
2050,2057,2090,2100,2100,2047,2055,2003
2052,2057,2096,2113,2102,2054,2058,2003
2047,2052,2089,2124,2091,2055,2028,2000
2037,2043,2078,2119,2062,2049,2020,2000
2036,2042,2059,2111,2056,2056,2027,2003
2036,2035,2060,2107,2056,2048,2030,2011
2058,2042,2065,2105,2056,2038,2030,2021
2065,2052,2069,2096,2045,2044,2035,2016
2064,2055,2073,2068,2035,2036,2044,2012
2068,2061,2065,2034,2046,2031,2060,1996
2047,2042,2052,2002,2046,2045,2067,2014
2042,2043,2054,1999,2072,2031,2070,2039
2043,2058,2079,2009,2081,1993,2079,2049
2033,2068,2084,2013,2103,2020,2084,2064
2038,2079,2088,2023,2120,2055,2084,2069
2052,2088,2101,2023,2083,2060,2066,2068
2050,2096,2098,2028,2082,2073,2053,2068
2051,2098,2091,2025,2083,2101,2072,2066
2042,2068,2063,2015,2067,2107,2088,2068
2052,2052,2050,2018,2058,2085,2061,2062
2053,2056,2050,2025,2046,2048,2040,2054
2037,2058,2045,2033,2045,2035,2041,2045
2033,2051,2032,2034,2041,2025,2038,2041
2037,2040,2022,2039,2064,2037,2056,2042
2048,2047,2012,2043,2100,2056,2061,2047
2053,2044,2010,2045,2098,2053,2049,2046
2053,2045,2004,2045,2083,2036,2045,2024
2048,2041,2005,2054,2070,2023,2046,2013
2045,2038,2008,2076,2075,2020,2037,2001
2044,2039,2023,2094,2074,2019,2038,2007
2042,2040,2033,2098,2068,2016,2040,2012
2043,2036,2037,2093,2069,2030,2036,2016
2053,2038,2038,2091,2076,2037,2044,2025
2055,2034,2014,2086,2067,2033,2048,2020
2050,2025,2005,2081,2067,2032,2040,2009
2040,2030,2004,2086,2060,2027,2042,2006
2040,2042,2017,2089,2066,2036,2040,1997
2042,2050,2020,2087,2066,2042,2045,1994
2029,2038,2022,2078,2058,2053,2051,1991
2031,2044,2027,2079,2060,2060,2052,1999
2033,2047,2028,2067,2060,2070,2056,2009
2037,2041,2029,2060,2058,2101,2067,2012
2040,2043,2039,2054,2053,2124,2051,2007
2038,2047,2047,2030,2045,2096,2043,2016
2032,2042,2061,2008,2045,2071,2015,2025
2038,2045,2071,1996,2037,2049,2016,2028
2030,2058,2086,1980,2034,2030,1994,2026
2019,2069,2084,1983,2040,2027,2013,2043
2036,2080,2084,1993,2050,2041,2031,2057
2046,2082,2075,2005,2061,2059,2045,2063
2046,2072,2071,2012,2061,2054,2060,2065
2043,2064,2073,2021,2056,2051,2069,2067
2046,2059,2071,2028,2057,2049,2039,2061
2039,2050,2067,2033,2049,2041,2034,2050
2034,2049,2066,2045,2038,2042,2036,2047
2032,2047,2068,2049,2046,2043,2041,2046
2037,2055,2074,2053,2045,2045,2022,2037
2040,2055,2060,2047,2036,2048,2038,2021
2038,2046,2041,2040,2023,2046,2034,2014
2031,2037,2029,2046,2016,2066,2040,1991
2037,2036,2043,2055,2006,2078,2042,1967
2029,2039,2058,2057,2023,2101,2054,1963
2034,2053,2082,2092,2072,2116,2065,1976
2047,2060,2080,2109,2085,2106,2068,1967
2055,2073,2077,2119,2091,2052,2065,1972
2064,2069,2060,2125,2107,2021,2054,1966
2051,2047,2027,2102,2074,1997,2044,1955
2037,2036,2005,2104,2072,2015,2056,1956
2050,2061,2024,2120,2092,2047,2046,1967
2069,2062,2008,2114,2086,2057,2071,1974
2068,2049,1987,2109,2075,2050,2058,1957
2058,2034,1979,2098,2068,2052,2032,1948
2065,2036,1980,2086,2069,2041,2054,1956
2064,2029,1994,2092,2068,2046,2052,1965
2061,2030,2002,2080,2060,2049,2046,1967
2056,2027,1998,2055,2042,2050,2036,1968
2036,2017,1993,2033,2041,2042,2031,1978
2029,2022,2010,2023,2039,2048,2031,1990
2018,2033,2036,2023,2046,2038,2040,1994
1997,2025,2025,2015,2044,2038,2066,2015
2017,2032,2020,2016,2045,2047,2082,2029
2025,2031,2025,2021,2049,2047,2071,2025
2024,2034,2040,2003,2035,2055,2042,2021
2030,2049,2078,2018,2040,2058,2034,2018
2034,2061,2123,2031,2040,2058,2045,2021
2043,2079,2155,2056,2057,2055,2046,2016
2046,2088,2157,2077,2067,2063,2048,2020
2054,2088,2136,2090,2075,2075,2057,2014
2050,2083,2120,2091,2072,2077,2052,2004
2047,2078,2091,2076,2063,2071,2035,1992
2044,2059,2065,2064,2048,2053,2043,1997
2042,2049,2055,2062,2044,2048,2036,1983
2038,2047,2048,2062,2044,2035,2040,1979
2039,2044,2053,2071,2043,1973,2016,1970
2040,2045,2055,2076,2051,1967,2031,1976
2037,2047,2052,2073,2051,1987,2027,1971
2034,2039,2046,2069,2053,2016,2036,1969
2040,2030,2036,2067,2050,2027,2023,1963
2028,2013,2016,2045,2044,2025,2011,1954
2016,2002,2005,2032,2042,2032,2011,1955
2021,2002,2004,2035,2045,2040,2019,1957
2039,2013,2012,2037,2047,2049,2022,1956
2047,2025,2067,2064,2053,2049,2032,1960
2046,2031,2105,2097,2069,2052,2046,1966
2048,2046,2114,2114,2072,2054,2058,1969
2054,2051,2097,2121,2076,2055,2051,1975
2053,2047,2074,2132,2074,2053,2057,1986
2058,2053,2065,2137,2079,2053,2046,1997
2057,2056,2047,2137,2075,2051,2029,2004
2052,2064,2032,2136,2076,2053,2058,2003
2053,2058,2028,2141,2074,2050,2050,1994
2036,2047,2023,2132,2071,2051,2056,1985
2021,2042,2016,2117,2072,2062,2055,2002
2030,2051,2009,2118,2076,2064,2040,2008
2040,2059,2013,2102,2070,2049,2024,2001
2033,2040,1992,2073,2050,2032,2014,1989
2020,2028,1985,2054,2043,2035,2015,1995
2019,2048,2008,2055,2037,2038,2037,2002
2032,2068,2028,2041,2034,2031,2047,2016
2054,2083,2051,2028,2045,2043,2066,2032
2066,2099,2063,2014,2047,2043,2051,2029
2068,2097,2063,2007,2037,2024,2051,2032
2069,2083,2067,2015,2030,2025,2045,2024
2075,2092,2091,2024,2031,2034,2038,1998
2068,2108,2116,2035,2047,2044,2046,1992
2060,2102,2121,2030,2040,2039,2062,1992
2057,2093,2126,2036,2037,2049,2070,2000
2053,2088,2117,2050,2040,2052,2082,2003
2062,2092,2114,2054,2045,2053,2064,1995
2068,2088,2090,2047,2044,2047,2061,1993
2058,2074,2076,2047,2045,2042,2065,1980
2050,2062,2067,2044,2040,2040,2069,1979
2048,2067,2057,2056,2043,2043,2067,1985
2055,2080,2064,2058,2053,2049,2063,1979
2054,2086,2063,2062,2055,2050,2054,1971
2058,2081,2060,2057,2048,2050,2072,1987
2060,2078,2047,2053,2035,2050,2072,1990
2057,2071,2039,2053,2034,2046,2060,1992
2040,2055,2031,2052,2026,2045,2043,1981
2035,2058,2040,2056,2037,2074,2055,1996
2049,2072,2045,2053,2041,2092,2068,2006
2056,2072,2043,2046,2037,2084,2064,2013
2050,2065,2042,2036,1998,2050,2033,2015
2032,2064,2046,2027,1952,2000,2049,2030
2033,2069,2054,2037,1991,1962,2045,2038
2047,2064,2059,2052,2033,1990,2041,2034
2047,2067,2063,2064,2064,2029,2068,2040
2046,2064,2059,2074,2080,2050,2061,2048
2050,2059,2055,2081,2106,2075,2063,2050
2042,2059,2050,2074,2106,2083,2054,2043
2050,2060,2036,2055,2092,2085,2045,2040
2054,2054,2009,2044,2073,2079,2032,2024
2045,2048,2003,2032,2010,2062,2035,2021
2046,2040,1987,2029,2000,2068,2034,2008
2043,2031,1970,2027,1943,2073,2043,1998
2049,2039,1970,2038,1916,2071,2030,1985
2052,2044,1970,2031,1904,2070,2027,1967
2048,2043,1960,2042,1950,2054,2045,1978
2061,2062,1981,2085,2061,2057,2063,1998
2064,2068,1976,2096,2108,2083,2057,1995
2053,2060,1970,2109,2165,2116,2065,1997
2051,2060,1977,2109,2166,2101,2044,2000
2062,2068,1985,2107,2120,2051,2047,1989
2057,2060,1998,2087,2096,2028,2034,1990
2056,2050,2006,2089,2090,2028,2041,1986
2064,2047,2027,2076,2071,2022,2014,1985
2052,2043,2056,2062,2064,2030,2030,1992
2050,2051,2086,2058,2069,2028,2040,2001
2055,2062,2117,2058,2057,2013,2033,2013
2052,2066,2123,2047,2044,2005,2023,2011
2044,2065,2124,2024,2022,2006,2023,2009
2031,2060,2133,2010,2024,2019,2012,2007
2024,2058,2134,2032,2050,2031,2019,2028
2033,2066,2139,2051,2073,2049,2044,2039
2048,2076,2125,2061,2084,2073,2050,2055
2061,2079,2119,2064,2093,2087,2067,2070
2065,2083,2097,2068,2092,2093,2034,2066
2065,2074,2076,2057,2074,2086,2063,2072
2065,2064,2065,2057,2057,2081,2071,2074
2057,2049,2058,2060,2049,2077,2074,2065
2060,2066,2068,2069,2036,2057,2038,2068
2059,2075,2081,2077,2024,2009,2024,2064
2051,2076,2084,2069,1994,1976,2004,2047
2045,2070,2072,2058,2002,1978,1990,2040
2043,2065,2069,2060,2025,2006,2002,2024
2038,2054,2047,2041,2029,2028,2028,2006
2031,2044,2037,2030,2026,2038,2035,2001
2028,2042,2049,2030,2026,2049,2046,2004
2043,2048,2053,2034,2031,2053,2047,2013
2049,2057,2059,2039,2036,2050,2053,2016
2049,2058,2055,2045,2014,2053,2048,2006
2051,2054,2050,2037,1987,2044,2018,1997
2044,2050,2051,2035,1984,2042,2012,2002
2048,2052,2053,2040,1998,2045,2028,2004
2048,2052,2049,2052,1996,2019,2017,2003
2043,2052,2052,2059,2023,2013,2042,2011
2053,2064,2056,2071,2052,2026,2055,2021
2062,2068,2058,2064,2059,2035,2047,2024
2063,2065,2055,2060,2052,2042,2066,2020
2062,2056,2049,2058,2033,2045,2051,2016
2057,2050,2039,2053,2040,2047,2052,2025
2055,2049,2039,2049,2055,2056,2053,2028
2057,2054,2043,2053,2059,2053,2054,2025
2049,2058,2045,2064,2066,2040,2029,2030
2050,2056,2046,2085,2103,2039,2028,2035
2044,2056,2046,2099,2095,2058,2036,2045
2042,2052,2049,2099,2072,2060,2050,2051
2044,2054,2045,2095,2073,2070,2065,2064
2056,2060,2050,2093,2092,2065,2059,2068
2053,2055,2052,2102,2087,2044,2050,2075
2060,2056,2046,2094,2071,2043,2050,2070
2046,2046,2052,2076,2075,2051,2057,2072
2054,2058,2057,2080,2057,2054,2065,2071
2062,2059,2058,2072,2038,2081,2068,2072
2060,2066,2055,2066,2030,2095,2072,2066
2058,2064,2046,2048,2005,2083,2062,2059
2057,2057,2040,2036,1988,2072,2036,2043
2051,2053,2043,2030,1984,2078,2055,2034
2056,2045,2036,2029,1998,2076,2054,2031
2047,2048,2040,2028,2022,2068,2034,2020
2052,2051,2044,2029,2044,2047,2050,2023
2061,2058,2045,2042,2094,2033,2033,2023
2057,2055,2048,2057,2093,2017,2042,2029
2060,2061,2051,2057,2100,2013,2034,2018
2053,2049,2043,2050,2111,2028,2041,2016
2051,2048,2040,2054,2118,2029,2060,2019
2063,2049,2048,2058,2109,2038,2037,2016
2045,2039,2054,2039,2073,2056,2047,2009
2050,2046,2066,2035,2063,2075,2053,2008
2046,2048,2063,2033,2067,2062,2027,2008
2043,2056,2074,2055,2082,2074,2047,2021
2047,2065,2090,2070,2085,2070,2060,2033
2050,2072,2101,2079,2096,2058,2035,2035
2061,2072,2105,2080,2016,2054,2045,2036
2066,2078,2092,2067,1977,2067,2081,2032
2055,2075,2091,2055,1993,2074,2063,2032
2053,2070,2082,2057,1996,2045,2058,2033
2043,2060,2070,2064,1997,2022,2022,2042
2035,2054,2058,2062,2026,1980,2033,2054
2039,2059,2058,2063,2027,1953,2037,2068
2048,2058,2053,2045,1944,1983,2053,2079
2051,2049,2041,2042,1942,2031,2073,2083
2043,2044,2033,2043,1995,2048,2075,2080
2050,2038,2035,2041,2009,2033,2070,2088
2058,2056,2035,2048,2034,2009,2069,2093
2060,2057,2033,2046,2070,1974,2070,2091
2069,2058,2041,2042,2050,1965,2061,2084
2065,2057,2039,2046,2055,2004,2053,2077
2069,2058,2049,2060,2079,2038,2052,2069
2068,2048,2031,2052,2060,2023,2043,2056
2063,2039,2023,2035,2040,1997,2040,2044
2056,2026,2014,2025,2049,2006,2024,2041
2057,2029,2024,2018,1989,2036,2055,2034
2060,2037,2032,2011,1945,2075,2036,2029
2052,2041,2034,2026,1977,2098,2044,2019
2049,2047,2044,2045,2018,2074,2033,1999
2041,2059,2052,2053,2033,1988,2013,1995
2034,2061,2043,2050,2042,1997,2035,2013
2036,2043,2028,2041,2032,2062,2039,2013
2031,2026,2016,2030,2022,2103,2020,2016
2035,2037,2026,2031,2024,2104,2035,2027
2056,2054,2042,2049,2032,2107,2038,2030
2067,2061,2057,2059,2049,2103,2048,2046
2068,2068,2066,2067,2058,2073,2056,2037
2058,2066,2063,2068,2062,2054,2035,2034
2052,2055,2054,2062,2042,1990,2011,2028
2044,2049,2053,2059,2028,1975,2028,2035
2053,2059,2060,2063,2029,1994,2005,2042
2052,2059,2059,2057,2035,2024,2020,2052
2058,2054,2045,2051,2031,2037,2024,2061
2057,2052,2039,2047,2022,2040,2009,2069
2052,2048,2039,2039,2009,2038,2037,2068
2057,2050,2040,2040,2024,2050,2060,2078
2050,2041,2033,2045,2034,2061,2059,2084
2054,2037,2025,2041,2029,2056,2036,2072
2040,2024,2016,2032,2026,2059,2044,2066
2042,2023,2021,2037,2017,2061,2033,2074
2040,2026,2027,2033,2024,2062,2056,2078
2048,2041,2036,2040,2028,2065,2042,2075
2044,2044,2038,2044,2032,2062,2055,2064
2037,2048,2025,2049,2032,2057,2069,2057
2043,2048,2018,2044,2025,2049,2062,2047
2046,2050,2012,2044,2026,2047,2061,2041
2044,2050,2013,2044,2028,2050,2062,2036
2051,2038,2018,2050,2034,2060,2077,2031
2053,2039,2027,2054,2035,2062,2066,2036
2051,2034,2036,2053,2030,2055,2062,2038
2042,2029,2042,2054,2028,2052,2056,2024
2040,2030,2051,2063,2034,2058,2068,2020
2058,2038,2056,2064,2038,2056,2070,2014
2044,2030,2051,2063,2037,2055,2061,2012
2047,2037,2042,2067,2036,2054,2061,2028
2052,2051,2045,2065,2042,2047,2056,2036
2060,2043,2031,2060,2033,2039,2033,2035
2061,2046,2033,2070,2043,2048,2061,2044
2063,2068,2066,2085,2058,2056,2074,2037
2069,2067,2067,2083,2051,2055,2072,2037
2060,2064,2051,2070,2044,2053,2062,2043
2051,2051,2041,2060,2043,2062,2065,2050
2044,2056,2053,2058,2052,2074,2073,2057
2042,2059,2054,2046,2050,2078,2062,2064
2045,2056,2046,2036,2051,2087,2070,2069
2056,2058,2058,2034,2050,2081,2060,2075
2064,2068,2075,2035,2056,2076,2071,2087
2066,2076,2078,2030,2053,2080,2064,2097
2060,2063,2062,2027,2051,2075,2064,2093
2047,2047,2054,2023,2048,2057,2054,2089
2045,2042,2053,2025,2048,2047,2057,2092
2053,2061,2071,2044,2050,2055,2076,2098
2058,2066,2070,2048,2048,2055,2070,2093
2061,2065,2072,2045,2045,2060,2066,2088
2055,2060,2066,2048,2037,2060,2068,2082
2056,2063,2067,2047,2030,2060,2066,2075
2055,2056,2058,2038,2024,2032,2058,2069
2051,2055,2050,2040,2002,2002,2063,2054
2058,2057,2048,2035,1995,2010,2056,2054
2054,2051,2048,2039,1996,2027,2067,2047
2056,2051,2046,2040,2002,2040,2076,2049
2055,2050,2046,2035,2009,2047,2066,2042
2053,2040,2044,2037,2015,2045,2051,2039
2053,2044,2043,2037,1988,2031,2044,2034
2047,2046,2037,2040,2005,2024,2038,2033
2044,2042,2039,2043,2026,2022,2026,2032
2052,2049,2056,2056,2036,2023,2024,2040
2052,2066,2073,2062,2058,2034,2047,2046
2060,2063,2073,2068,2049,2042,2025,2039
2055,2057,2064,2065,2041,2041,2048,2038
2052,2053,2055,2055,2039,2040,2054,2048
2055,2049,2046,2032,2015,2025,2058,2052
2053,2055,2057,2040,2051,2045,2067,2053
2063,2066,2066,2058,2066,2057,2063,2062
2058,2063,2062,2053,2065,2064,2062,2062
2060,2059,2060,2058,2063,2065,2054,2078
2053,2056,2058,2059,2057,2065,2066,2084
2054,2052,2052,2052,2052,2060,2078,2089
2052,2044,2045,2044,2043,2051,2051,2083
2048,2042,2041,2037,2035,2040,2037,2079
2044,2045,2044,2041,2040,2047,2046,2086
2042,2044,2031,2041,2039,2054,2056,2091
2049,2047,2026,2043,2040,2055,2069,2101
2055,2051,2033,2044,2044,2054,2056,2094
2057,2047,2028,2043,2040,2047,2031,2086
2051,2050,2024,2040,2037,2017,2025,2075
2050,2046,2022,2040,2037,1997,2028,2073
2053,2042,2020,2042,2033,1996,2035,2075
2057,2045,2025,2037,2030,2005,2032,2079
2056,2048,2028,2041,2032,2008,2054,2066
2053,2051,2040,2049,2026,2018,2052,2063
2059,2058,2050,2051,2016,2012,2057,2057
2059,2050,2058,2046,2017,2012,2053,2042
2045,2043,2073,2050,2028,2022,2046,2034
2044,2049,2102,2080,2057,2046,2049,2042
2053,2048,2110,2091,2062,2050,2057,2041
2052,2052,2102,2087,2054,2043,2046,2042
2046,2043,2091,2074,2042,2037,2044,2038
2045,2041,2084,2074,2044,2048,2048,2043
2053,2054,2091,2085,2059,2062,2042,2046
2054,2065,2084,2087,2062,2069,2058,2047
2065,2067,2081,2083,2062,2054,2059,2050
2062,2070,2068,2078,2037,2022,2045,2051
2058,2056,2055,2065,2002,2001,2032,2050
2048,2048,2045,2055,1997,1997,2034,2048
2044,2049,2050,2052,2000,1994,2038,2049
2049,2056,2051,2057,2028,2024,2041,2056
2063,2067,2065,2073,2083,2057,2064,2068
2060,2065,2061,2068,2113,2059,2067,2076
2063,2059,2060,2065,2105,2053,2069,2088
2058,2056,2067,2051,2085,2042,2069,2095
2062,2054,2074,2033,2047,2030,2058,2100
2056,2051,2062,2025,2008,2031,2048,2095
2041,2040,2049,2018,2004,2047,2050,2094
2049,2044,2050,2038,2057,2067,2076,2102
2061,2062,2053,2056,2080,2070,2073,2100
2062,2050,2044,2054,2069,2076,2083,2094
2057,2048,2037,2036,2062,2081,2072,2094
2062,2040,2027,2034,2046,2067,2069,2085
2070,2037,2026,2029,2032,2037,2062,2076
2068,2050,2031,2024,2005,2012,2057,2061
2072,2050,2036,2029,2015,2017,2056,2059
2071,2055,2047,2029,2031,2040,2060,2053
2059,2050,2039,2037,2028,2038,2036,2054
2054,2047,2037,2038,2027,2038,2035,2048
2053,2042,2042,2035,2027,2061,2020,2033
2048,2041,2040,2030,2020,2068,2011,2038
2054,2045,2044,2030,2018,2072,2025,2029
2052,2045,2035,2029,2007,2076,2035,2027
2039,2035,2025,2025,2006,2036,2037,2041
2044,2036,2031,2037,2029,1986,2040,2048
2057,2047,2041,2043,2040,2006,2037,2048
2056,2044,2036,2030,2015,2033,2027,2047
2061,2046,2037,2027,2011,2030,2040,2060
2063,2047,2043,2034,2023,2022,2023,2068
2064,2060,2048,2047,2036,2034,2028,2053
2057,2064,2052,2049,2045,2053,2041,2054
2053,2061,2056,2049,2039,2062,2066,2059
2052,2054,2053,2043,2028,2064,2057,2063
2051,2045,2044,2047,2042,2094,2081,2072
2045,2038,2044,2060,2065,2102,2043,2084
2057,2041,2042,2060,2063,2078,2067,2079
2054,2045,2048,2056,2056,2083,2059,2082
2060,2052,2058,2058,2037,2096,2054,2086
2061,2052,2062,2057,2024,2083,2037,2078
2052,2036,2047,2046,1995,2060,2035,2074
2047,2032,2043,2045,2002,2033,2037,2078
2050,2046,2064,2062,2041,2010,2039,2074
2053,2052,2064,2077,2064,2000,2039,2073
2056,2056,2068,2077,2057,1996,2028,2074
2062,2061,2067,2065,2052,2017,2040,2077
2061,2059,2061,2058,2035,2011,2042,2078
2049,2049,2050,2050,2013,2020,2036,2065
2059,2047,2049,2043,2005,2028,2046,2071
2071,2059,2051,2044,2006,2006,2039,2070
2075,2062,2056,2042,2040,2012,2022,2059
2062,2052,2047,2041,2079,2023,2027,2062
2059,2051,2049,2038,2066,2005,2027,2054
2056,2046,2041,2035,2061,2003,2048,2055
2053,2048,2034,2027,2085,2004,2049,2054
2050,2044,2029,2020,2085,2016,2039,2053
2052,2033,2024,2023,2123,2028,2046,2048
2044,2033,2031,2039,2122,2043,2048,2042
2044,2043,2037,2045,2068,2041,2047,2046
2041,2042,2048,2042,1939,2014,2051,2048
2047,2044,2054,2041,1942,2019,2054,2055
2055,2045,2061,2051,1996,2035,2048,2053
2054,2048,2056,2052,2044,2070,2039,2063
2047,2043,2054,2047,2064,2072,2035,2058
2049,2042,2048,2042,2049,2047,2031,2061
2047,2045,2049,2056,2053,2029,2015,2078
2049,2041,2050,2060,2051,1991,2042,2080
2045,2044,2048,2055,2027,1996,2050,2084
2052,2045,2049,2052,2027,2048,2061,2103
2058,2051,2050,2051,2029,2102,2059,2108
2056,2045,2042,2047,2036,2108,2074,2107
2057,2048,2048,2051,2042,2074,2062,2101
2048,2035,2044,2042,2022,2038,2035,2091
2035,2033,2038,2029,1986,2016,2033,2103
2046,2048,2044,2038,1994,2016,2027,2097
2052,2049,2056,2048,2035,2030,2041,2101
2051,2050,2053,2048,2050,2043,2039,2097
2045,2046,2059,2046,2025,2033,2054,2093
2054,2048,2063,2047,2009,2048,2050,2095
2055,2054,2056,2053,2008,2065,2070,2095
2061,2049,2048,2053,2009,2067,2057,2083
2062,2053,2051,2044,2011,2058,2035,2073
2056,2048,2045,2036,2007,2032,2040,2055
2049,2044,2039,2034,2041,2063,2054,2058
2046,2046,2048,2052,2097,2096,2065,2060
2044,2046,2043,2062,2133,2115,2068,2062
2045,2051,2048,2071,2148,2127,2050,2060
2047,2047,2044,2074,2152,2156,2042,2064
2040,2038,2042,2071,2115,2184,2025,2052
2046,2039,2041,2059,2071,2179,2022,2058
2057,2050,2052,2077,2080,2104,2039,2054
2060,2052,2050,2073,2077,1998,2028,2056
2046,2045,2040,2053,2045,1965,2034,2056
2053,2041,2041,2039,1983,1979,2046,2054
2041,2049,2038,2028,1900,1993,2040,2054
2049,2057,2049,2039,1936,1986,2038,2063
2053,2048,2051,2048,1977,2016,2045,2069
2060,2053,2049,2054,2037,2039,2036,2078
2058,2045,2049,2057,2070,2052,2044,2086
2060,2046,2044,2057,2070,2045,2033,2094
2068,2036,2035,2053,2036,2033,2024,2083
2060,2035,2029,2036,2005,2010,2010,2086
2050,2022,2023,2011,1973,2007,1993,2089
2041,2018,2013,2014,1975,2008,2007,2086
2042,2012,2006,2014,1961,2008,2004,2083
2045,2018,2013,2014,1956,2006,2010,2082
2042,2027,2016,2024,1981,1963,2010,2087
2039,2029,2019,2043,2032,1960,2009,2082
2022,2030,2027,2048,2070,1999,2051,2082
2031,2028,2031,2057,2092,2024,2052,2076
2026,2032,2034,2054,2075,2029,2053,2077
2044,2034,2026,2054,2051,2014,2053,2076
2049,2033,2021,2045,2034,2017,2054,2082
2056,2041,2025,2045,2032,2033,2081,2077
2067,2049,2025,2050,2039,2027,2061,2064
2056,2038,2029,2051,2050,2023,2056,2060
2048,2038,2029,2049,2053,2046,2036,2061
2039,2045,2031,2043,2021,2060,2046,2050
2037,2044,2026,2028,1957,2045,2035,2042
2038,2041,2032,2014,1917,2038,2031,2036
2037,2032,2018,2001,1904,2025,2016,2032
2036,2029,2018,1997,1905,1988,2033,2045
2049,2038,2029,2027,2004,1990,2037,2068
2059,2056,2052,2064,2099,2059,2073,2080
2064,2062,2059,2072,2102,2086,2076,2073
2059,2060,2053,2059,2097,2092,2072,2076
2060,2054,2046,2049,2057,2072,2073,2070
2056,2056,2044,2038,2018,2043,2054,2075
2050,2050,2038,2026,1989,2025,2042,2065
2043,2040,2035,2022,1997,2036,2035,2079
2054,2047,2059,2049,2056,2058,2026,2100
2070,2064,2081,2074,2117,2094,2061,2123
2066,2056,2074,2079,2130,2104,2064,2121
2062,2050,2064,2073,2144,2092,2060,2120
2061,2057,2061,2065,2121,2076,2060,2125
2055,2060,2071,2072,2106,2085,2058,2110
2052,2054,2065,2062,2082,2083,2065,2114
2057,2057,2072,2065,2070,2080,2097,2125
2060,2068,2075,2060,2046,2054,2069,2126
2061,2070,2074,2058,2044,2050,2065,2121
2064,2065,2067,2056,2059,2050,2059,2097
2064,2061,2059,2036,2000,2027,2050,2088
2054,2058,2061,2031,1938,2029,2044,2088
2058,2063,2062,2050,2011,2057,2022,2077
2050,2056,2064,2059,2058,2057,2037,2068
2052,2050,2055,2053,2080,2056,2040,2063
2043,2047,2049,2051,2113,2068,2037,2057
2047,2047,2047,2048,2104,2076,2034,2052
2048,2042,2045,2045,2092,2090,2025,2045
2053,2046,2041,2041,2075,2098,2022,2052
2058,2050,2042,2043,2066,2080,2049,2059
2050,2049,2043,2045,2057,2049,2046,2049
2040,2040,2042,2034,2046,2034,2051,2051
2044,2038,2037,2036,2051,2032,2075,2063
2059,2053,2047,2041,2050,2022,2061,2066
2059,2051,2043,2041,2036,2029,2060,2064
2059,2047,2042,2037,2035,2035,2053,2066
2058,2045,2044,2034,2050,2043,2050,2070
2060,2057,2053,2044,2066,2064,2047,2085
2055,2053,2054,2046,2076,2069,2054,2080
2056,2059,2054,2042,2056,2070,2062,2092
2058,2052,2046,2039,2027,2068,2047,2094
2061,2045,2040,2036,2021,2073,2044,2106
2056,2047,2041,2034,2032,2074,2035,2104
2061,2045,2044,2032,2019,2057,2038,2110
2050,2046,2042,2022,1997,2028,2014,2102
2048,2040,2030,2024,1988,2004,2016,2099
2041,2037,2032,2022,1952,1978,2014,2090
2035,2033,2032,2020,1952,1957,2025,2093
2035,2030,2029,2015,1969,1952,2024,2091
2037,2030,2023,2025,2016,1979,2024,2087
2036,2028,2030,2048,2094,2013,2045,2086
2044,2041,2038,2062,2138,2043,2056,2094
2054,2046,2042,2067,2152,2043,2052,2086
2054,2042,2043,2063,2128,2040,2058,2078
2057,2044,2043,2055,2106,2076,2065,2074
2049,2042,2039,2042,2048,2061,2065,2060
2050,2037,2039,2033,2006,2030,2048,2052
2045,2039,2043,2028,2012,2014,2054,2060
2052,2046,2042,2033,2027,2018,2047,2056
2050,2046,2040,2035,2033,2026,2040,2051
2050,2048,2047,2036,2022,2037,2045,2045
2046,2048,2049,2049,2016,2037,2047,2052
2048,2051,2046,2034,1992,2011,2027,2034
2031,2029,2029,2013,1957,2000,2010,2028
2036,2028,2038,2020,1988,1988,2018,2058
2040,2034,2052,2047,2044,2027,2054,2072
2046,2042,2052,2049,2089,2043,2065,2064
2045,2037,2039,2040,2130,2054,2075,2063
2048,2043,2047,2053,2212,2096,2094,2066
2059,2048,2057,2057,2274,2161,2091,2067
2057,2044,2050,2044,2187,2178,2092,2074
2054,2043,2044,2038,2109,2179,2081,2089
2056,2040,2045,2031,2051,2116,2075,2096
2060,2051,2060,2047,2036,2021,2035,2100
2062,2059,2059,2064,2051,2041,2037,2097
2063,2057,2055,2064,1992,2074,2031,2091
2061,2046,2052,2043,1944,2102,2038,2091
2060,2039,2045,2041,1970,2083,2045,2097
2048,2042,2044,2027,1971,2034,2015,2084
2045,2032,2039,2032,2014,2008,2025,2096
2043,2039,2049,2046,2046,1969,2039,2106
2052,2042,2036,2036,2037,1962,2041,2095
2046,2034,2022,2020,1995,2020,2058,2083
2038,2028,2021,2014,1965,2072,2069,2083
2043,2036,2028,2025,1970,2094,2073,2087
2053,2043,2036,2024,1958,2072,2076,2079
2059,2047,2039,2036,1954,1994,2055,2086
2053,2044,2036,2042,1937,1956,2043,2070
2047,2049,2033,2044,2012,1982,2044,2066
2054,2044,2044,2071,2096,2005,2059,2062
2052,2040,2026,2056,2095,2003,2042,2053
2040,2022,2009,2039,2076,2010,2034,2043
2037,2020,2002,2043,2082,2010,2039,2041
2033,2021,2000,2044,2106,2006,2038,2039
2042,2024,1997,2036,2100,1988,2034,2039
2040,2014,2005,2036,2076,2021,2047,2040
2035,2013,2013,2029,2004,2056,2071,2045
2047,2023,2024,2021,1932,2076,2085,2060
2052,2033,2041,2035,1968,2080,2081,2063
2049,2041,2047,2054,2041,2054,2031,2061
2047,2047,2053,2081,2113,2022,2018,2059
2053,2056,2072,2096,2094,2026,1997,2061
2059,2061,2073,2094,2088,2038,2018,2060
2059,2057,2074,2090,2094,2063,2063,2061
2060,2052,2070,2088,2096,2096,2081,2070
2062,2043,2059,2082,2099,2117,2073,2077
2062,2034,2042,2084,2086,2101,2079,2086
2067,2026,2038,2076,2083,2076,2074,2098
2061,2025,2035,2065,2054,2023,2036,2095
2044,2016,2031,2034,1977,1953,2005,2090
2030,2005,2015,2018,1971,1955,2011,2073
2016,1999,2020,2018,1965,1970,2014,2065
2007,2013,2021,2012,1958,1998,2037,2059
2009,2018,2028,2025,1983,2017,2031,2044
2015,2018,2030,2052,2032,2050,2041,2040
2017,2014,2038,2072,2059,2064,2057,2052
2019,2019,2045,2088,2068,2078,2049,2060
2034,2027,2057,2073,2053,2059,2009,2071
2042,2025,2043,2068,2045,2051,2010,2056
2046,2043,2052,2088,2068,2035,2006,2056
2056,2049,2051,2099,2084,2034,2032,2044
2050,2047,2041,2094,2092,2045,2039,2044
2049,2042,2036,2085,2082,2049,2046,2042
2046,2045,2046,2084,2074,2048,2048,2049
2049,2054,2058,2092,2082,2068,2063,2048
2060,2065,2072,2101,2078,2079,2070,2046
2064,2061,2057,2085,2071,2064,2047,2029
2058,2055,2050,2071,2074,2059,2061,2030
2066,2068,2066,2075,2072,2070,2047,2045
2069,2069,2077,2062,2068,2108,2091,2056
2057,2059,2072,2035,2044,2106,2094,2052
2052,2053,2065,2009,2014,2071,2083,2057
2046,2060,2052,2007,2021,2059,2071,2066
2052,2054,2044,2018,2042,2051,2067,2065
2055,2043,2030,2016,2069,2041,2072,2058
2041,2021,2005,1998,2064,2059,2075,2049
2038,2015,1991,1986,2022,2055,2059,2061
2037,2026,1995,1985,1985,2053,2030,2064
2037,2028,2019,1981,1968,2051,2034,2069
2032,2027,2035,1984,1975,2035,2043,2080
2033,2046,2056,2010,2044,2045,2054,2099
2042,2049,2054,2030,2098,2095,2066,2098
2034,2039,2054,2022,2062,2132,2063,2088
2029,2038,2056,2015,2028,2156,2031,2083
2030,2043,2065,2010,2010,2179,2037,2085
2033,2044,2064,2018,1997,2137,2047,2080
2045,2048,2059,2034,2041,1993,2056,2089
2051,2055,2068,2054,2105,1937,2068,2088
2055,2052,2069,2056,2106,1992,2064,2081
2053,2049,2068,2045,2093,2056,2073,2071
2053,2046,2061,2040,2076,2066,2061,2071
2052,2040,2055,2035,2040,2045,2072,2067
2055,2040,2049,2026,2040,2051,2055,2056
2059,2041,2050,2033,2056,2051,2054,2055
2054,2037,2049,2034,2054,2046,2044,2056
2054,2040,2038,2033,2043,2031,2032,2049
2054,2050,2042,2044,2036,2016,2018,2039
2064,2053,2049,2050,2039,2009,2009,2030
2045,2037,2039,2047,2038,2002,2011,2027
2040,2035,2032,2038,2026,2017,2025,2029
2038,2040,2025,2040,2028,2027,2032,2034
2034,2041,2023,2043,2034,2029,2029,2038
2050,2047,2032,2053,2038,2020,2041,2047
2052,2051,2025,2053,2045,2050,2064,2057
2046,2039,2017,2047,2046,2074,2056,2055
2043,2039,2012,2043,2045,2061,2036,2053
2041,2037,2007,2028,2057,2049,2043,2058
2038,2041,2012,2033,2106,2062,2054,2064
2043,2040,2017,2040,2134,2063,2063,2074
2046,2040,2023,2043,2117,2055,2052,2078
2047,2043,2029,2045,2107,2048,2051,2080
2045,2037,2043,2041,2117,2052,2062,2091
2046,2046,2061,2052,2130,2054,2066,2100
2058,2060,2082,2062,2127,2070,2057,2093
2052,2048,2089,2061,2116,2064,2050,2092
2053,2050,2078,2051,2114,2070,2052,2098
2058,2056,2076,2049,2080,2041,2040,2090
2054,2056,2069,2034,2024,2025,2040,2088
2052,2051,2065,2026,1987,2058,2043,2069
2048,2049,2050,2000,1868,2062,2034,2065
2044,2045,2046,1993,1853,2089,2052,2061
2047,2050,2043,2004,1886,2090,2045,2060
2053,2062,2047,2028,1979,2062,2027,2059
2051,2060,2062,2056,2103,2055,2050,2064
2049,2062,2072,2087,2196,2053,2048,2059
2049,2059,2077,2098,2275,2067,2045,2047
2050,2058,2086,2106,2298,2081,2056,2050
2058,2057,2069,2090,2209,2039,2048,2050
2045,2040,2058,2079,2083,2012,2051,2047
2047,2049,2056,2080,2025,1990,2045,2037
2031,2043,2060,2070,1984,1983,2038,2036
2027,2052,2062,2064,1970,1980,2038,2038
2036,2054,2071,2063,1891,1980,2025,2047
2035,2052,2066,2043,1862,1985,2030,2043
2045,2060,2065,2061,1963,2028,2053,2048
2052,2069,2075,2090,2037,2057,2062,2053
2054,2064,2061,2079,2049,2058,2066,2056
2042,2046,2046,2061,2059,2073,2054,2052
2044,2038,2036,2055,2058,2071,2046,2069
2055,2036,2036,2042,2070,2075,2064,2073
2059,2031,2025,2036,2091,2091,2060,2084
2052,2041,2030,2031,2083,2087,2073,2090
2052,2046,2033,2035,2061,2074,2076,2098
2049,2047,2034,2033,2055,2086,2069,2092
2051,2054,2035,2041,2053,2084,2076,2107
2057,2051,2034,2035,2032,2048,2046,2092
2039,2037,2020,2023,2022,2030,2031,2088
2042,2031,2022,2030,2037,2039,2033,2098
2050,2043,2039,2047,2045,2039,2037,2101
2064,2049,2036,2044,2042,2038,2037,2090
2064,2048,2031,2040,2042,2056,2030,2073
2048,2036,2025,2026,2036,2078,2026,2065
2043,2036,2025,2029,2031,2080,2034,2053
2040,2034,2026,2018,2001,2075,2039,2042
2043,2037,2035,2022,1981,2051,2045,2046
2045,2045,2044,2037,1994,1983,2022,2058
2056,2060,2061,2044,1989,1993,2055,2054
2056,2065,2065,2053,2010,2023,2059,2059
2063,2066,2066,2056,2044,2035,2058,2054
2062,2065,2057,2057,2050,2041,2062,2046
2054,2053,2048,2050,2022,2062,2054,2027
2049,2041,2039,2041,1997,2069,2040,2002
2034,2033,2034,2029,2006,2065,2021,2005
2038,2031,2035,2034,2062,2076,2054,2019
2041,2043,2041,2050,2064,2026,2028,2035
2055,2052,2052,2069,2084,1986,2034,2059
2068,2049,2043,2062,2075,1994,2046,2061
2063,2042,2047,2057,2025,2024,2058,2058
2063,2053,2052,2046,1961,2039,2070,2060
2064,2054,2055,2046,2015,2048,2072,2071
2056,2046,2050,2034,2058,2064,2056,2065
2051,2047,2044,2024,2020,2053,2054,2050
2046,2036,2041,2051,2120,2065,2050,2049
2041,2038,2050,2085,2193,2067,2040,2064
2044,2042,2062,2075,2136,2043,2033,2068
2047,2041,2059,2065,2094,2031,2051,2082
2050,2049,2056,2068,2079,2032,2054,2100
2061,2051,2054,2066,2064,2026,2034,2092
2047,2037,2044,2056,2056,2044,2029,2083
2045,2035,2047,2060,2063,2056,2041,2091
2045,2037,2053,2067,2071,2068,2057,2094
2047,2035,2048,2066,2073,2083,2052,2085
2050,2037,2054,2050,2070,2086,2060,2071
2047,2034,2047,2040,2056,2097,2065,2067
2049,2034,2048,2030,2023,2080,2059,2064
2051,2041,2049,2036,2019,2092,2068,2059
2044,2036,2041,2035,2026,2096,2055,2057
2051,2031,2028,2024,2024,2091,2055,2043
2045,2025,2022,2015,2024,2072,2074,2047
2041,2021,2011,2008,2018,2008,2045,2031
2034,2021,2017,2010,2024,1988,2062,2038
2035,2038,2039,2023,2040,2019,2062,2038
2048,2050,2055,2026,2045,2041,2064,2046
2050,2042,2044,2022,2033,2030,2056,2040
2044,2028,2031,2014,2028,2025,2058,2038
2046,2019,2024,2007,2034,2052,2051,2036
2062,2034,2033,2009,2031,2056,2063,2039
2047,2034,2031,2010,2037,2061,2064,2036
2043,2032,2031,2022,2029,2040,2055,2024
2038,2039,2044,2035,2036,2014,2041,2036
2045,2046,2064,2045,2053,2050,2051,2051
2054,2059,2068,2052,2060,2073,2047,2054
2047,2062,2076,2056,2065,2055,2029,2047
2040,2050,2081,2058,2060,2025,2031,2053
2044,2046,2085,2053,2057,2055,2037,2063
2057,2053,2094,2059,2046,2072,2053,2073
2049,2054,2086,2065,2033,2084,2054,2074
2056,2052,2082,2062,2040,2093,2052,2084
2055,2053,2076,2060,2044,2091,2050,2091
2058,2061,2080,2069,2040,2084,2042,2087
2059,2057,2066,2055,2021,2052,2036,2088
2048,2050,2058,2051,2024,2022,2027,2077
2048,2053,2053,2043,2022,2017,2028,2078
2044,2049,2050,2040,2023,2002,2036,2078
2045,2050,2047,2026,2023,1988,2033,2075
2041,2051,2045,2019,2036,1981,2048,2077
2044,2055,2047,2022,2053,1989,2051,2066
2057,2051,2040,2025,2053,1994,2060,2066
2051,2052,2036,2018,2060,1994,2064,2072
2054,2053,2040,2016,2054,2000,2056,2060
2052,2042,2033,2011,2049,1992,2041,2062
2045,2036,2020,2005,2037,1990,2025,2041
2043,2029,2020,2005,2035,1999,2025,2030
2038,2038,2026,2009,2041,2026,2068,2035
2044,2045,2030,2024,2049,2049,2061,2045
2052,2042,2037,2026,2056,2080,2068,2049
2053,2028,2030,2025,2059,2097,2077,2036
2046,2028,2026,2026,2051,2095,2089,2036
2047,2040,2034,2034,2061,2088,2088,2040
2048,2035,2034,2028,2059,2077,2072,2041
2054,2034,2034,2022,2053,2087,2054,2045
2046,2032,2027,2026,2047,2090,2081,2038
2038,2037,2032,2025,2062,2094,2085,2028
2035,2035,2043,2045,2084,2085,2077,2030
2029,2035,2042,2051,2089,2076,2069,2035
2033,2024,2033,2046,2088,2027,2064,2056
2042,2031,2033,2056,2094,2011,2026,2061
2050,2042,2039,2057,2084,2021,2025,2065
2052,2053,2048,2058,2082,2039,2032,2073
2049,2051,2051,2054,2099,2050,2033,2081
2049,2056,2055,2044,2063,2045,2029,2084
2055,2056,2059,2028,1974,2030,2038,2078
2047,2042,2046,2008,1971,2005,2017,2082
2033,2038,2040,2009,2020,2014,2041,2087
2031,2050,2044,2015,2036,2031,2035,2082
2028,2047,2044,2019,2035,2045,2046,2081
2041,2052,2052,2036,2041,2051,2064,2074
2040,2052,2056,2042,2028,2044,2058,2070
2045,2056,2056,2041,2022,2015,2050,2067
2050,2054,2054,2039,2027,2006,2056,2058
2059,2053,2059,2039,2048,2039,2072,2053
2052,2047,2051,2036,2052,2083,2085,2044
2048,2041,2050,2037,2054,2081,2073,2038
2041,2040,2044,2040,2052,2069,2070,2028
2041,2044,2047,2044,2052,2055,2061,2034
2045,2044,2052,2038,2062,2073,2081,2039
2051,2051,2052,2044,2064,2089,2065,2040
2050,2052,2052,2043,2056,2097,2064,2036
2044,2044,2043,2037,2034,2103,2048,2031
2046,2040,2043,2036,2029,2133,2055,2036
2055,2058,2057,2050,2032,2144,2056,2040
2054,2064,2061,2042,1999,2055,2041,2035
2052,2060,2057,2028,1966,1959,2012,2026
2043,2058,2054,2020,1930,1966,2021,2032
2043,2050,2050,2015,1933,1975,2012,2036
2045,2049,2045,2030,1986,1983,2044,2056
2052,2059,2053,2060,2064,2032,2059,2066
2061,2063,2058,2080,2107,2073,2076,2072
2066,2052,2060,2078,2123,2093,2071,2077
2056,2051,2055,2073,2103,2094,2059,2080
2053,2052,2063,2060,2084,2088,2049,2089
2047,2050,2059,2058,2062,2080,2054,2095
2044,2051,2055,2051,2052,2071,2045,2096
2047,2046,2053,2042,2056,2054,2061,2092
2047,2039,2043,2033,2060,2037,2049,2089
2043,2038,2042,2034,2051,2039,2021,2086
2034,2039,2054,2045,2046,2050,2030,2070
2025,2041,2055,2048,2044,2057,2037,2068
2030,2050,2055,2057,2055,2076,2048,2074
2040,2049,2057,2073,2055,2076,2035,2072
2037,2053,2056,2069,2087,2069,2040,2062
2035,2051,2045,2071,2092,2064,2030,2051
2037,2044,2048,2066,2077,2074,2049,2040
2032,2041,2049,2070,2076,2078,2041,2040
2039,2046,2046,2070,2072,2073,2045,2046
2042,2057,2056,2072,2072,2083,2068,2045
2042,2052,2049,2055,2031,2075,2042,2031
2033,2045,2044,2037,1986,2058,2022,2025
2035,2043,2039,2035,2024,2036,2015,2025
2033,2045,2044,2036,2061,2023,2013,2027
2042,2048,2042,2050,2063,2024,2018,2027
2047,2049,2039,2050,2054,2040,2050,2035
2056,2049,2050,2053,2062,2059,2058,2039
2051,2048,2045,2059,2066,2070,2052,2038
2048,2041,2038,2063,2073,2075,2055,2040
2046,2038,2033,2058,2066,2074,2036,2041
2049,2039,2038,2063,2057,2070,2045,2031
2049,2049,2050,2063,2065,2067,2060,2041
2056,2056,2058,2062,2049,2059,2072,2047
2055,2054,2055,2058,2056,2050,2059,2057
2060,2053,2048,2052,2061,2046,2052,2066
2054,2046,2041,2053,2055,2040,2069,2071
2054,2047,2046,2051,2047,2035,2057,2076
2052,2053,2048,2055,2045,2036,2056,2076
2039,2050,2058,2058,2055,2042,2060,2081
2037,2045,2057,2056,2072,2044,2062,2078
2043,2037,2046,2054,2080,2045,2057,2074
2037,2033,2042,2055,2074,2044,2061,2074
2027,2043,2054,2058,2068,2060,2073,2074
2031,2043,2059,2050,2026,2065,2065,2066
2030,2050,2060,2050,1998,2062,2035,2065
2032,2044,2051,2043,1978,2054,2030,2066
2034,2031,2044,2042,1966,2029,2036,2058
2034,2027,2030,2045,1922,2005,2025,2052
2039,2030,2033,2062,1963,2028,2044,2050
2049,2038,2035,2087,2063,2041,2067,2043
2050,2041,2034,2080,2090,2036,2048,2040
2056,2044,2036,2082,2097,2043,2047,2040
2052,2049,2037,2075,2052,2042,2047,2033
2047,2054,2034,2059,2035,2043,2043,2029
2049,2061,2034,2050,2040,2046,2041,2033
2049,2057,2023,2037,2029,2038,2033,2030
2037,2040,2015,2014,1990,2026,2021,2022
2030,2029,2004,2006,2013,2033,2012,2025
2041,2029,2006,2017,2034,2044,2029,2029
2051,2041,2013,2023,2041,2035,2026,2041
2051,2039,2024,2022,2036,2038,2055,2046
2047,2045,2024,2039,2041,2051,2047,2042
2049,2051,2026,2039,2046,2050,2051,2046
2043,2045,2028,2032,2038,2047,2046,2045
2042,2042,2027,2018,1993,2027,2053,2044
2043,2032,2041,2002,1978,2007,2054,2058
2038,2039,2052,2011,2036,2022,2063,2065
2044,2053,2069,2036,2070,2038,2069,2077
2059,2073,2089,2057,2076,2046,2072,2084
