CH1,CH2,CH3,CH4,CH5,CH6,CH7,CH8
2058,2058,2066,2038,1998,2045,2029,2043
2063,2057,2061,2040,1995,2040,2012,2040
2064,2062,2064,2036,2001,2039,2031,2032
2062,2062,2066,2034,2036,2038,2037,2031
2058,2054,2057,2039,2061,2045,2041,2022
2059,2050,2055,2040,2081,2044,2039,2016
2056,2050,2055,2045,2082,2051,2055,2021
2051,2050,2053,2050,2093,2056,2059,2016
2054,2049,2053,2046,2088,2047,2061,2015
2046,2044,2052,2052,2069,2045,2059,2018
2047,2041,2041,2041,2029,2037,2064,2020
2047,2035,2041,2036,2015,2044,2047,2034
2052,2045,2044,2047,2012,2045,2057,2032
2053,2052,2051,2048,2000,2040,2043,2030
2050,2047,2059,2046,1979,2034,2060,2035
2056,2049,2055,2037,1988,2044,2067,2036
2054,2051,2055,2029,1980,2039,2065,2040
2053,2048,2046,2032,1994,2042,2064,2047
2053,2040,2048,2044,2071,2060,2063,2043
2050,2050,2051,2075,2156,2085,2074,2056
2052,2051,2058,2086,2163,2088,2085,2063
2052,2051,2056,2068,2096,2067,2063,2067
2043,2048,2055,2048,2012,2023,2051,2063
2047,2056,2055,2057,2021,2025,2048,2067
2046,2052,2058,2052,2044,2021,2049,2064
2044,2048,2058,2067,2093,2034,2045,2076
2047,2045,2047,2069,2141,2061,2058,2083
2051,2037,2030,2076,2196,2090,2074,2081
2052,2047,2024,2072,2232,2113,2076,2082
2058,2049,2021,2092,2286,2128,2064,2064
2053,2044,2016,2099,2274,2130,2064,2063
2061,2046,2014,2088,2245,2116,2059,2061
2058,2049,2016,2065,2130,2088,2058,2046
2048,2038,2010,2036,2008,2050,2038,2036
2038,2029,2007,2027,2043,2027,2031,2030
2039,2035,2008,2022,1999,2000,2038,2020
2040,2041,2020,2014,1956,2002,2033,2030
2047,2046,2032,2014,1968,1999,2039,2023
2050,2054,2036,2010,1965,1997,2031,2020
2049,2051,2036,2022,1972,1997,2038,2020
2056,2057,2047,2031,1986,2012,2050,2021
2055,2055,2045,2040,1998,2023,2046,2021
2051,2040,2036,2042,2022,2029,2045,2014
2043,2037,2031,2034,2029,2029,2039,2014
2049,2040,2028,2030,2001,2037,2058,2020
2043,2040,2024,2022,1970,2045,2064,2027
2045,2039,2012,2013,1992,2047,2054,2027
2039,2035,2018,2029,2016,2053,2058,2036
2047,2043,2018,2039,2006,2056,2058,2045
2050,2051,2022,2042,2018,2060,2059,2051
2050,2052,2032,2030,1960,2047,2059,2050
2051,2050,2026,2010,1892,2034,2045,2050
2042,2041,2019,2022,2060,2041,2040,2046
2034,2029,2021,2032,2162,2030,2028,2045
2032,2024,2018,2041,2156,2043,2034,2056
2033,2041,2027,2068,2119,2053,2050,2063
2046,2042,2043,2074,2081,2055,2045,2065
2046,2036,2041,2072,2065,2050,2042,2064
2032,2018,2022,2049,2045,2031,2035,2074
2027,2019,2013,2050,2046,2029,2040,2070
2040,2031,2018,2054,2049,2030,2034,2066
2036,2035,2015,2050,2052,2029,2033,2066
2043,2035,2011,2038,2032,2033,2054,2063
2044,2048,2029,2052,2034,2040,2049,2063
2053,2064,2054,2064,2051,2044,2064,2054
2051,2056,2050,2047,2033,2030,2045,2048
2045,2050,2043,2028,2017,2024,2048,2038
2050,2050,2039,2014,2025,2029,2042,2042
2049,2047,2034,2010,2025,2034,2054,2035
2046,2052,2039,2020,2041,2035,2048,2033
2046,2060,2055,2023,2048,2043,2059,2024
2044,2068,2067,2031,2047,2044,2070,2032
2045,2065,2069,2031,2057,2044,2062,2026
2046,2059,2054,2027,2045,2042,2060,2026
2047,2055,2043,2020,2050,2038,2050,2023
2039,2049,2055,2033,2051,2037,2043,2026
2048,2064,2082,2046,2054,2034,2048,2026
2046,2061,2081,2051,2057,2035,2055,2021
2045,2059,2082,2060,2060,2042,2052,2030
2052,2068,2081,2057,2056,2043,2053,2042
2046,2066,2080,2058,2061,2042,2056,2034
2040,2064,2068,2052,2058,2043,2049,2046
2042,2060,2069,2054,2060,2045,2036,2051
2045,2059,2056,2053,2058,2049,2032,2051
2041,2050,2050,2047,2051,2040,2035,2056
2039,2049,2047,2052,2048,2038,2052,2061
2040,2042,2059,2060,2046,2041,2063,2071
2045,2046,2068,2062,2052,2048,2065,2070
2050,2049,2066,2066,2054,2049,2051,2076
2044,2047,2059,2060,2043,2044,2052,2076
2039,2038,2046,2058,2056,2040,2040,2076
2040,2040,2042,2059,2124,2044,2044,2071
2038,2049,2036,2069,2107,2044,2034,2067
2035,2050,2046,2069,2133,2054,2044,2064
2043,2054,2044,2084,2145,2063,2063,2065
2047,2057,2052,2084,2138,2063,2051,2063
2048,2060,2041,2071,2096,2051,2065,2052
2052,2062,2034,2040,1972,2023,2059,2043
2051,2060,2032,2027,1922,2021,2062,2044
2049,2061,2034,2049,2000,2038,2057,2050
2053,2064,2036,2048,2025,2036,2042,2047
2053,2056,2039,2050,2044,2040,2074,2040
2046,2060,2043,2049,2045,2051,2070,2040
2056,2056,2045,2047,2038,2052,2065,2032
2052,2057,2045,2048,2029,2047,2074,2029
2049,2055,2051,2045,2008,2041,2067,2018
2048,2054,2052,2027,1977,2030,2051,2026
2041,2042,2046,2026,1964,2028,2050,2026
2039,2049,2047,2027,1988,2029,2060,2033
2043,2049,2039,2024,2023,2029,2061,2027
2043,2051,2048,2035,2056,2056,2065,2031
2044,2056,2046,2040,2097,2078,2073,2045
2046,2062,2042,2044,2087,2073,2062,2036
2041,2060,2040,2036,2089,2073,2067,2041
2040,2057,2041,2043,2100,2077,2051,2041
2043,2058,2039,2047,2084,2080,2063,2036
2034,2050,2037,2045,2072,2085,2059,2051
2026,2053,2037,2045,2080,2080,2062,2045
2029,2049,2034,2044,2067,2063,2056,2054
2023,2046,2025,2034,2007,2035,2061,2058
2040,2045,2026,2047,2022,2019,2059,2077
2044,2048,2028,2058,2052,2019,2070,2077
2042,2042,2019,2052,2067,2018,2058,2075
2036,2032,2015,2046,2053,2023,2071,2077
2038,2040,2032,2052,2040,2033,2064,2080
2043,2046,2045,2050,1988,2026,2060,2076
2051,2040,2036,2030,1905,2019,2047,2065
2047,2035,2026,2026,1937,2022,2049,2056
2038,2028,2025,2041,1978,2021,2055,2041
2036,2027,2041,2049,2008,2045,2060,2036
2050,2048,2054,2057,2046,2058,2052,2036
2051,2057,2053,2070,2045,2063,2061,2030
2045,2055,2055,2084,2050,2058,2057,2028
2034,2053,2059,2091,2068,2056,2053,2020
2037,2049,2057,2084,2082,2050,2051,2028
2039,2053,2062,2098,2105,2059,2065,2023
2043,2059,2070,2094,2092,2049,2057,2021
2044,2062,2062,2078,2058,2042,2049,2025
2041,2055,2048,2072,2030,2035,2054,2017
2036,2041,2040,2065,2021,2045,2054,2017
2046,2046,2055,2080,2038,2059,2057,2025
2054,2062,2066,2074,2016,2054,2057,2025
2044,2068,2062,2063,1992,2048,2056,2031
2044,2065,2072,2063,1988,2035,2069,2030
2048,2068,2081,2056,2005,2037,2066,2032
2057,2073,2076,2046,1983,2024,2063,2029
2048,2059,2065,2027,1953,2013,2054,2026
2037,2052,2061,2021,1988,2023,2053,2033
2038,2060,2058,2030,2033,2044,2061,2044
2052,2059,2053,2048,2074,2065,2080,2062
2054,2049,2036,2056,2142,2080,2073,2076
2053,2053,2026,2041,2149,2060,2066,2089
2060,2053,2022,2044,2169,2059,2075,2094
2062,2057,2025,2059,2181,2071,2077,2088
2054,2053,2021,2045,2167,2072,2068,2074
2041,2032,1991,2019,2063,2057,2043,2065
2039,2032,1991,2007,1979,2054,2054,2065
2050,2051,1995,2017,2054,2070,2075,2070
2053,2044,1990,2036,2118,2076,2057,2066
2047,2040,1994,2040,2096,2061,2056,2055
2046,2039,1990,2033,2051,2029,2061,2050
2049,2045,1998,2039,2010,2015,2058,2053
2050,2043,2004,2045,2004,2027,2064,2047
2048,2039,2012,2046,2042,2032,2058,2046
2049,2031,2015,2044,2045,2031,2057,2037
2048,2033,2038,2050,2003,2038,2051,2035
2055,2046,2057,2064,1994,2047,2052,2038
2059,2049,2071,2058,1975,2052,2057,2039
2057,2042,2070,2037,1921,2045,2055,2027
2052,2045,2068,2044,1947,2060,2053,2024
2046,2040,2073,2069,2040,2070,2041,2025
2035,2036,2081,2092,2101,2072,2031,2017
2040,2038,2082,2076,2084,2060,2046,2018
2033,2050,2097,2070,2062,2027,2030,2019
2042,2063,2111,2080,2067,2017,2040,2033
2052,2081,2128,2096,2064,2055,2052,2033
2060,2084,2117,2096,2050,2052,2061,2033
2055,2078,2094,2066,2031,2055,2059,2036
2054,2062,2077,2059,2070,2063,2064,2041
2051,2061,2072,2057,2091,2064,2063,2050
2040,2056,2053,2041,2106,2066,2081,2052
2038,2042,2047,2023,2105,2050,2067,2062
2041,2041,2031,1999,2028,2032,2052,2076
2053,2041,2031,1998,1992,2040,2053,2074
2047,2043,2035,1998,2013,2048,2041,2070
2046,2048,2051,2015,2032,2054,2043,2070
2044,2061,2059,2028,2038,2060,2045,2076
2036,2048,2054,2035,2040,2050,2033,2070
2032,2043,2040,2035,2042,2057,2056,2076
2043,2049,2047,2048,2046,2062,2055,2069
2045,2055,2057,2057,2049,2053,2050,2065
2045,2055,2057,2063,2033,2050,2052,2060
2045,2054,2061,2069,2033,2050,2056,2064
2052,2054,2052,2067,2032,2041,2034,2059
2049,2052,2046,2074,2047,2029,2030,2047
2058,2050,2036,2074,2086,2045,2035,2045
2051,2050,2034,2079,2100,2041,2019,2038
2052,2058,2029,2077,2092,2049,2023,2036
2048,2055,2029,2064,2080,2044,2028,2027
2043,2051,2021,2050,2065,2042,2040,2026
2043,2052,2012,2044,2046,2050,2052,2024
2039,2043,2008,2044,2072,2054,2046,2025
2043,2045,2016,2042,2034,2051,2058,2029
2042,2042,2012,2021,1910,2046,2043,2025
2037,2036,2006,2022,1969,2052,2042,2035
2042,2042,2024,2027,2033,2062,2045,2034
2049,2051,2042,2020,2097,2053,2044,2036
2049,2059,2051,2023,2132,2042,2025,2026
2047,2067,2064,2007,2117,2026,2018,2029
2048,2072,2084,2036,2168,2052,2044,2038
2049,2075,2093,2061,2179,2074,2053,2049
2062,2081,2091,2056,2120,2068,2047,2050
2057,2081,2086,2052,2028,2044,2047,2049
2053,2072,2076,2035,1915,2038,2043,2057
2048,2071,2075,2044,1994,2060,2051,2059
2050,2073,2074,2062,2083,2077,2059,2066
2052,2070,2070,2069,2103,2080,2062,2065
2052,2056,2061,2058,2100,2067,2063,2069
2048,2052,2051,2043,2051,2038,2031,2068
2047,2041,2038,2033,1989,2016,2019,2060
2035,2034,2029,2024,1949,1994,2002,2067
2038,2037,2036,2008,1860,1968,2025,2058
2036,2039,2033,1982,1841,1965,2032,2060
2034,2039,2025,2008,1919,2010,2042,2062
2038,2044,2038,2059,2031,2065,2057,2067
2040,2057,2056,2080,2107,2084,2073,2070
2057,2064,2061,2081,2121,2085,2072,2064
2056,2073,2068,2074,2128,2089,2061,2053
2060,2075,2065,2060,2103,2070,2050,2041
2057,2058,2051,2039,2077,2054,2046,2036
2052,2056,2047,2026,2021,2050,2049,2040
2049,2062,2054,2021,1954,2048,2047,2035
2061,2072,2057,2029,2006,2062,2054,2036
2062,2072,2056,2036,2023,2053,2047,2026
2062,2061,2046,2031,1982,2049,2055,2028
2061,2051,2045,2042,2018,2068,2042,2021
2058,2045,2047,2051,2028,2076,2050,2016
2047,2044,2046,2055,2007,2066,2067,2022
2052,2041,2049,2059,1992,2056,2076,2022
2044,2037,2038,2057,1976,2037,2066,2013
2042,2047,2049,2071,2031,2036,2040,2022
2051,2054,2066,2086,2092,2051,2058,2024
2046,2061,2064,2080,2106,2047,2074,2030
2042,2062,2069,2070,2072,2033,2064,2041
2052,2068,2064,2061,2002,2016,2049,2044
2061,2073,2067,2055,1991,2020,2054,2046
2061,2067,2059,2054,2029,2042,2050,2052
2055,2059,2050,2061,1988,2046,2045,2055
2042,2051,2040,2051,1981,2037,2046,2047
2038,2045,2045,2059,2033,2043,2044,2043
2040,2040,2052,2057,2017,2036,2049,2051
2032,2032,2038,2019,2017,2012,2026,2058
2034,2039,2042,2028,2094,2023,2041,2062
2038,2045,2050,2058,2151,2049,2055,2072
2039,2054,2063,2065,2146,2068,2064,2066
2051,2063,2056,2063,2129,2076,2056,2068
2048,2056,2050,2047,2098,2072,2063,2061
2043,2054,2041,2044,2069,2060,2051,2060
2043,2044,2030,2045,2063,2062,2043,2051
2048,2048,2032,2043,2059,2058,2043,2049
2052,2058,2032,2040,2058,2053,2056,2044
2059,2059,2033,2037,2045,2046,2064,2043
2058,2059,2037,2030,2037,2028,2065,2044
2056,2062,2043,2028,2025,2008,2051,2032
2048,2064,2040,2018,2031,2017,2041,2025
2044,2056,2049,2020,2030,2027,2031,2014
2039,2051,2040,2012,2026,2035,2060,2009
2036,2054,2042,2018,2044,2053,2056,2015
2049,2064,2047,2034,2054,2061,2074,2012
2046,2049,2037,2033,2046,2054,2074,2015
2042,2045,2040,2034,2047,2051,2064,2026
2048,2050,2053,2047,2074,2062,2054,2034
2054,2064,2064,2057,2088,2069,2048,2031
2068,2066,2072,2066,2090,2061,2055,2032
2059,2065,2064,2067,2088,2061,2034,2034
2054,2055,2057,2057,2075,2048,2036,2037
2047,2058,2054,2050,2072,2052,2046,2039
2045,2057,2062,2055,2080,2049,2059,2038
2050,2060,2054,2057,2083,2054,2064,2049
2055,2059,2054,2051,2088,2054,2070,2066
2058,2056,2049,2051,2072,2049,2061,2066
2043,2041,2032,2042,2068,2048,2048,2059
2039,2037,2027,2044,2107,2052,2050,2058
2034,2042,2029,2050,2109,2058,2044,2052
2033,2050,2036,2053,2075,2059,2046,2054
2030,2048,2034,2043,2027,2050,2048,2054
2024,2042,2020,2044,2049,2052,2045,2057
2033,2050,2021,2057,2083,2062,2053,2069
2051,2056,2019,2061,2090,2062,2061,2075
2058,2056,2013,2052,2054,2048,2052,2064
2056,2062,2019,2030,1948,2035,2053,2060
2051,2064,2039,2031,1940,2030,2043,2054
2048,2056,2052,2041,2016,2039,2034,2039
2041,2052,2065,2054,2045,2057,2035,2035
2042,2045,2073,2064,2049,2064,2041,2020
2040,2049,2075,2077,2045,2073,2037,2020
2056,2057,2089,2088,2032,2063,2025,2027
2058,2054,2097,2098,2032,2043,2036,2021
2061,2052,2092,2104,2066,2031,2044,2022
2064,2049,2093,2124,2106,2048,2061,2023
2065,2056,2081,2123,2094,2051,2070,2025
2061,2061,2077,2118,2052,2045,2044,2026
2053,2050,2073,2123,2037,2032,2024,2026
2055,2047,2068,2118,2046,2041,2042,2017
2043,2051,2066,2109,2036,2057,2047,2016
2053,2059,2059,2096,2024,2060,2049,2020
2045,2057,2038,2065,2011,2042,2043,2023
2040,2046,2014,2023,1978,2026,2028,2017
2038,2028,1978,1981,1985,2028,2035,2030
2044,2036,1983,1985,2027,2022,2049,2040
2059,2058,2003,1999,2066,2035,2060,2051
2056,2057,2028,2020,2073,2046,2054,2053
2055,2069,2047,2017,2072,2056,2060,2058
2061,2063,2048,2008,2065,2053,2067,2063
2054,2061,2031,1999,2054,2060,2068,2068
2052,2050,2040,1995,2052,2060,2059,2070
2062,2059,2060,2008,2043,2052,2036,2071
2057,2062,2071,2010,2050,2049,2041,2077
2054,2052,2052,2005,2054,2045,2027,2069
2039,2036,2028,1995,2038,2030,2026,2071
2038,2032,2012,1983,2033,2021,2041,2063
2040,2046,2026,1996,2039,2027,2022,2064
2053,2045,2035,2007,2044,2029,2026,2060
2045,2046,2045,2022,2043,2037,2032,2052
2043,2052,2066,2036,2046,2046,2045,2050
2046,2055,2072,2041,2048,2052,2056,2041
2047,2056,2059,2039,2056,2052,2031,2041
2047,2050,2046,2042,2050,2048,2043,2038
2056,2044,2032,2041,2045,2049,2046,2035
2060,2037,2026,2044,2050,2051,2067,2031
2052,2033,2019,2047,2056,2050,2038,2027
2045,2025,2016,2051,2051,2053,2035,2020
2042,2026,2012,2058,2041,2051,2036,2016
2034,2030,2005,2056,2043,2046,2033,2013
2033,2032,2006,2056,2039,2040,2038,2014
2033,2034,2002,2056,2045,2036,2023,2016
2038,2035,2000,2062,2061,2041,2052,2016
2038,2039,2011,2071,2071,2057,2049,2025
2038,2041,2003,2057,2065,2058,2062,2024
2041,2033,1996,2061,2042,2048,2061,2030
2047,2032,1999,2056,2022,2047,2047,2029
2046,2038,2006,2061,2063,2064,2043,2028
2045,2036,1999,2052,2058,2079,2058,2036
2039,2019,1984,2042,2028,2078,2060,2029
2032,2015,1989,2034,2016,2066,2051,2041
2034,2020,2020,2041,2041,2065,2046,2047
2045,2047,2062,2050,2083,2042,2055,2067
2057,2074,2094,2052,2072,2022,2063,2071
2060,2077,2094,2030,2106,2042,2061,2076
2055,2064,2091,2030,2131,2060,2047,2076
2056,2068,2097,2027,2091,2063,2058,2076
2064,2069,2104,2025,2060,2045,2052,2068
2055,2060,2089,2012,2034,2044,2057,2065
2055,2059,2085,2019,2038,2044,2071,2082
2064,2065,2092,2030,2039,2045,2061,2085
2065,2064,2086,2027,2041,2042,2051,2077
2061,2062,2082,2034,2064,2053,2061,2078
2062,2056,2074,2028,2080,2061,2066,2067
2062,2047,2065,2023,2094,2066,2043,2057
2047,2043,2055,2027,2136,2061,2049,2050
2041,2036,2058,2043,2155,2069,2049,2038
2051,2054,2075,2056,2150,2081,2041,2039
2068,2069,2088,2069,2124,2089,2039,2035
2076,2073,2090,2070,2076,2079,2069,2031
2066,2064,2077,2047,1915,2021,2051,2021
2048,2048,2052,2017,1850,1978,2042,2019
2046,2045,2036,2004,1828,1980,2042,2027
2045,2047,2041,2032,1903,1999,2050,2038
2050,2043,2037,2026,1893,1987,2041,2026
2046,2040,2040,2023,1915,2020,2040,2024
2059,2058,2067,2062,1993,2057,2061,2034
2063,2072,2082,2083,2032,2054,2065,2040
2073,2075,2081,2072,2039,2045,2058,2052
2074,2072,2079,2064,2026,2037,2055,2044
2067,2066,2061,2042,2044,2032,2050,2039
2049,2048,2043,2026,2084,2044,2058,2039
2053,2040,2035,2012,2108,2045,2054,2034
2050,2035,2018,1993,2062,2025,2049,2043
2053,2031,2015,1978,1981,2033,2059,2056
2049,2036,2023,2006,2019,2051,2052,2063
2056,2043,2026,2015,2018,2040,2052,2062
2053,2034,2020,1995,1978,2021,2044,2059
2049,2029,2012,1983,1971,2017,2037,2054
2040,2031,2019,2011,2046,2033,2044,2072
2046,2039,2031,2052,2104,2051,2062,2085
2064,2038,2040,2064,2101,2063,2054,2084
2060,2035,2024,2057,2109,2074,2053,2078
2051,2035,2024,2064,2119,2080,2050,2071
2056,2036,2030,2068,2097,2070,2060,2067
2057,2041,2036,2070,2070,2065,2062,2069
2058,2042,2024,2072,2066,2070,2063,2057
2060,2041,2019,2078,2086,2078,2073,2046
2056,2039,2014,2081,2107,2085,2069,2035
2053,2036,2025,2083,2108,2072,2062,2030
2038,2025,2028,2090,2101,2071,2053,2031
2042,2025,2027,2081,2115,2071,2056,2032
2049,2026,2018,2075,2110,2077,2064,2031
2048,2026,2004,2053,2096,2066,2064,2021
2045,2023,2009,2037,2075,2064,2054,2026
2033,2030,2030,2038,2064,2064,2060,2020
2035,2037,2060,2035,2065,2060,2055,2024
2036,2039,2059,2029,2051,2046,2048,2028
2041,2048,2055,2027,2046,2041,2058,2034
2044,2048,2046,2031,2031,2073,2067,2035
2052,2040,2052,2033,1990,2096,2064,2035
2053,2031,2067,2030,1991,2098,2057,2033
2056,2039,2075,2041,2002,2089,2056,2031
2052,2043,2086,2058,1977,2067,2041,2029
2046,2039,2093,2075,1983,2023,2046,2037
2052,2040,2105,2115,2064,1964,2053,2054
2045,2050,2112,2138,2122,1986,2051,2061
2046,2053,2126,2153,2145,2026,2053,2068
2051,2062,2130,2161,2155,2055,2050,2077
2050,2056,2114,2152,2144,2056,2050,2072
2052,2055,2098,2143,2111,2041,2044,2065
2040,2047,2085,2122,2052,2019,2024,2073
2038,2040,2056,2101,2008,2002,2029,2070
2030,2030,2033,2081,1997,1996,2034,2072
2034,2027,2022,2056,2000,1998,2022,2065
2030,2034,2016,2039,2000,2000,2016,2055
2036,2041,2015,2023,1991,2022,2018,2057
2045,2048,2010,1996,1972,2033,2030,2058
2051,2045,1994,1978,2028,2041,2047,2058
2052,2037,1987,1981,2051,2065,2060,2057
2057,2038,1990,1996,2081,2073,2077,2059
2059,2034,1989,2005,2089,2082,2078,2060
2060,2042,1999,2018,2112,2085,2064,2056
2058,2039,2009,2033,2086,2083,2077,2049
2052,2037,2024,2035,2054,2072,2074,2044
2043,2049,2046,2037,2046,2056,2046,2036
2055,2070,2092,2061,2057,2064,2060,2040
2064,2083,2121,2078,2084,2068,2064,2049
2073,2075,2108,2076,2086,2064,2064,2044
2074,2057,2086,2065,2070,2058,2048,2038
2066,2057,2068,2060,2070,2044,2045,2030
2057,2050,2059,2048,2066,2034,2023,2026
2055,2052,2047,2047,2067,2046,2034,2039
2055,2049,2037,2054,2098,2064,2058,2041
2058,2046,2034,2051,2103,2061,2068,2044
2051,2039,2034,2044,2076,2061,2072,2042
2046,2040,2031,2044,2068,2067,2071,2047
2044,2050,2030,2036,2066,2068,2061,2057
2042,2048,2025,2049,2101,2070,2056,2066
2043,2052,2023,2056,2143,2083,2074,2076
2056,2055,2012,2040,2100,2070,2074,2076
2051,2038,1994,2018,1932,2035,2034,2071
2047,2035,1975,1999,1923,2019,2036,2071
2043,2032,1982,2018,1997,2029,2054,2085
2051,2034,1969,2029,2027,2038,2051,2072
2049,2018,1966,2032,2019,2037,2025,2069
2041,2024,1978,2034,2028,2037,2032,2068
2048,2033,1981,2040,2029,2040,2035,2067
2040,2033,1979,2045,2038,2047,2038,2060
2036,2041,1981,2049,2049,2054,2058,2051
2038,2039,1976,2046,2059,2058,2053,2054
2035,2035,1968,2049,2059,2066,2046,2051
2032,2027,1969,2034,2050,2055,2029,2041
2035,2018,1973,2016,2042,2049,2031,2041
2038,2025,1996,2024,2040,2052,2027,2041
2034,2029,2027,2036,2060,2053,2050,2024
2039,2044,2056,2037,2050,2053,2049,2031
2056,2057,2065,2026,2022,2043,2039,2031
2053,2056,2072,2008,1988,2038,2028,2028
2047,2055,2077,2011,1990,2041,2050,2029
2054,2066,2097,2028,2006,2050,2051,2025
2048,2062,2088,2033,2017,2047,2054,2031
2051,2062,2085,2045,2032,2052,2059,2034
2062,2075,2091,2048,2033,2058,2070,2036
2057,2076,2086,2049,2031,2052,2064,2036
2058,2072,2073,2042,2032,2051,2060,2039
2056,2060,2060,2046,2032,2053,2054,2037
2052,2053,2058,2039,2028,2051,2058,2047
2044,2040,2067,2052,2029,2048,2058,2048
2041,2043,2073,2065,2037,2054,2043,2058
2047,2048,2073,2085,2046,2060,2067,2060
2048,2050,2068,2095,2047,2064,2064,2065
2051,2053,2063,2105,2057,2067,2069,2070
2050,2050,2072,2113,2058,2064,2067,2077
2058,2054,2073,2122,2054,2066,2066,2076
2059,2053,2053,2125,2053,2062,2060,2083
2056,2049,2032,2117,2015,2062,2054,2080
2047,2031,2006,2103,2028,2062,2045,2075
2040,2029,1984,2095,2025,2073,2064,2074
2036,2032,1989,2086,2010,2086,2043,2067
2048,2035,2000,2069,1994,2083,2045,2064
2043,2039,2002,2040,1993,2077,2037,2054
2034,2041,2006,2025,2007,2059,2032,2054
2038,2040,2014,2011,2001,2018,2032,2048
2045,2045,2024,1978,1988,2011,2055,2053
2049,2042,2030,1995,2041,2035,2061,2041
2039,2041,2046,2009,2041,2049,2051,2034
2050,2044,2074,2017,2047,2050,2047,2035
2054,2052,2082,2020,2067,2055,2051,2047
2048,2048,2083,2018,2066,2055,2040,2038
2046,2046,2091,2028,2047,2048,2055,2038
2049,2054,2111,2044,2049,2040,2032,2031
2045,2065,2122,2056,2050,2044,2034,2031
2042,2061,2128,2064,2046,2034,2024,2026
2054,2062,2123,2077,2052,2050,2022,2034
2057,2072,2131,2094,2064,2053,2035,2036
2058,2067,2124,2102,2057,2058,2052,2039
2056,2069,2120,2100,2062,2054,2041,2046
2049,2067,2112,2101,2068,2055,2045,2037
2048,2055,2098,2095,2067,2052,2054,2041
2048,2060,2087,2098,2068,2054,2060,2039
2043,2069,2076,2095,2062,2052,2044,2041
2048,2061,2070,2087,2065,2049,2050,2053
2050,2052,2068,2082,2066,2054,2034,2058
2051,2052,2061,2093,2066,2055,2049,2068
2039,2045,2055,2081,2066,2054,2055,2067
2044,2044,2051,2079,2064,2052,2057,2070
2042,2042,2038,2060,2053,2046,2046,2069
2034,2040,2033,2025,2040,2047,2032,2069
2029,2032,2021,1996,2018,2033,2034,2069
2027,2028,2015,1988,2008,2034,2042,2072
2034,2046,2031,1991,2007,2033,2045,2071
2047,2060,2039,2000,2016,2043,2044,2072
2053,2074,2063,2017,2035,2056,2056,2074
2058,2082,2066,2030,2056,2062,2055,2066
2053,2074,2063,2038,2068,2065,2048,2064
2051,2061,2050,2041,2062,2060,2052,2056
2047,2050,2036,2042,2058,2064,2028,2049
2048,2041,2039,2042,2036,2060,2045,2043
2042,2041,2041,2038,2035,2060,2060,2035
2042,2042,2047,2035,2028,2050,2052,2032
2043,2051,2054,2040,2029,2053,2054,2043
2053,2053,2052,2043,2037,2047,2052,2036
2046,2042,2042,2037,2036,2040,2036,2024
2040,2033,2033,2041,2026,2036,2023,2020
2036,2021,2021,2032,2028,2031,2053,2015
2036,2018,2012,2030,2022,2033,2042,2019
2030,2022,2010,2041,2047,2047,2058,2023
2044,2033,2015,2042,2043,2051,2059,2032
2045,2031,2006,2042,2041,2052,2044,2032
2037,2027,2004,2040,2034,2051,2066,2034
2032,2030,2000,2044,2032,2044,2041,2030
2036,2028,1993,2040,2006,2048,2052,2029
2037,2021,1985,2034,2001,2041,2042,2034
2028,2029,1996,2029,1996,2044,2054,2045
2040,2038,2020,2030,1986,2037,2054,2054
2039,2044,2028,2031,1969,2034,2047,2068
2041,2051,2028,2033,1954,2035,2047,2074
2049,2058,2033,2025,1942,2029,2048,2075
2054,2056,2029,2025,1964,2036,2058,2077
2046,2046,2025,2024,2005,2023,2033,2064
2024,2026,2024,2020,2030,2024,2027,2064
2029,2034,2038,2039,2100,2040,2038,2073
2030,2047,2052,2060,2136,2053,2049,2069
2036,2048,2053,2061,2132,2046,2066,2069
2041,2045,2046,2049,2150,2041,2045,2063
2038,2035,2033,2047,2147,2045,2048,2064
2043,2048,2050,2056,2147,2056,2037,2062
2060,2067,2064,2066,2136,2057,2048,2056
2068,2081,2084,2062,2053,2048,2040,2052
2060,2073,2080,2048,1958,2031,2036,2047
2061,2065,2083,2055,2003,2042,2047,2048
2063,2074,2091,2065,2026,2037,2060,2052
2055,2075,2104,2070,2068,2047,2047,2037
2048,2070,2103,2080,2105,2061,2053,2032
2047,2068,2087,2071,2092,2062,2075,2031
2049,2062,2065,2046,2011,2040,2040,2025
2041,2045,2052,2015,1901,2004,2043,2028
2037,2038,2051,2007,1863,1998,2029,2036
2047,2056,2071,2025,1916,2006,2040,2027
2051,2061,2072,2046,2054,2047,2056,2034
2055,2066,2076,2058,2112,2066,2039,2041
2059,2068,2076,2057,2086,2055,2056,2049
2061,2075,2073,2057,2069,2051,2055,2049
2050,2075,2069,2065,2078,2048,2056,2052
2052,2066,2066,2063,2091,2047,2057,2050
2047,2055,2057,2061,2127,2054,2058,2047
2042,2053,2047,2064,2133,2056,2052,2054
2036,2044,2042,2060,2105,2049,2072,2056
2036,2037,2029,2047,2091,2052,2061,2068
2034,2033,2023,2049,2081,2057,2057,2070
2034,2039,2026,2053,2074,2058,2072,2074
2038,2043,2023,2047,2070,2054,2036,2080
2053,2034,2011,2050,2058,2049,2054,2086
2051,2033,2004,2054,2061,2045,2054,2091
2062,2041,2007,2061,2061,2045,2053,2087
2060,2034,1998,2061,2055,2045,2019,2072
2043,2030,2003,2060,2059,2053,2039,2055
2043,2034,2013,2070,2058,2051,2052,2045
2035,2031,2024,2078,2067,2050,2050,2049
2040,2029,2019,2077,2065,2059,2045,2055
2054,2050,2030,2079,2070,2056,2055,2052
2051,2048,2017,2073,2070,2051,2050,2044
2059,2049,2018,2069,2065,2047,2030,2043
2069,2069,2041,2077,2060,2042,2043,2038
2057,2080,2070,2084,2062,2048,2030,2033
2060,2077,2082,2078,2064,2038,2040,2034
2053,2076,2091,2071,2056,2036,2059,2029
2050,2063,2072,2050,2042,2035,2051,2031
2038,2042,2050,2019,2022,2023,2046,2033
2042,2042,2056,2028,2032,2034,2056,2034
2057,2066,2080,2054,2052,2052,2068,2038
2059,2082,2094,2056,2064,2055,2078,2043
2064,2073,2076,2046,2055,2051,2075,2047
2061,2068,2072,2050,2046,2048,2066,2051
2063,2070,2069,2057,2059,2052,2064,2055
2064,2074,2078,2068,2060,2053,2065,2051
2056,2069,2069,2067,2064,2054,2058,2057
2051,2062,2054,2063,2063,2054,2051,2061
2053,2057,2045,2055,2064,2060,2052,2068
2052,2053,2038,2039,2059,2050,2047,2080
2047,2042,2037,2031,2049,2046,2038,2082
2047,2043,2043,2018,2045,2041,2037,2082
2049,2047,2044,2019,2049,2046,2048,2080
2050,2054,2048,2016,2044,2047,2050,2084
2040,2055,2058,2023,2044,2044,2046,2079
2043,2061,2082,2044,2045,2046,2061,2089
2052,2076,2105,2065,2054,2050,2054,2090
2060,2076,2104,2063,2059,2058,2061,2081
2055,2064,2091,2058,2050,2050,2058,2068
2044,2056,2069,2045,2045,2045,2053,2066
2046,2051,2065,2047,2049,2051,2050,2064
2051,2054,2067,2051,2046,2059,2056,2058
2056,2058,2066,2047,2052,2058,2055,2062
2060,2053,2054,2048,2049,2060,2046,2054
2056,2054,2050,2053,2059,2055,2036,2041
2047,2045,2028,2060,2061,2054,2045,2036
2048,2042,2029,2059,2060,2054,2025,2035
2051,2044,2027,2066,2057,2049,2035,2042
2050,2048,2034,2064,2058,2045,2051,2034
2052,2044,2027,2068,2053,2044,2045,2024
2045,2036,2012,2059,2056,2035,2035,2017
2036,2032,2004,2058,2047,2037,2036,2021
2038,2039,1993,2061,2054,2042,2043,2030
2040,2032,1997,2056,2045,2042,2037,2028
2033,2027,1996,2051,2039,2038,2051,2029
2034,2024,1994,2046,2046,2040,2034,2028
2040,2032,2023,2052,2049,2043,2046,2029
2048,2045,2042,2052,2056,2045,2042,2043
2035,2051,2064,2049,2056,2045,2038,2046
2042,2061,2088,2054,2056,2046,2043,2050
2045,2062,2098,2052,2058,2048,2050,2061
2050,2057,2093,2053,2059,2046,2032,2068
2045,2056,2085,2057,2056,2047,2044,2074
2046,2044,2067,2051,2061,2047,2034,2074
2041,2042,2063,2043,2064,2050,2045,2078
2048,2046,2070,2040,2059,2047,2041,2074
2040,2046,2071,2032,2054,2042,2037,2077
2040,2048,2075,2044,2047,2039,2040,2083
2042,2051,2080,2043,2043,2049,2030,2076
2049,2055,2075,2041,2045,2044,2020,2075
2045,2052,2066,2036,2037,2062,2022,2066
2041,2046,2051,2027,2037,2062,2042,2056
2044,2042,2037,2019,2032,2064,2059,2060
2045,2038,2042,2026,2029,2060,2049,2056
2049,2054,2056,2017,2023,2041,2046,2057
2053,2058,2050,2012,2039,2017,2053,2063
2064,2072,2067,2021,2058,2024,2067,2060
2069,2085,2091,2031,2058,2040,2049,2049
2062,2092,2089,2039,2060,2047,2071,2052
2062,2082,2081,2039,2064,2050,2070,2037
2061,2077,2068,2044,2063,2045,2063,2042
2067,2066,2060,2044,2057,2046,2052,2039
2058,2058,2051,2038,2062,2045,2034,2035
2048,2058,2055,2047,2061,2045,2047,2035
2053,2065,2054,2041,2069,2053,2059,2041
2059,2062,2050,2043,2070,2055,2050,2047
2057,2060,2048,2042,2066,2055,2050,2047
2065,2064,2046,2037,2068,2054,2045,2048
2064,2063,2044,2044,2060,2052,2054,2053
2060,2054,2040,2040,2060,2053,2065,2058
2058,2053,2027,2036,2059,2057,2062,2061
2056,2057,2024,2040,2058,2056,2067,2066
2054,2054,2019,2040,2056,2050,2061,2074
2055,2051,2018,2042,2053,2046,2058,2073
2055,2047,2014,2042,2059,2044,2056,2082
2055,2047,2017,2048,2064,2044,2047,2086
2054,2044,2017,2042,2060,2046,2056,2090
2051,2050,2017,2038,2052,2040,2048,2088
2042,2041,2018,2045,2057,2039,2047,2087
2037,2036,2020,2057,2068,2040,2041,2085
2036,2046,2020,2064,2075,2049,2048,2087
2042,2052,2024,2064,2058,2045,2051,2079
2047,2058,2023,2058,2054,2045,2041,2072
2044,2054,2015,2051,2044,2043,2046,2065
2047,2048,2001,2061,2040,2035,2039,2057
2043,2042,2004,2059,2042,2037,2033,2052
2040,2032,2014,2062,2044,2040,2038,2053
2040,2038,2038,2072,2037,2035,2057,2047
2052,2047,2055,2080,2048,2039,2068,2042
2047,2057,2065,2088,2055,2041,2060,2038
2047,2054,2069,2079,2060,2039,2037,2033
2048,2057,2071,2081,2050,2037,2057,2031
2049,2059,2079,2076,2055,2044,2065,2037
2065,2064,2083,2082,2055,2046,2058,2030
2065,2058,2075,2068,2050,2033,2056,2024
2049,2053,2072,2062,2044,2035,2056,2031
2052,2061,2087,2064,2052,2045,2062,2040
2061,2066,2096,2061,2059,2049,2059,2034
2056,2054,2078,2052,2056,2048,2052,2037
2050,2043,2059,2045,2062,2053,2037,2045
2052,2049,2060,2040,2074,2054,2057,2047
2047,2059,2056,2044,2078,2058,2070,2057
2053,2062,2049,2040,2077,2056,2048,2066
2056,2059,2050,2047,2078,2060,2081,2061
2056,2056,2047,2042,2066,2064,2069,2074
2051,2057,2043,2044,2064,2058,2047,2072
2048,2050,2040,2034,2064,2048,2052,2079
2042,2050,2040,2042,2085,2050,2061,2085
2045,2051,2038,2044,2078,2037,2056,2093
2049,2047,2032,2040,2060,2020,2030,2077
2052,2041,2029,2039,2048,2023,2038,2081
2044,2043,2041,2035,2043,2027,2056,2082
2044,2052,2051,2037,2044,2037,2055,2082
2044,2053,2056,2041,2045,2044,2048,2079
2056,2065,2067,2048,2052,2053,2052,2075
2060,2071,2065,2054,2050,2052,2049,2072
2059,2071,2070,2057,2055,2055,2047,2065
2057,2065,2077,2048,2032,2044,2050,2059
2058,2067,2070,2049,2019,2040,2043,2048
2062,2061,2076,2045,2023,2034,2031,2041
2051,2068,2072,2048,2037,2045,2052,2039
2053,2060,2065,2057,2043,2043,2024,2039
2056,2055,2057,2050,2049,2042,2037,2041
2056,2049,2052,2041,2042,2051,2041,2038
2051,2046,2049,2042,2048,2050,2050,2035
2050,2047,2041,2030,2047,2062,2064,2027
2046,2041,2036,2026,2043,2057,2058,2027
2044,2036,2031,2022,2036,2045,2058,2024
2038,2043,2036,2033,2049,2047,2060,2031
2041,2046,2036,2040,2049,2048,2065,2043
2044,2050,2033,2041,2052,2049,2047,2038
2049,2051,2029,2036,2045,2045,2039,2039
2046,2046,2032,2036,2045,2044,2048,2047
2044,2045,2032,2040,2043,2042,2031,2049
2050,2048,2040,2042,2046,2043,2033,2060
2053,2052,2042,2048,2061,2058,2038,2060
2055,2046,2045,2057,2058,2059,2065,2072
2050,2053,2052,2056,2058,2053,2054,2069
2049,2049,2051,2052,2057,2051,2050,2082
2047,2046,2048,2049,2064,2056,2055,2088
2050,2044,2055,2059,2064,2057,2050,2086
2053,2050,2057,2061,2058,2055,2055,2086
2041,2037,2050,2050,2046,2045,2053,2081
2032,2040,2051,2058,2045,2052,2049,2080
2041,2052,2061,2066,2053,2057,2056,2083
2048,2059,2052,2069,2058,2065,2059,2086
2053,2053,2042,2069,2056,2068,2075,2083
2055,2046,2024,2064,2054,2069,2068,2072
2047,2040,2008,2053,2046,2061,2030,2061
2043,2029,1998,2049,2042,2057,2038,2052
2036,2028,1998,2036,2042,2057,2037,2047
2040,2031,2003,2035,2042,2060,2043,2043
2042,2036,2017,2038,2042,2050,2045,2034
2047,2042,2027,2036,2035,2043,2052,2040
2050,2040,2019,2028,2038,2047,2027,2037
2038,2036,2028,2025,2048,2048,2025,2032
2049,2038,2038,2030,2053,2049,2033,2030
2050,2046,2050,2032,2050,2051,2045,2029
2045,2039,2061,2034,2050,2046,2037,2020
2050,2039,2074,2040,2050,2039,2041,2036
2052,2057,2075,2046,2052,2049,2049,2033
2052,2056,2069,2048,2055,2048,2048,2030
2045,2048,2059,2047,2058,2048,2051,2032
2053,2044,2057,2042,2056,2047,2034,2036
2046,2045,2054,2040,2060,2049,2032,2043
2047,2053,2058,2043,2065,2045,2061,2043
2046,2057,2057,2042,2060,2047,2036,2054
2046,2053,2060,2040,2053,2051,2054,2061
2041,2048,2050,2038,2060,2049,2034,2066
2041,2052,2050,2039,2061,2049,2038,2068
2046,2050,2055,2041,2060,2049,2042,2078
2046,2052,2059,2045,2059,2048,2039,2082
2045,2059,2064,2046,2061,2054,2054,2090
2047,2061,2061,2047,2055,2054,2053,2080
2033,2050,2056,2039,2040,2046,2051,2083
2047,2050,2058,2034,2042,2044,2021,2084
2054,2060,2067,2042,2051,2052,2049,2089
2056,2071,2068,2042,2046,2069,2045,2082
2054,2066,2063,2045,2050,2074,2048,2071
2055,2067,2066,2050,2057,2086,2046,2070
2058,2065,2063,2046,2053,2092,2040,2062
2057,2065,2063,2046,2043,2073,2044,2061
2057,2060,2054,2045,2052,2025,2054,2055
2057,2055,2049,2043,2046,2011,2050,2048
2052,2052,2046,2039,2044,2026,2042,2042
2049,2054,2039,2040,2047,2035,2040,2041
2049,2055,2040,2045,2050,2039,2028,2042
2048,2055,2041,2049,2049,2042,2052,2032
2048,2050,2044,2043,2048,2045,2050,2036
2044,2052,2043,2049,2046,2041,2070,2032
2041,2039,2037,2042,2041,2040,2058,2032
2042,2033,2032,2040,2045,2047,2064,2042
2051,2046,2045,2041,2050,2046,2049,2035
2049,2045,2049,2042,2057,2053,2057,2037
2052,2047,2053,2040,2052,2054,2066,2044
2053,2044,2052,2042,2047,2053,2064,2041
2054,2048,2057,2043,2055,2049,2046,2049
2053,2047,2048,2040,2051,2048,2046,2056
2052,2042,2044,2038,2044,2047,2042,2059
2050,2037,2030,2038,2045,2046,2045,2061
2051,2035,2031,2041,2048,2050,2038,2067
2049,2036,2036,2043,2056,2051,2066,2074
2045,2042,2026,2043,2061,2057,2059,2078
2044,2037,2029,2044,2056,2055,2071,2076
2031,2034,2024,2038,2051,2052,2058,2082
2033,2027,2031,2038,2055,2054,2058,2081
2035,2018,2025,2034,2050,2047,2057,2080
2032,2016,2025,2034,2049,2046,2046,2087
2039,2037,2042,2044,2057,2053,2077,2080
2050,2049,2054,2046,2071,2056,2073,2081
2056,2054,2065,2050,2062,2054,2072,2066
2049,2064,2079,2052,2063,2055,2066,2062
2057,2066,2090,2057,2061,2056,2067,2061
2064,2068,2087,2052,2051,2058,2071,2062
2063,2061,2068,2051,2054,2053,2074,2058
2060,2047,2052,2040,2047,2045,2050,2053
2051,2049,2049,2036,2046,2047,2041,2042
2055,2047,2056,2042,2049,2047,2051,2045
2061,2058,2055,2046,2062,2054,2043,2037
2048,2053,2047,2042,2055,2052,2033,2032
2041,2048,2049,2040,2056,2047,2042,2033
2046,2056,2056,2044,2052,2048,2051,2034
2048,2049,2054,2036,2044,2040,2036,2037
2050,2047,2052,2038,2050,2053,2037,2046
2064,2071,2070,2051,2061,2053,2060,2054
2064,2077,2067,2040,2054,2051,2060,2046
2062,2075,2066,2044,2047,2048,2051,2052
2064,2068,2062,2047,2056,2045,2053,2051
2061,2061,2058,2041,2054,2048,2035,2055
2061,2057,2061,2046,2051,2050,2039,2062
2061,2062,2070,2046,2048,2054,2059,2065
2056,2065,2068,2053,2061,2053,2068,2073
2050,2069,2069,2047,2059,2057,2067,2083
2052,2062,2063,2054,2054,2057,2086,2085
2047,2060,2059,2046,2052,2049,2078,2090
2053,2056,2061,2042,2051,2054,2074,2086
2053,2061,2064,2042,2043,2051,2080,2084
2055,2059,2057,2040,2044,2045,2053,2081
2037,2045,2047,2039,2038,2047,2037,2088
2049,2043,2042,2034,2039,2051,2055,2089
2056,2058,2047,2038,2044,2051,2064,2085
2056,2055,2046,2037,2036,2047,2056,2072
2043,2051,2041,2036,2039,2053,2058,2067
2049,2056,2047,2036,2035,2055,2073,2068
2051,2055,2045,2039,2039,2059,2070,2061
2054,2050,2038,2038,2038,2049,2068,2059
2051,2051,2041,2036,2040,2044,2060,2062
2048,2054,2044,2038,2040,2036,2059,2047
2043,2056,2051,2044,2049,2036,2061,2044
2051,2062,2050,2047,2039,2046,2062,2033
2046,2057,2043,2040,2043,2058,2064,2039
2049,2046,2040,2041,2045,2060,2073,2032
2040,2048,2040,2042,2048,2061,2072,2031
2042,2045,2042,2043,2048,2059,2066,2027
2035,2039,2037,2040,2045,2061,2058,2034
2038,2048,2043,2046,2050,2064,2060,2040
2048,2057,2051,2050,2050,2054,2062,2049
2047,2056,2051,2046,2048,2057,2049,2047
2048,2054,2056,2049,2052,2061,2050,2049
2053,2059,2051,2058,2058,2057,2050,2045
2051,2051,2056,2059,2069,2045,2051,2047
2045,2051,2045,2049,2066,2037,2057,2053
2046,2043,2038,2043,2061,2041,2041,2053
2047,2042,2033,2033,2046,2040,2059,2065
2045,2034,2036,2025,2041,2038,2061,2076
2045,2041,2039,2024,2041,2040,2061,2080
2045,2045,2041,2029,2043,2043,2052,2091
2049,2052,2058,2035,2040,2049,2053,2094
2053,2049,2063,2030,2041,2033,2058,2097
2050,2057,2060,2040,2039,2024,2036,2090
2038,2044,2050,2030,2039,2025,2032,2083
2038,2037,2045,2026,2042,2033,2056,2080
2053,2047,2047,2033,2048,2043,2061,2072
2048,2046,2047,2036,2045,2046,2052,2072
2045,2050,2044,2032,2047,2035,2053,2075
2045,2045,2044,2029,2044,2036,2049,2066
2052,2049,2051,2037,2047,2035,2055,2068
2061,2055,2057,2031,2042,2035,2052,2063
2056,2056,2054,2031,2036,2046,2060,2057
2058,2053,2051,2031,2035,2051,2066,2051
2050,2050,2049,2025,2038,2070,2060,2041
2049,2062,2052,2022,2038,2078,2060,2040
2056,2055,2050,2026,2037,2086,2047,2039
2054,2056,2048,2028,2034,2087,2043,2035
2048,2057,2054,2024,2035,2080,2060,2038
2050,2058,2055,2032,2039,2053,2065,2038
2051,2049,2049,2027,2037,2039,2057,2037
2047,2051,2046,2025,2033,2046,2052,2041
2054,2055,2052,2028,2038,2057,2057,2042
2056,2059,2050,2029,2040,2067,2060,2052
2056,2054,2047,2032,2046,2071,2066,2052
2059,2055,2050,2032,2045,2065,2054,2046
2053,2057,2049,2033,2040,2051,2052,2053
2058,2063,2051,2033,2045,2045,2050,2056
2060,2058,2051,2032,2045,2040,2054,2054
2058,2055,2049,2032,2037,2040,2056,2062
2050,2051,2050,2030,2045,2043,2056,2070
2052,2047,2045,2032,2042,2045,2055,2081
2048,2050,2042,2026,2034,2032,2051,2082
2047,2047,2043,2021,2021,2019,2048,2085
2042,2048,2043,2017,2007,2011,2039,2085
2043,2044,2044,2013,1990,2001,2037,2080
2028,2035,2025,1994,1979,2005,2024,2071
2026,2030,2024,1999,1990,2016,2027,2070
2036,2043,2037,2020,2024,2024,2042,2073
2036,2039,2034,2017,2026,2019,2053,2074
2041,2047,2039,2028,2047,2037,2050,2075
2047,2056,2043,2040,2070,2056,2056,2083
2048,2056,2042,2042,2088,2082,2069,2080
2053,2051,2035,2041,2105,2092,2071,2069
2052,2053,2035,2040,2085,2085,2067,2059
2046,2045,2029,2030,2076,2066,2048,2050
2038,2041,2023,2027,2066,2066,2054,2047
2032,2035,2023,2026,2057,2057,2042,2044
2034,2035,2026,2031,2039,2050,2043,2043
2043,2046,2025,2026,2033,2045,2034,2042
2043,2045,2024,2022,2022,2044,2032,2030
2044,2041,2016,2014,2014,2040,2046,2037
2038,2036,2016,2014,2022,2042,2042,2029
2031,2029,2020,2012,2047,2049,2046,2033
2039,2030,2025,2027,2052,2060,2064,2036
2046,2042,2026,2032,2055,2063,2064,2039
2044,2048,2042,2033,2054,2065,2071,2042
2047,2054,2057,2037,2059,2070,2073,2049
2053,2054,2056,2040,2064,2065,2072,2052
2052,2049,2058,2032,2056,2059,2065,2054
2050,2041,2047,2033,2054,2053,2056,2056
2050,2050,2057,2038,2065,2052,2053,2064
2051,2052,2055,2039,2064,2048,2064,2073
2047,2046,2050,2041,2060,2048,2057,2075
2044,2040,2043,2035,2053,2057,2043,2080
2041,2036,2041,2033,2043,2050,2056,2080
2041,2038,2040,2029,2043,2052,2031,2086
2035,2037,2038,2030,2048,2055,2049,2086
2034,2031,2041,2021,2045,2056,2053,2089
2029,2027,2036,2023,2051,2062,2051,2089
2037,2034,2042,2025,2048,2065,2049,2093
2044,2044,2048,2031,2048,2076,2057,2087
2046,2049,2054,2030,2052,2094,2064,2079
2051,2049,2054,2032,2052,2103,2057,2084
2054,2051,2051,2030,2051,2108,2071,2081
2048,2050,2045,2028,2044,2102,2043,2069
2051,2050,2044,2028,2038,2084,2031,2063
2046,2045,2044,2037,2053,2053,2048,2067
2052,2042,2039,2032,2067,2053,2065,2068
2047,2042,2036,2027,2059,2059,2081,2059
2049,2038,2038,2023,2044,2057,2064,2062
2046,2038,2040,2026,2046,2061,2081,2056
2044,2040,2040,2033,2044,2067,2081,2050
2045,2039,2035,2027,2042,2072,2065,2051
2043,2039,2034,2022,2036,2074,2061,2044
2032,2027,2026,2021,2030,2076,2058,2040
2035,2032,2029,2026,2038,2088,2053,2046
2041,2042,2034,2029,2040,2072,2058,2041
2038,2042,2033,2022,2027,2008,2045,2043
2033,2039,2033,2022,2026,1978,2038,2042
2039,2036,2038,2023,2030,1998,2034,2045
2037,2048,2050,2035,2040,2017,2039,2042
2043,2062,2055,2038,2059,2038,2030,2048
2047,2060,2053,2046,2055,2034,2037,2055
2050,2057,2050,2036,2044,2018,2012,2062
2040,2047,2040,2038,2045,2010,2028,2070
2035,2050,2036,2030,2037,2010,2032,2082
2033,2042,2029,2032,2033,2010,2038,2077
2035,2035,2030,2033,2033,2016,2042,2077
2028,2029,2016,2032,2040,2026,2037,2074
2029,2032,2018,2038,2040,2016,2041,2077
2031,2023,2018,2036,2034,2024,2038,2086
2031,2024,2013,2032,2030,2025,2050,2094
2037,2026,2010,2020,2026,2022,2051,2079
2034,2022,2005,2017,2030,2027,2038,2068
2036,2019,2010,2020,2019,2030,2042,2062
2030,2023,2016,2024,2024,2041,2041,2059
2032,2029,2016,2024,2025,2041,2053,2058
2043,2033,2014,2024,2025,2045,2047,2054
2044,2031,2011,2027,2035,2042,2049,2056
2046,2032,2002,2018,2038,2035,2038,2042
2043,2032,1993,2006,2024,2019,2023,2042
2039,2020,1991,1999,2017,2004,2023,2043
2036,2031,2009,1998,2007,1994,2029,2048
2049,2046,2041,2012,2015,1997,2033,2053
2058,2067,2074,2027,2027,2008,2033,2054
2064,2082,2092,2029,2041,2015,2042,2045
2058,2071,2074,2023,2047,2023,2038,2038
2051,2061,2056,2018,2051,2036,2032,2036
2052,2068,2050,2022,2061,2049,2036,2041
2047,2066,2047,2021,2056,2067,2046,2039
2050,2056,2050,2027,2055,2065,2029,2042
2051,2059,2056,2036,2056,2063,2019,2051
2052,2066,2062,2047,2062,2064,2040,2048
2052,2060,2072,2050,2066,2071,2051,2054
2052,2065,2074,2045,2055,2081,2059,2055
2051,2058,2078,2040,2038,2089,2062,2056
2046,2055,2075,2032,2017,2082,2050,2063
2050,2063,2068,2028,2007,2069,2039,2069
2043,2060,2061,2024,2004,2045,2017,2073
2045,2054,2064,2029,2009,2023,2046,2080
2052,2054,2060,2036,2038,2022,2047,2085
2057,2054,2061,2051,2089,2042,2039,2086
2040,2046,2050,2056,2159,2068,2042,2079
2037,2041,2044,2055,2194,2087,2058,2080
2050,2059,2050,2057,2185,2088,2061,2085
2047,2062,2051,2054,2180,2098,2059,2084
2053,2071,2051,2054,2152,2095,2065,2077
2048,2067,2041,2057,2138,2092,2068,2070
2051,2058,2021,2052,2081,2064,2057,2055
2044,2047,2012,2038,2007,2042,2043,2043
2040,2043,2013,2030,1941,2030,2055,2037
2043,2034,2000,2011,1921,2025,2045,2026
2033,2032,1992,2016,1939,2040,2046,2024
2027,2031,1993,2033,1892,2050,2046,2027
2028,2032,1995,2038,1931,2055,2056,2030
2029,2040,1997,2047,1981,2060,2056,2026
2036,2040,1996,2049,2007,2062,2022,2024
2035,2029,1989,2044,2002,2024,2010,2009
2024,2016,1987,2038,1998,2012,2008,2008
2026,2026,2010,2059,2006,2024,2015,2013
2036,2041,2026,2054,1994,2024,2014,2003
2033,2033,2014,2022,1983,2025,2005,2006
2024,2032,2023,2018,2022,2056,2021,2031
2042,2045,2044,2035,2081,2080,2059,2034
2043,2054,2080,2037,2082,2083,2037,2040
2041,2070,2094,2033,2061,2071,2038,2042
2045,2071,2092,2034,2047,2062,2056,2053
2052,2081,2087,2044,2045,2056,2039,2066
2056,2082,2093,2065,2053,2057,2050,2068
2051,2075,2096,2062,2042,2042,2037,2074
2045,2060,2084,2056,2041,2040,2021,2077
2048,2054,2077,2059,2053,2050,2029,2080
2050,2062,2076,2066,2064,2060,2038,2082
2044,2065,2086,2064,2064,2059,2034,2073
2042,2050,2073,2056,2042,2063,2011,2072
2039,2055,2057,2042,2031,2065,2013,2072
2048,2053,2049,2042,2030,2058,2034,2071
2045,2057,2038,2036,2019,2054,2032,2058
2037,2043,2032,2029,2018,2052,2036,2052
2038,2045,2031,2025,2018,2054,2037,2048
2041,2060,2052,2025,2017,2046,2028,2044
2039,2050,2055,2011,2009,2045,2019,2032
2038,2045,2043,1992,1996,2040,2020,2027
2039,2050,2046,1992,2008,2052,2024,2027
2043,2062,2057,2000,2020,2056,2012,2020
2044,2058,2052,2004,2034,2062,2026,2027
2039,2061,2047,2011,2063,2067,2037,2028
2045,2064,2045,2020,2065,2067,2034,2025
2058,2057,2038,2024,2061,2069,2032,2028
2051,2056,2042,2018,2056,2072,2040,2027
2051,2052,2038,2019,2050,2065,2032,2028
2052,2046,2040,2015,2048,2062,2048,2026
2050,2053,2051,2025,2044,2055,2041,2021
2049,2050,2048,2018,2046,2050,2022,2024
2046,2048,2044,2029,2043,2049,2033,2027
2048,2052,2050,2032,2049,2051,2038,2030
2051,2054,2056,2035,2060,2057,2029,2035
2043,2056,2051,2035,2070,2055,2036,2034
2040,2056,2044,2024,2054,2046,2011,2038
2043,2049,2042,2026,2035,2044,2026,2039
2042,2050,2044,2019,2015,2059,2043,2048
2045,2054,2044,2018,1992,2067,2054,2058
2038,2048,2045,2021,1981,2077,2041,2060
2040,2049,2048,2026,1997,2074,2056,2064
2040,2054,2052,2041,2024,2058,2034,2068
2046,2051,2053,2053,2049,2029,2026,2069
2045,2041,2050,2054,2055,2029,2029,2064
2038,2034,2049,2055,2044,2043,2026,2062
2038,2046,2052,2050,2026,2052,2016,2062
2042,2052,2056,2050,2030,2059,2038,2056
2033,2057,2067,2058,2038,2073,2022,2047
2039,2056,2070,2068,2058,2082,2048,2049
2040,2060,2063,2063,2094,2084,2026,2038
2042,2045,2050,2034,2067,2064,2033,2029
2039,2037,2037,1996,1975,2031,2012,2019
2042,2038,2029,1992,1967,2024,2034,2024
2057,2052,2046,2029,2023,2038,2053,2014
2055,2058,2052,2057,2128,2048,2045,2008
2035,2050,2040,2059,2164,2051,2051,1995
2034,2044,2027,2052,2140,2059,2057,2015
2042,2041,2024,2044,2132,2064,2060,2014
2043,2033,2016,2040,2142,2069,2054,2012
2034,2018,2005,2015,2117,2067,2044,2016
2034,2019,1998,1999,2103,2079,2046,2015
2051,2048,2024,2022,2147,2101,2045,2018
2064,2066,2042,2028,2149,2112,2025,2009
2058,2048,2032,2000,2084,2103,2033,2010
2039,2040,2028,1996,2084,2108,2015,2005
2028,2036,2022,1996,2073,2098,2025,2009
2020,2032,2033,2006,2054,2040,2026,2022
2033,2042,2035,2015,2031,1983,2036,2035
2037,2044,2039,2013,1934,1953,2035,2040
2046,2051,2041,2015,1909,1954,2030,2051
2045,2055,2048,2034,1986,1999,2023,2057
2053,2063,2067,2068,2061,2049,2049,2066
2057,2068,2070,2070,2079,2064,2056,2076
2063,2073,2072,2062,2068,2055,2068,2074
2056,2062,2058,2055,2055,2040,2048,2064
2047,2050,2040,2037,2023,2025,2015,2068
2047,2045,2039,2034,2002,2031,2034,2061
2055,2057,2051,2046,2017,2046,2047,2051
2044,2059,2053,2043,2038,2050,2049,2046
2048,2056,2054,2050,2037,2055,2057,2047
2050,2058,2050,2051,2040,2064,2045,2052
2058,2059,2052,2049,2042,2064,2036,2049
2052,2054,2057,2045,2047,2072,2031,2042
2052,2056,2052,2051,2038,2070,2034,2025
2051,2052,2041,2043,2037,2070,2054,2028
2043,2051,2045,2048,2046,2062,2046,2028
2045,2053,2043,2047,2082,2054,2046,2022
2044,2046,2037,2043,2129,2059,2047,2023
2046,2046,2035,2034,2127,2047,2058,2019
2049,2038,2027,2033,2106,2059,2074,2016
2046,2032,2022,2025,2114,2064,2052,2005
2041,2020,2015,2004,2077,2052,2052,1997
2035,2024,2018,2002,2013,2052,2037,2001
2038,2037,2025,2013,2051,2050,2035,2004
2033,2037,2023,2011,2071,2046,2037,2013
2039,2044,2027,2017,2084,2061,2045,2019
2040,2046,2030,2011,1978,2066,2050,2019
2038,2048,2037,2014,1932,2054,2049,2024
2044,2050,2038,2026,1912,2030,2065,2025
2044,2055,2042,2039,1908,2029,2064,2037
2040,2046,2044,2053,1919,2038,2064,2039
2040,2043,2041,2054,1932,2046,2069,2045
2046,2049,2037,2075,2010,2058,2062,2066
2055,2051,2038,2071,2069,2049,2057,2063
2055,2047,2039,2075,2103,2031,2054,2058
2045,2030,2023,2059,2117,2014,2048,2046
2025,2009,2010,2049,2140,2014,2026,2043
2015,2006,2013,2056,2188,2033,2036,2042
2021,2023,2029,2066,2226,2057,2030,2040
2022,2034,2039,2061,2180,2046,2032,2021
2005,2030,2033,2027,2039,2023,2043,2026
2014,2028,2036,2004,1957,2015,2031,2036
2016,2022,2033,1991,1839,1999,2034,2032
2017,2028,2034,1994,1838,2012,2035,2031
2027,2035,2050,2021,1937,2040,2029,2027
2033,2041,2050,2031,1963,2044,2037,2024
2037,2048,2054,2019,1963,2033,2036,2015
2039,2056,2055,2022,1982,2044,2052,2010
2044,2052,2054,2040,2065,2059,2057,2013
2049,2054,2058,2047,2113,2059,2056,2018
2046,2044,2050,2027,2061,2027,2012,2012
2040,2044,2030,2000,1961,1998,2021,2010
2049,2047,2040,2008,1942,2017,2011,2010
2049,2042,2031,2010,1912,2032,2042,2012
2050,2051,2035,2013,1989,2061,2056,2020
2058,2056,2047,2026,2060,2066,2056,2027
2062,2056,2051,2033,2100,2062,2033,2020
2060,2057,2051,2038,2153,2059,2038,2023
2054,2060,2056,2037,2158,2042,2053,2025
2054,2054,2049,2034,2125,2033,2047,2028
2042,2044,2051,2033,2098,2028,2035,2035
2031,2039,2049,2034,2078,2018,2034,2024
2037,2046,2065,2047,2061,2019,2035,2038
2051,2059,2067,2046,2045,2017,2033,2049
2050,2058,2061,2035,2087,2036,2017,2048
2049,2054,2052,2034,2155,2065,2039,2046
2040,2050,2047,2029,2088,2086,2040,2054
2039,2050,2038,2033,2090,2112,2051,2061
2043,2050,2028,2030,2125,2104,2052,2060
2040,2036,2010,2032,2142,2069,2030,2058
2042,2036,2014,2046,2129,2061,2046,2065
2049,2042,2033,2050,2095,2045,2055,2046
2036,2028,2038,2056,2043,2028,2029,2039
2040,2034,2043,2054,1975,2020,2011,2022
2041,2034,2032,2036,1923,1998,2018,2009
2026,2025,2016,2034,1978,1986,2017,2002
2036,2035,2024,2067,2031,2006,2023,2012
2032,2026,2016,2065,2048,2005,2040,2005
2039,2026,2015,2073,2058,2017,2027,2001
2045,2036,2026,2097,2108,2041,2016,1997
2044,2039,2021,2106,2149,2052,2042,1996
2033,2028,2018,2077,2113,2042,2047,1985
2019,2023,2016,2062,2081,2038,2032,1984
2022,2025,2033,2054,2053,2037,2029,2000
2033,2029,2054,2045,2039,2024,2025,1993
2022,2023,2056,2015,2014,2002,2016,1989
2018,2020,2041,1992,2013,2007,2031,1994
2025,2047,2073,2002,2025,2023,2036,2004
2038,2056,2074,2012,2042,2037,2043,2015
2039,2056,2079,2014,2040,2047,2066,2023
2045,2054,2056,2000,2040,2056,2058,2030
2051,2053,2050,2000,2037,2055,2036,2027
2041,2045,2046,1997,2013,2050,2050,2023
2037,2039,2051,1994,1994,2048,2043,2022
2035,2039,2042,1998,1996,2045,2051,2032
2039,2041,2036,2005,2001,2054,2040,2040
2052,2045,2047,2014,2043,2034,2044,2047
2053,2031,2037,2031,2102,2018,2038,2059
2054,2029,2032,2033,2128,2038,2033,2058
2042,2019,2022,2036,2119,2053,2047,2043
2030,2019,2022,2050,2108,2075,2043,2039
2030,2014,2028,2047,2078,2080,2052,2036
2035,2033,2045,2048,2053,2087,2057,2040
2037,2034,2047,2040,2051,2075,2041,2042
2036,2024,2047,2035,2028,2043,2047,2041
2037,2034,2057,2034,2023,2024,2029,2039
2040,2045,2062,2047,2053,2024,2035,2034
2049,2047,2064,2052,2093,2038,2044,2034
2055,2047,2054,2042,2076,2046,2046,2032
2040,2032,2057,2029,2063,2065,2046,2024
2040,2040,2077,2047,2091,2083,2064,2026
2053,2056,2096,2071,2090,2071,2049,2034
2058,2058,2095,2060,2063,2046,2028,2032
2045,2062,2091,2052,2075,2068,2024,2033
2053,2055,2076,2034,2034,2063,2039,2033
2046,2052,2076,2030,2018,2062,2024,2023
2055,2060,2083,2040,2028,2057,2020,2018
2041,2053,2080,2045,1981,2010,2024,2016
2042,2058,2086,2050,2009,2009,2038,2012
2052,2064,2084,2050,2040,2010,2042,2011
2054,2068,2076,2042,2011,2005,2041,2017
2054,2063,2076,2055,2025,2018,2048,2034
2061,2059,2077,2060,2034,2017,2042,2035
2056,2057,2067,2063,2045,2043,2030,2032
2054,2052,2073,2083,2061,2071,2037,2033
2053,2057,2071,2077,2051,2074,2037,2040
2058,2053,2068,2072,2051,2075,2046,2046
2060,2051,2067,2088,2123,2077,2053,2057
2061,2044,2064,2094,2192,2086,2052,2058
2054,2042,2062,2101,2205,2084,2045,2050
2050,2039,2064,2101,2205,2072,2046,2055
2043,2028,2038,2107,2188,2064,2029,2052
2034,2031,2037,2128,2182,2067,2027,2052
2024,2016,2061,2155,2149,2068,2046,2049
2023,2017,2066,2164,2156,2067,2031,2051
2026,2035,2072,2162,2121,2050,2037,2049
2035,2036,2057,2132,2011,2020,2034,2041
2025,2024,2021,2089,1900,2024,2049,2042
2029,2011,2002,2059,1860,2039,2038,2035
2025,2002,1971,2036,1820,2036,2034,2024
2030,2001,1962,2044,1951,2051,2047,2024
2035,2004,1944,2060,2091,2077,2038,2009
2027,1997,1938,2047,2141,2079,2042,2001
2029,2000,1960,2042,2126,2077,2054,1999
2037,2020,2007,2051,2099,2075,2023,2003
2038,2033,2039,2047,2061,2051,2034,2015
2042,2033,2055,2020,2009,2030,2013,2005
2031,2025,2042,1981,2008,2019,2024,1989
2030,2019,2031,1967,2012,2005,2031,1984
2026,2012,2036,1970,2003,2001,2025,1986
2036,2023,2052,1975,2003,2006,2041,2000
2046,2048,2095,2007,2036,2036,2059,2010
2057,2081,2132,2040,2048,2065,2076,2002
2059,2084,2136,2047,2032,2082,2067,2009
2057,2067,2124,2042,2012,2078,2050,2010
2054,2065,2108,2042,2014,2077,2045,2020
2056,2072,2104,2047,2054,2064,2028,2030
2056,2069,2089,2055,2125,2062,2060,2045
2078,2076,2093,2065,2238,2085,2078,2075
2092,2082,2079,2071,2288,2102,2073,2083
2094,2080,2059,2030,2149,2088,2078,2091
2082,2062,2032,1994,1968,2079,2058,2093
2067,2051,2021,2008,1992,2101,2079,2090
2069,2046,2027,2017,2068,2109,2072,2082
2062,2054,2037,2022,2113,2090,2053,2078
2067,2050,2047,2040,2137,2057,2061,2077
2064,2061,2056,2034,2076,2021,2067,2087
2062,2060,2051,2010,1967,2019,2064,2080
2064,2064,2059,2044,2105,2065,2080,2077
2068,2071,2066,2072,2170,2086,2074,2064
2063,2066,2057,2064,2132,2065,2047,2044
2047,2048,2048,2033,2035,2062,2040,2027
2034,2045,2065,2029,1957,2068,2037,2013
2030,2042,2081,2036,1854,2053,2032,2007
2032,2037,2086,2048,1875,2064,2028,1999
2032,2032,2079,2064,1981,2052,2031,2000
2039,2032,2063,2020,1921,1988,2023,2000
2046,2038,2063,2005,1927,1931,2010,2015
2054,2039,2067,2019,2035,1950,2029,2014
2051,2047,2073,2031,2070,1956,2023,2014
2051,2041,2056,2025,2077,1966,2038,1999
2037,2023,2039,2007,2001,1981,2037,1989
2023,2031,2037,2007,2005,2024,2046,1994
2027,2037,2045,2028,2076,2041,2029,1996
2030,2037,2043,2035,2092,2055,2043,2006
2044,2049,2050,2026,2071,2076,2044,2015
2057,2053,2050,2036,2098,2080,2034,2014
2056,2042,2049,2042,2133,2079,2021,2018
2052,2042,2045,2044,2129,2063,2025,2025
2046,2049,2036,2028,2094,2046,2036,2037
2047,2050,2028,2030,2088,2052,2031,2033
2052,2040,2032,2049,2098,2056,2042,2036
2045,2047,2046,2068,2134,2073,2045,2048
2053,2051,2052,2088,2167,2065,2038,2051
2039,2051,2055,2086,2190,2064,2034,2050
2023,2043,2046,2097,2210,2062,2018,2050
2027,2033,2030,2088,2195,2073,1999,2038
2024,2022,2020,2078,2148,2072,2026,2035
2038,2030,2043,2065,2076,2060,2026,2034
2044,2034,2037,2041,1963,2048,2029,2028
2024,2023,2031,2026,1885,2016,2012,2016
2016,2006,2023,2032,1865,1980,2021,2008
2011,1998,2017,2049,1965,1991,2020,2007
2012,2005,2020,2068,2052,2019,2051,2029
2027,2011,2024,2064,2030,2038,2050,2030
2025,2002,2020,2053,2014,2054,2055,2010
2039,2026,2040,2056,2019,2055,2055,2012
2040,2037,2049,2052,2030,2050,2064,2022
2046,2057,2049,2022,2042,2040,2051,2021
2053,2059,2051,2028,2097,2039,2041,2010
2052,2058,2055,2042,2109,2049,2045,2010
2056,2056,2057,2052,2070,2047,2028,2016
2058,2057,2058,2036,2021,2032,2037,2024
2058,2052,2055,2036,2000,2019,2023,2021
2061,2055,2060,2054,2033,2041,2060,2014
2061,2057,2064,2065,2057,2061,2051,2012
2064,2060,2056,2054,2090,2074,2061,2020
2057,2058,2052,2056,2122,2074,2045,2017
2048,2046,2041,2059,2118,2059,2038,2013
2042,2032,2035,2063,2114,2054,2033,2025
2037,2011,2019,2047,2075,2055,2033,2023
2031,2023,2033,2043,2043,2061,2039,2024
2038,2045,2050,2037,1996,2046,2049,2033
2027,2042,2049,2024,1932,2015,2047,2036
2034,2048,2058,2033,1911,2017,2056,2052
2044,2063,2071,2060,1967,2046,2069,2053
2047,2060,2070,2070,2008,2062,2051,2060
2041,2047,2066,2066,1987,2069,2058,2059
2038,2040,2069,2062,2039,2066,2064,2059
2049,2061,2078,2068,2086,2069,2058,2062
2059,2068,2068,2071,2101,2060,2042,2056
2053,2044,2051,2065,2121,2052,2037,2051
2058,2042,2064,2068,2121,2048,2028,2036
2046,2039,2069,2082,2156,2026,2022,2021
2033,2030,2084,2105,2121,2008,2000,2002
2022,2024,2090,2104,2074,2003,1989,1995
2027,2026,2080,2110,2078,2002,2011,1989
2037,2025,2068,2116,2024,2003,2021,2002
2042,2037,2059,2121,2018,2024,2036,2007
2053,2053,2053,2136,2077,2055,2046,2015
2056,2053,2035,2138,2094,2065,2037,2013
2048,2040,2002,2126,2070,2084,2057,2021
2053,2040,1997,2127,2045,2101,2069,2023
2050,2037,1992,2101,2028,2092,2050,2008
2036,2017,1984,2080,2001,2079,2042,1994
2039,2015,1986,2051,1983,2051,2020,1968
2022,2023,1994,2020,1973,2004,2017,1970
2014,2015,1980,2016,2012,2000,2010,1992
1999,2003,1974,2007,2065,2012,2002,1993
1996,1999,1980,1998,2126,2025,2004,1998
2003,2018,2014,1990,2093,2036,2044,2022
2046,2055,2064,2020,2071,2053,2065,2029
2057,2069,2078,2036,2074,2054,2069,2031
2058,2078,2095,2047,2086,2064,2068,2045
2048,2071,2097,2046,2091,2057,2059,2050
2053,2058,2088,2033,2084,2034,2039,2048
2048,2053,2079,2017,2093,2036,2033,2063
2067,2053,2087,2036,2147,2063,2041,2080
2083,2070,2101,2065,2169,2076,2044,2084
2082,2078,2096,2077,2162,2070,2053,2092
2083,2073,2088,2062,2107,2048,2045,2074
2071,2062,2078,2051,2084,2051,2034,2061
2047,2058,2079,2065,2109,2047,2030,2047
2033,2042,2070,2057,2056,2033,2033,2053
2042,2046,2064,2053,2006,2035,2055,2054
2047,2041,2061,2043,1923,2027,2030,2067
2050,2040,2062,2024,1819,2008,2015,2062
2052,2036,2052,2008,1844,1979,2027,2045
2054,2040,2062,2011,1879,1986,2029,2017
2040,2040,2064,2034,1896,1999,2014,1987
2027,2033,2055,2036,1930,2017,2011,1993
2024,2035,2049,2072,2044,2044,2025,2006
2026,2046,2050,2105,2130,2056,2031,2009
2025,2052,2048,2109,2168,2048,2048,2007
2029,2059,2041,2102,2156,2059,2029,2004
2039,2068,2043,2090,2053,2065,2036,2003
2041,2058,2035,2083,2010,2051,2025,1993
2030,2043,2040,2089,2000,2041,2035,2006
2046,2060,2053,2098,2005,2036,2073,2020
2058,2067,2061,2109,2014,2045,2066,2030
2055,2069,2062,2106,2016,2056,2057,2029
2051,2066,2052,2080,2036,2059,2054,2024
2047,2064,2050,2057,2102,2074,2038,2024
2032,2052,2048,2061,2175,2070,2030,2025
2037,2047,2060,2064,2198,2058,2040,2022
2040,2047,2064,2076,2224,2056,2059,2027
2044,2052,2063,2096,2244,2067,2062,2030
2032,2034,2059,2098,2248,2070,2060,2030
2030,2033,2059,2101,2241,2071,2051,2047
2039,2052,2074,2113,2120,2042,2053,2062
2049,2062,2076,2105,2048,2038,2046,2067
2052,2064,2078,2093,2107,2084,2031,2055
2053,2053,2073,2081,2152,2093,2034,2040
2038,2039,2063,2055,2126,2063,2019,2045
2036,2038,2054,2020,1923,2022,2024,2046
2034,2038,2056,2038,1913,2020,2040,2044
2035,2047,2061,2055,1953,2029,2053,2047
2037,2038,2051,2054,1983,2032,2046,2036
2041,2033,2041,2059,2030,2034,2043,2028
2033,2039,2040,2076,2082,2040,2039,2020
2032,2042,2035,2075,2102,2047,2042,2020
2045,2041,2035,2070,2067,2053,2049,2023
2041,2048,2039,2069,2052,2058,2064,2022
2039,2043,2038,2066,2064,2058,2067,2020
2032,2037,2032,2059,2046,2058,2053,2010
2029,2022,2025,2032,2041,2054,2045,2007
2032,2032,2023,2018,2037,2070,2057,2014
2042,2050,2024,2025,2039,2082,2068,2002
2039,2036,2009,2029,2036,2074,2026,1991
2034,2032,2003,2041,2043,2075,2045,1996
2040,2041,2010,2072,2065,2067,2054,2009
2046,2048,2016,2094,2074,2040,2051,2015
2049,2045,2030,2098,2072,2042,2053,2023
2044,2041,2037,2098,2080,2056,2076,2015
2042,2047,2045,2100,2077,2048,2045,2012
2046,2048,2057,2099,2073,2038,2028,2022
2035,2040,2045,2078,2057,2022,2024,2023
2027,2020,2028,2047,2041,2022,2022,2032
2030,2028,2037,2057,2046,2032,2039,2049
2046,2054,2083,2094,2058,2040,2043,2052
2045,2070,2118,2115,2075,2052,2036,2064
2045,2086,2136,2128,2086,2066,2052,2066
2052,2088,2129,2124,2089,2067,2039,2064
2050,2077,2092,2098,2065,2058,2043,2054
2041,2048,2055,2071,2055,2048,2039,2060
2030,2035,2024,2043,2049,2034,2034,2062
2039,2042,2018,2030,2053,2043,2049,2060
2036,2044,2015,2027,2050,2039,2054,2051
2037,2054,2030,2032,2062,2045,2047,2050
2047,2050,2017,2026,2057,2047,2051,2048
2037,2044,2008,2027,2056,2050,2032,2042
2045,2035,2008,2032,2061,2046,2052,2042
2047,2046,2009,2028,2067,2053,2048,2036
2057,2052,2010,2031,2057,2045,2042,2030
2053,2050,2014,2027,2054,2054,2046,2016
2050,2037,2002,2013,2017,2050,2021,2016
2046,2020,1980,2017,2049,2056,2035,2012
2045,2033,1989,2045,2060,2075,2044,2024
2042,2033,2008,2072,2053,2096,2030,2014
2034,2032,2017,2078,2036,2114,2045,1999
2028,2023,2009,2077,2023,2102,2042,2008
2024,2029,2025,2067,1998,2058,2058,2017
2033,2044,2049,2060,1968,2021,2052,2018
2032,2040,2052,2031,1900,1971,2015,2021
2037,2045,2060,2038,1892,1973,2020,2024
2040,2044,2059,2032,1890,1996,2023,2034
2051,2044,2060,2011,1897,2006,2029,2030
2053,2045,2078,2018,1957,2050,2038,2039
2058,2060,2101,2044,2050,2074,2049,2039
2054,2065,2087,2043,2132,2035,2042,2037
2045,2049,2068,2030,2143,2009,2061,2041
2031,2029,2037,2021,2145,2017,2042,2045
2032,2020,2030,2026,2165,2036,2042,2057
2033,2028,2044,2054,2159,2052,2057,2052
2028,2030,2056,2059,2126,2058,2067,2049
2025,2037,2057,2061,2098,2065,2067,2056
2031,2035,2050,2059,2085,2060,2068,2064
2031,2045,2056,2064,2086,2062,2067,2071
2042,2057,2066,2088,2087,2058,2073,2074
2058,2049,2069,2097,2074,2065,2065,2047
2036,2034,2056,2093,2048,2046,2071,2048
2036,2023,2044,2089,2068,2046,2056,2049
2029,2012,2035,2086,2110,2051,2043,2050
2042,2028,2050,2106,2138,2052,2059,2032
2052,2052,2068,2109,2111,2057,2038,2020
2047,2051,2062,2100,2089,2054,2065,2029
2037,2045,2055,2101,2143,2062,2067,2030
2039,2036,2042,2109,2193,2073,2048,2021
2034,2024,2027,2093,2150,2047,2024,2014
2032,2009,2014,2082,2110,2022,2014,2012
2020,2020,2025,2090,2101,2030,2021,2021
2031,2043,2058,2099,2106,2043,2026,2016
2038,2048,2084,2094,2116,2062,2021,2014
2038,2050,2088,2083,2063,2095,2043,2004
2036,2055,2084,2047,1910,2100,2031,2007
2042,2057,2070,2042,1906,2093,2043,2012
2049,2055,2059,2029,1920,2069,2026,2006
2043,2048,2056,2032,1951,1997,2033,2029
2051,2058,2059,2055,2027,1937,2047,2046
2057,2065,2058,2057,2071,1974,2064,2049
2053,2063,2056,2056,2100,2027,2059,2053
2055,2072,2066,2071,2109,2066,2088,2065
2065,2074,2074,2073,2083,2068,2070,2070
2067,2074,2075,2069,2061,2055,2065,2073
2062,2069,2071,2063,2053,2050,2053,2064
2059,2056,2069,2066,2028,2032,2043,2054
2050,2062,2075,2069,2019,2024,2028,2058
2043,2068,2084,2070,2016,2013,2023,2072
2039,2069,2082,2074,2028,2018,2044,2068
2035,2067,2069,2059,2035,2029,2044,2072
2044,2070,2068,2062,2043,2035,2056,2072
2054,2064,2058,2062,2055,2051,2056,2069
2050,2051,2049,2068,2078,2064,2066,2060
2040,2050,2046,2067,2072,2052,2067,2061
2041,2049,2042,2065,2069,2035,2041,2050
2038,2055,2048,2077,2072,2038,2050,2045
2050,2054,2053,2078,2072,2041,2017,2041
2050,2053,2047,2074,2056,2034,2009,2035
2047,2044,2046,2078,2066,2039,2037,2028
2037,2044,2050,2084,2073,2052,2040,2018
2032,2048,2050,2088,2080,2066,2055,2014
2041,2048,2054,2084,2084,2071,2028,2026
2056,2041,2050,2082,2086,2073,2049,2033
2056,2041,2040,2080,2075,2060,2049,2029
2052,2038,2034,2068,2064,2048,2037,2020
2046,2028,2030,2070,2061,2043,2011,2004
2033,2031,2037,2072,2072,2052,2038,2014
2044,2035,2048,2079,2068,2054,2048,2025
2037,2033,2052,2085,2060,2045,2051,2027
2038,2038,2045,2062,2028,2043,2050,2030
2040,2033,2036,2057,2026,2041,2059,2050
2048,2030,2027,2052,2044,2046,2037,2061
2064,2038,2035,2059,2069,2058,2066,2066
2055,2035,2041,2072,2103,2070,2046,2057
2038,2035,2045,2095,2142,2078,2027,2047
2026,2046,2054,2096,2146,2089,2062,2044
2024,2039,2051,2094,2156,2089,2049,2056
2017,2034,2042,2086,2157,2089,2049,2057
2038,2039,2048,2100,2156,2092,2056,2072
2038,2050,2052,2101,2081,2056,2061,2077
2035,2050,2046,2062,1969,2011,2054,2081
2039,2050,2046,2049,1923,1994,2054,2078
2049,2051,2051,2042,1934,2010,2036,2069
2039,2049,2040,2032,2040,2009,2027,2059
2031,2042,2035,2042,2152,2014,2036,2056
2029,2045,2033,2059,2174,2028,2042,2046
2037,2043,2036,2071,2125,2039,2050,2054
2047,2053,2056,2094,2113,2054,2042,2049
2054,2058,2065,2101,2090,2053,2044,2032
2050,2060,2076,2091,2018,2048,2043,2035
2060,2064,2076,2078,1901,2039,2043,2029
2053,2068,2077,2085,1946,2047,2049,2030
2052,2065,2069,2086,2014,2054,2051,2034
2048,2058,2068,2089,2047,2054,2040,2031
2048,2050,2056,2088,2041,2046,2042,2030
2045,2050,2045,2079,2040,2035,2048,2020
2047,2042,2039,2072,2020,2009,2041,2008
2038,2044,2026,2054,1981,2008,2046,2011
2050,2058,2027,2052,2008,2031,2056,2033
2053,2047,2011,2053,2017,2034,2057,2036
2049,2039,2003,2051,2001,2033,2047,2023
2048,2037,2014,2058,2010,2042,2037,2030
2053,2065,2054,2085,2040,2044,2047,2032
2061,2058,2050,2071,2027,2043,2041,2034
2042,2043,2028,2049,2014,2038,2049,2032
2040,2031,2014,2054,2068,2044,2051,2059
2060,2041,2018,2094,2135,2054,2050,2073
2055,2041,2027,2109,2150,2054,2059,2075
2053,2038,2017,2109,2139,2058,2067,2078
2051,2046,2027,2105,2133,2067,2059,2078
2056,2048,2030,2095,2106,2065,2065,2080
2053,2043,2035,2084,2082,2055,2046,2076
2048,2040,2040,2077,2072,2046,2045,2072
2051,2041,2058,2075,2061,2047,2056,2069
2039,2038,2069,2067,2047,2046,2047,2059
2035,2032,2068,2051,2034,2044,2040,2054
2023,2041,2087,2059,2038,2040,2028,2059
2030,2059,2125,2075,2062,2052,2052,2056
2045,2072,2141,2075,2063,2069,2055,2052
2038,2064,2123,2070,2056,2082,2062,2040
2044,2057,2099,2065,2046,2072,2056,2041
2052,2062,2087,2072,2041,2070,2048,2039
2054,2052,2078,2068,2049,2070,2062,2037
2058,2054,2069,2072,2057,2046,2044,2036
2065,2057,2060,2073,2075,2018,2021,2031
2061,2045,2037,2067,2072,2020,2037,2028
2062,2050,2039,2063,2051,2031,2051,2013
2042,2039,2029,2047,2060,2020,2032,2006
2039,2028,2010,2031,2050,2028,2036,2018
2031,2029,2005,2033,2059,2051,2044,2036
2030,2040,2006,2040,2060,2067,2070,2042
2047,2052,2016,2048,2072,2064,2077,2045
2065,2044,2013,2037,2051,2047,2086,2038
2059,2042,2015,2025,2022,2027,2055,2029
2057,2043,2022,2032,2085,2050,2057,2034
2054,2043,2027,2041,2087,2061,2075,2037
2048,2040,2029,2044,2066,2050,2067,2046
2053,2041,2037,2063,2048,2011,2063,2059
2066,2045,2059,2075,2016,2004,2062,2071
2070,2047,2074,2081,2013,2031,2069,2078
2070,2051,2068,2079,1987,2038,2058,2082
2065,2042,2041,2075,1995,2037,2047,2064
2047,2027,2008,2068,2050,2059,2040,2062
2044,2030,2010,2097,2128,2063,2047,2076
2054,2047,2037,2122,2139,2032,2056,2086
2056,2058,2050,2100,2027,2012,2044,2087
2059,2069,2062,2094,1996,2009,2035,2078
2060,2062,2064,2085,1999,2020,2049,2067
2063,2064,2068,2078,1989,2032,2063,2061
2068,2066,2062,2080,2079,2038,2058,2056
2065,2054,2055,2072,2135,2039,2039,2045
2052,2043,2064,2066,2123,2047,2041,2040
2042,2043,2062,2056,2107,2046,2043,2037
2037,2040,2057,2039,2094,2035,2040,2039
2058,2042,2054,2031,2093,2034,2039,2034
2056,2040,2046,2017,2076,2026,2035,2034
2049,2036,2045,2021,2021,2014,2037,2018
2040,2032,2048,2041,2009,2030,2043,2011
2050,2045,2064,2071,2035,2046,2056,2023
2057,2037,2061,2079,2036,2050,2043,2026
2052,2030,2050,2070,2029,2038,2026,2022
2046,2036,2052,2070,2028,2040,2031,2031
2043,2050,2064,2078,2038,2049,2054,2032
2056,2067,2080,2077,2054,2053,2065,2039
2066,2079,2080,2076,2070,2053,2056,2036
2059,2078,2076,2068,2092,2051,2052,2038
2057,2065,2065,2068,2123,2055,2048,2036
2057,2056,2051,2065,2128,2057,2043,2055
2058,2047,2040,2051,2095,2047,2059,2065
2061,2048,2045,2053,2067,2042,2055,2067
2061,2054,2047,2064,2073,2045,2056,2073
2050,2053,2043,2055,2073,2052,2047,2068
2053,2048,2043,2038,2072,2066,2052,2073
2053,2045,2040,2042,2075,2072,2055,2068
2043,2037,2030,2041,2071,2066,2054,2069
2040,2032,2026,2037,2066,2057,2056,2075
2042,2024,2016,2032,2039,2048,2043,2072
2043,2027,2014,2032,2015,2034,2046,2079
2053,2045,2033,2048,2000,2030,2037,2076
2053,2050,2034,2043,1997,2036,2034,2064
2046,2047,2019,2036,2009,2037,2040,2063
2036,2045,2014,2045,2051,2026,2062,2062
2050,2049,2012,2060,2092,2049,2049,2068
2062,2037,2005,2060,2116,2076,2066,2061
2048,2028,1998,2052,2123,2091,2058,2050
2036,2020,1990,2049,2117,2089,2050,2034
2055,2029,2001,2056,2103,2087,2055,2041
2065,2041,2021,2065,2098,2085,2061,2042
2068,2052,2032,2067,2078,2087,2045,2040
2063,2048,2037,2064,2051,2068,2057,2030
2064,2043,2029,2058,2004,2037,2049,2027
2051,2043,2048,2048,2004,2020,2040,2023
2049,2041,2049,2059,2068,2036,2038,2024
2048,2044,2068,2078,2109,2048,2058,2031
2059,2054,2080,2090,2103,2050,2052,2028
2058,2052,2077,2092,2069,2045,2050,2042
2058,2051,2067,2086,2055,2047,2045,2041
2064,2052,2063,2082,2062,2052,2045,2041
2060,2062,2065,2088,2074,2041,2055,2050
2062,2056,2052,2078,2056,2036,2044,2053
2056,2044,2042,2065,2044,2038,2058,2057
2060,2041,2038,2064,2049,2041,2062,2067
2056,2033,2039,2063,2044,2036,2049,2062
2045,2030,2034,2056,2029,2033,2039,2063
2036,2025,2024,2040,2004,2017,2047,2075
2032,2038,2035,2034,1968,2003,2038,2064
2031,2034,2039,2033,1959,2008,2034,2066
2033,2033,2053,2047,2008,2033,2035,2076
2036,2029,2057,2066,2042,2050,2056,2080
2040,2035,2062,2076,2084,2072,2065,2087
2047,2051,2070,2083,2101,2095,2072,2088
2058,2060,2080,2077,2074,2080,2067,2085
2053,2058,2089,2062,2057,2058,2052,2072
2056,2055,2081,2065,2077,2063,2065,2061
2062,2060,2075,2065,2083,2057,2046,2055
2056,2058,2066,2055,2081,2040,2030,2044
2053,2056,2062,2058,2054,2021,2013,2035
2046,2051,2067,2055,2047,2016,2001,2036
2051,2051,2065,2063,2071,2029,2031,2043
2056,2051,2062,2061,2060,2038,2027,2046
2056,2058,2054,2058,2060,2040,2032,2046
2062,2056,2059,2055,2052,2040,2024,2048
2061,2057,2053,2054,2052,2041,2051,2040
2060,2051,2058,2059,2063,2043,2045,2031
2059,2040,2045,2062,2067,2048,2037,2030
2046,2035,2040,2062,2072,2055,2032,2031
2052,2037,2042,2068,2055,2068,2044,2037
2058,2038,2040,2063,2052,2073,2052,2034
2044,2025,2029,2060,2078,2078,2051,2030
2046,2027,2032,2060,2109,2084,2061,2035
2044,2036,2032,2046,2098,2087,2077,2034
2040,2027,2022,2036,2097,2086,2064,2045
2043,2024,2016,2032,2117,2096,2062,2058
2045,2030,2010,2035,2119,2096,2051,2073
2056,2036,2021,2039,2118,2057,2064,2077
2056,2036,2026,2047,2105,2030,2053,2075
2043,2025,2010,2050,2045,2025,2048,2084
2038,2022,2008,2034,1960,2023,2053,2075
2040,2018,2009,2028,1986,2036,2037,2078
2049,2028,2022,2045,2024,2041,2036,2084
2043,2025,2016,2042,2017,2043,2033,2075
2041,2022,2013,2044,2017,2045,2040,2078
2037,2029,2024,2057,2053,2037,2029,2075
2037,2029,2027,2060,2066,2049,2022,2073
2040,2039,2028,2075,2080,2049,2045,2071
2036,2043,2046,2084,2087,2071,2040,2068
2054,2062,2065,2085,2101,2095,2069,2066
2057,2066,2063,2075,2076,2108,2049,2056
2060,2058,2059,2055,2022,2093,2044,2051
2058,2051,2052,2034,1989,2068,2047,2049
2060,2056,2057,2050,2024,2021,2063,2061
2065,2064,2060,2052,2021,1996,2055,2060
2067,2062,2050,2041,2009,2001,2050,2056
2062,2056,2034,2034,1973,2024,2062,2046
2060,2052,2024,2020,1849,2033,2052,2037
2056,2048,2026,2024,1878,2025,2049,2030
2049,2046,2037,2039,1971,2022,2052,2041
2061,2055,2063,2061,2042,2030,2037,2043
2064,2055,2054,2050,2056,2040,2044,2036
2066,2063,2052,2036,2021,2043,2059,2043
2070,2068,2063,2048,1994,2025,2058,2048
2067,2066,2070,2054,2036,2033,2053,2047
2062,2064,2066,2073,2098,2073,2067,2048
2064,2067,2064,2077,2107,2090,2071,2046
2066,2060,2057,2067,2084,2075,2058,2048
2067,2058,2061,2051,2047,2034,2050,2044
2058,2066,2068,2060,2109,2037,2051,2045
2059,2063,2071,2067,2170,2056,2062,2058
2042,2057,2070,2062,2188,2052,2059,2058
2044,2056,2064,2039,2100,2030,2041,2064
2050,2047,2051,2003,1956,2033,2037,2069
2049,2039,2058,1983,1960,2036,2036,2067
2048,2047,2066,1992,2021,2042,2040,2069
2042,2050,2065,2004,2031,2035,2052,2073
2046,2049,2056,2028,2035,2011,2042,2089
2058,2058,2061,2065,2057,2003,2065,2093
2063,2052,2051,2063,2073,2022,2047,2082
2056,2046,2053,2061,2085,2045,2055,2075
2064,2060,2065,2092,2136,2060,2053,2073
2068,2069,2073,2093,2144,2064,2042,2067
2062,2055,2064,2069,2109,2055,2049,2056
2050,2049,2057,2045,2045,2040,2042,2052
2044,2042,2045,2027,1966,2022,2036,2048
2052,2043,2035,2003,1894,2002,2043,2039
2039,2031,2026,2001,1959,2027,2054,2033
2043,2036,2036,2041,2074,2069,2049,2038
2052,2041,2044,2061,2096,2088,2051,2030
2052,2053,2051,2063,2091,2088,2057,2018
2048,2047,2045,2050,2083,2079,2063,2024
2052,2038,2040,2042,2092,2077,2054,2024
2045,2027,2030,2039,2084,2061,2056,2027
2047,2022,2025,2046,2086,2062,2051,2040
2057,2029,2038,2049,2088,2058,2049,2042
2060,2035,2041,2048,2077,2039,2044,2042
2065,2041,2043,2048,2061,2030,2065,2039
2061,2049,2057,2058,2054,2036,2058,2034
2053,2048,2059,2064,2056,2048,2044,2033
2043,2044,2052,2064,2030,2051,2044,2036
2040,2046,2044,2062,2008,2051,2062,2034
2052,2052,2045,2066,2020,2057,2072,2045
2059,2047,2040,2071,2036,2043,2072,2068
2056,2052,2066,2097,2039,2030,2053,2082
2065,2055,2081,2111,2041,2025,2056,2077
2066,2054,2084,2113,2048,2040,2060,2082
2061,2047,2074,2109,2046,2059,2060,2076
2063,2041,2063,2104,2057,2067,2059,2071
2061,2031,2042,2091,2036,2046,2041,2057
2052,2022,2028,2082,2026,2029,2032,2054
2048,2030,2020,2075,2024,2024,2038,2046
2034,2032,2017,2062,2025,2022,2027,2062
2037,2035,2018,2050,2005,2022,2033,2077
2041,2044,2015,2038,2006,2024,2040,2075
2051,2052,2022,2030,2005,2023,2033,2055
2048,2058,2029,2016,2002,2029,2040,2037
2056,2070,2038,2007,2002,2033,2043,2033
2056,2072,2049,2008,2019,2040,2042,2035
2053,2062,2041,1995,2018,2042,2021,2035
2045,2056,2033,1982,2028,2047,2034,2041
2041,2056,2028,1986,2024,2057,2042,2052
2057,2056,2030,1986,2028,2052,2057,2048
2057,2060,2042,2016,2051,2056,2042,2032
2056,2064,2059,2043,2074,2053,2039,2039
2052,2062,2063,2046,2073,2038,2029,2037
2050,2061,2054,2041,2055,2032,2039,2038
2053,2059,2061,2047,2057,2039,2059,2043
2046,2056,2054,2046,2061,2051,2055,2033
2037,2042,2057,2041,2053,2056,2053,2022
2032,2053,2066,2047,2062,2069,2049,2030
2054,2058,2060,2046,2062,2068,2050,2048
2058,2060,2067,2049,2064,2065,2045,2056
2059,2060,2054,2046,2059,2065,2042,2052
2064,2059,2052,2040,2060,2072,2062,2056
2062,2053,2044,2039,2061,2065,2063,2067
2060,2048,2038,2039,2054,2046,2058,2082
2056,2053,2033,2031,2036,2034,2031,2086
2058,2051,2034,2030,2038,2030,2042,2089
2055,2053,2041,2040,2035,2039,2038,2077
2056,2059,2055,2045,2030,2036,2055,2078
2059,2050,2041,2034,2015,2027,2048,2082
2049,2040,2021,2027,2010,2025,2049,2082
2050,2042,2029,2030,2008,2039,2051,2078
2048,2049,2028,2036,2026,2056,2042,2078
2050,2050,2036,2046,2035,2066,2037,2069
2058,2061,2040,2052,2037,2066,2041,2058
2052,2061,2040,2047,2030,2066,2064,2056
2056,2059,2034,2042,2037,2063,2050,2054
2060,2051,2033,2041,2012,2050,2054,2047
2054,2046,2036,2032,1993,2036,2047,2035
2055,2040,2031,2028,2020,2041,2047,2022
2051,2034,2028,2020,1992,2041,2042,2020
2037,2028,2013,2009,1951,2032,2001,2008
2030,2018,2013,2009,1967,2052,2025,2015
2033,2035,2032,2028,2025,2041,2047,2032
2042,2043,2041,2055,2111,2044,2057,2042
2050,2039,2035,2050,2119,2063,2074,2050
2060,2054,2043,2069,2107,2080,2067,2057
2071,2075,2059,2062,1975,2058,2054,2050
2062,2077,2056,2052,1890,2024,2036,2040
2057,2066,2058,2065,1952,2037,2041,2032
2057,2061,2068,2083,2047,2055,2038,2036
2060,2069,2075,2092,2106,2062,2054,2045
2062,2065,2078,2085,2080,2064,2077,2045
2048,2059,2071,2084,2069,2050,2060,2052
2044,2050,2075,2092,2118,2075,2080,2059
2050,2054,2080,2102,2125,2087,2072,2072
2059,2061,2079,2094,2100,2076,2075,2080
2062,2050,2079,2087,2086,2063,2060,2081
2048,2048,2073,2069,2067,2054,2070,2075
2038,2038,2058,2069,2083,2070,2057,2081
2044,2048,2056,2073,2086,2090,2062,2085
2049,2039,2053,2073,2106,2089,2059,2076
2048,2032,2046,2078,2108,2092,2053,2078
2047,2042,2047,2076,2056,2113,2043,2074
2052,2041,2038,2064,2049,2141,2051,2070
2048,2034,2020,2044,2041,2122,2047,2052
2044,2033,2024,2047,1994,2088,2042,2048
2047,2047,2036,2065,1972,2032,2043,2052
2052,2051,2045,2072,2014,1969,2036,2050
2052,2059,2055,2085,2082,1990,2045,2038
2053,2047,2044,2051,2081,1996,2041,2038
2053,2047,2034,2012,2029,1975,2040,2036
2055,2046,2032,1999,1961,1991,2036,2037
2066,2055,2040,2024,2006,2026,2053,2029
2067,2058,2049,2036,2052,2036,2047,2029
2058,2060,2049,2046,2086,2037,2053,2027
2053,2064,2056,2045,2064,2044,2058,2025
2047,2057,2054,2032,2027,2045,2048,2024
2045,2038,2042,2013,1995,2038,2029,2012
2046,2045,2054,2018,1992,2021,2047,2025
2055,2045,2065,2034,2003,2001,2058,2050
2075,2064,2070,2053,2068,2016,2061,2055
2072,2065,2062,2039,2069,2030,2066,2047
2066,2055,2056,2021,2033,2032,2051,2050
2059,2049,2049,2026,2034,2038,2063,2045
2058,2054,2061,2040,2069,2061,2075,2047
2048,2061,2070,2055,2107,2091,2061,2055
2052,2056,2076,2056,2133,2100,2070,2057
2052,2060,2074,2056,2128,2099,2073,2065
2050,2060,2069,2056,2109,2090,2068,2067
2045,2057,2057,2050,2085,2041,2054,2067
2043,2045,2055,2058,2089,1977,2043,2079
2046,2047,2057,2067,2105,2000,2053,2077
2049,2046,2058,2067,2098,2038,2044,2076
2050,2045,2057,2072,2084,2053,2027,2074
2063,2049,2050,2061,2004,2046,2042,2079
2057,2044,2049,2047,1952,2035,2040,2068
2053,2054,2056,2044,2000,2035,2038,2069
2061,2065,2067,2045,2017,2055,2042,2056
2058,2057,2061,2030,1991,2048,2023,2044
2046,2045,2051,2009,1972,2015,2009,2039
2041,2037,2050,2010,1975,2012,2029,2032
2050,2054,2057,2017,1938,2015,2043,2038
2055,2056,2058,2032,1942,1987,2040,2049
2065,2066,2072,2058,1975,1988,2069,2056
2074,2068,2068,2063,2067,2019,2071,2051
2066,2056,2053,2067,2054,2040,2043,2046
2047,2043,2041,2066,2027,2050,2042,2026
2034,2030,2030,2054,1921,2015,2021,2021
2032,2045,2036,2048,1841,2002,2030,2019
2033,2049,2031,2058,1948,2027,2041,2012
2032,2035,2026,2054,2055,2046,2035,2006
2040,2036,2022,2036,2054,2049,2043,2012
2045,2035,2016,2041,2076,2064,2057,2016
2040,2032,2012,2040,2066,2073,2054,2022
2043,2032,2013,2048,2083,2074,2067,2024
2044,2038,2019,2048,2096,2074,2049,2027
2038,2039,2015,2048,2097,2079,2064,2040
2045,2028,2006,2048,2073,2070,2054,2039
2043,2021,2010,2039,2042,2058,2029,2040
2034,2020,2019,2034,2032,2050,2048,2041
2032,2038,2031,2033,2013,2037,2046,2051
2027,2034,2027,2020,2027,2034,2046,2046
2017,2029,2026,2030,2058,2044,2044,2062
2029,2038,2048,2060,2072,2052,2068,2072
2038,2047,2055,2064,2072,2048,2053,2071
2037,2043,2060,2061,2064,2053,2040,2070
2040,2047,2063,2062,2048,2054,2030,2074
2055,2057,2068,2060,2043,2050,2036,2073
2045,2054,2061,2053,2031,2049,2048,2073
2048,2057,2056,2056,2032,2052,2043,2069
2043,2055,2055,2060,2033,2054,2050,2064
2055,2060,2058,2060,2038,2056,2063,2060
2057,2049,2050,2060,2048,2060,2038,2048
2051,2035,2040,2058,2067,2059,2039,2034
2049,2028,2048,2061,2079,2054,2050,2032
2043,2028,2048,2059,2091,2046,2041,2026
2042,2030,2055,2063,2068,2049,2025,2027
2052,2042,2064,2077,2059,2055,2058,2024
2056,2049,2072,2074,2057,2047,2061,2029
2053,2050,2067,2065,2047,2029,2021,2030
2049,2040,2060,2060,2030,2009,2043,2026
2043,2033,2059,2065,2041,2010,2035,2028
2056,2054,2070,2081,2055,2032,2058,2036
2065,2067,2073,2084,2046,2032,2039,2039
2058,2057,2065,2078,2045,2040,2049,2038
2058,2050,2056,2078,2045,2038,2049,2052
2060,2037,2040,2072,2048,2032,2052,2055
2051,2027,2026,2052,2010,2007,2035,2049
2042,2015,2014,2028,1961,2000,2026,2040
2031,2028,2020,2017,1974,2020,2019,2023
2020,2031,2021,2020,2016,2054,2041,2020
2017,2035,2032,2031,2054,2111,2064,2028
2041,2061,2051,2045,2085,2131,2070,2080
2080,2085,2064,2081,2150,2113,2074,2107
2088,2089,2067,2089,2151,2095,2068,2110
2081,2082,2062,2078,2099,2044,2043,2107
2073,2080,2064,2081,2086,2020,2040,2090
2060,2064,2047,2072,2073,2035,2062,2077
2054,2036,2041,2046,2030,2050,2060,2079
2051,2041,2039,2028,1920,2029,2047,2072
2052,2046,2039,2009,1865,2037,2052,2065
2056,2049,2051,2031,1969,2058,2058,2060
2072,2063,2068,2054,2045,2074,2079,2063
2075,2058,2061,2057,2064,2082,2083,2064
2071,2052,2053,2048,2081,2065,2080,2057
2067,2051,2047,2033,2061,2039,2074,2046
2059,2051,2040,2027,2029,2027,2060,2054
2056,2052,2046,2045,2030,2035,2051,2035
2043,2047,2053,2060,2034,2047,2069,2029
2045,2046,2058,2055,2036,2058,2077,2028
2043,2041,2051,2055,2055,2069,2069,2027
2034,2040,2043,2053,2046,2068,2062,2027
2044,2044,2043,2046,2028,2062,2054,2022
2038,2032,2031,2040,2025,2061,2052,2028
2037,2041,2037,2050,2024,2053,2041,2030
2057,2061,2059,2063,2053,2034,2036,2039
2068,2060,2060,2077,2099,2046,2052,2048
2070,2059,2051,2079,2128,2057,2067,2045
2068,2057,2050,2070,2103,2069,2067,2047
2067,2050,2045,2058,2050,2057,2060,2041
2054,2052,2047,2053,2022,2047,2061,2042
2044,2045,2054,2047,2040,2039,2065,2040
2042,2045,2047,2055,2043,2037,2048,2059
2049,2047,2055,2053,2041,2031,2050,2074
2045,2046,2049,2056,2027,2028,2044,2070
2044,2040,2055,2060,2010,2028,2036,2065
2045,2038,2063,2054,1970,2050,2050,2062
2037,2038,2067,2047,1959,2086,2059,2067
2044,2046,2070,2050,1966,2110,2039,2071
2041,2033,2053,2033,1954,2106,2052,2056
2024,2028,2047,2020,1957,2088,2036,2065
2044,2056,2083,2065,2025,2056,2050,2088
2064,2073,2093,2094,2074,2043,2068,2098
2074,2076,2090,2093,2093,2058,2076,2101
2074,2062,2069,2072,2087,2058,2055,2089
2079,2057,2050,2043,2022,2038,2051,2070
2060,2044,2029,2018,2006,2038,2060,2049
2051,2039,2022,2024,2060,2051,2052,2043
2053,2034,2025,2023,2062,2031,2054,2031
2044,2032,2023,2024,2042,2002,2045,2031
2035,2040,2042,2065,2096,2036,2057,2048
2054,2060,2047,2092,2141,2066,2087,2053
2060,2055,2044,2078,2137,2078,2074,2045
2054,2050,2035,2048,2098,2069,2082,2041
2059,2042,2021,2013,1991,2046,2066,2035
2053,2029,2006,2014,1964,2027,2047,2020
2049,2036,2026,2050,2041,2046,2051,2017
2046,2041,2041,2064,2096,2032,2040,2014
2042,2044,2034,2057,2143,2031,2032,2021
2041,2046,2046,2064,2163,2050,2045,2027
2047,2057,2054,2068,2114,2057,2056,2030
2049,2060,2053,2049,1960,2032,2049,2029
2052,2061,2048,2046,1948,2041,2054,2038
2057,2065,2068,2072,2051,2062,2066,2056
2067,2065,2073,2087,2108,2080,2073,2064
2062,2066,2065,2089,2138,2091,2084,2065
2056,2065,2067,2078,2159,2091,2076,2067
2049,2055,2055,2066,2166,2085,2088,2075
2054,2047,2061,2055,2130,2078,2077,2082
2050,2059,2065,2048,2066,2050,2063,2080
2052,2058,2077,2046,2019,2037,2066,2085
2045,2055,2069,2030,1986,2016,2036,2074
2040,2035,2054,2016,1954,2011,2053,2077
2036,2034,2044,2022,1968,2027,2065,2071
2038,2039,2044,2017,1883,2031,2068,2061
2044,2043,2043,2022,1880,2032,2067,2063
2048,2044,2048,2045,1957,2043,2077,2056
2056,2052,2052,2045,1968,2039,2054,2057
2048,2048,2048,2047,2003,2031,2056,2045
2056,2050,2053,2062,2036,2047,2063,2048
2052,2053,2053,2080,2072,2058,2062,2033
2040,2046,2049,2083,2089,2074,2055,2029
2032,2038,2035,2075,2095,2091,2066,2026
2029,2033,2033,2071,2120,2098,2063,2037
2038,2034,2023,2053,2080,2055,2045,2025
2032,2032,2019,2034,2020,2002,2029,2013
2041,2044,2037,2023,1936,1924,2014,2013
2040,2048,2041,1998,1845,1886,2020,1999
2029,2041,2034,1985,1851,1908,2005,1995
2027,2022,2025,1996,1939,1968,2033,2003
2042,2033,2040,2043,2010,2024,2056,2025
2062,2055,2065,2070,2082,2073,2076,2033
2067,2065,2069,2080,2115,2114,2055,2030
2070,2071,2066,2077,2096,2116,2053,2032
2063,2069,2060,2065,2028,2073,2063,2037
2052,2073,2060,2053,1969,2046,2049,2028
2045,2071,2061,2040,1962,2034,2033,2030
2041,2056,2050,2026,1976,2040,2031,2031
2054,2062,2050,2042,2022,2050,2045,2036
2054,2058,2053,2048,2115,2074,2063,2048
2051,2053,2055,2062,2152,2081,2067,2053
2040,2040,2049,2068,2131,2084,2048,2050
2043,2044,2050,2076,2118,2082,2046,2050
2039,2055,2055,2063,2103,2068,2052,2062
2046,2048,2056,2055,2094,2061,2027,2058
2044,2042,2045,2048,2071,2049,2036,2064
2042,2044,2046,2046,2054,2047,2044,2067
2048,2047,2059,2055,2059,2057,2061,2077
2057,2069,2063,2050,2045,2048,2055,2070
2054,2058,2047,2032,2041,2052,2035,2065
2057,2064,2057,2052,2077,2064,2046,2066
2065,2064,2063,2080,2094,2082,2056,2067
2062,2064,2068,2074,2055,2071,2054,2061
2060,2068,2060,2052,2012,2057,2052,2054
2054,2055,2052,2034,2009,2037,2058,2045
2053,2051,2044,2036,2037,2032,2053,2042
2054,2050,2051,2052,2064,2045,2057,2051
2056,2050,2054,2059,2061,2058,2050,2051
2060,2055,2052,2064,2045,2061,2037,2039
2050,2046,2041,2050,2022,2060,2045,2026
2047,2045,2034,2046,2029,2062,2045,2025
2052,2047,2042,2042,2032,2063,2041,2026
2055,2038,2036,2031,2029,2053,2033,2028
2045,2030,2029,2036,2028,2043,2014,2021
2046,2035,2034,2040,2044,2051,2026,2020
2053,2050,2046,2049,2037,2048,2042,2032
2063,2055,2038,2054,2042,2041,2048,2038
2058,2051,2035,2042,2037,2032,2045,2037
2043,2034,2021,2033,2036,2020,2029,2027
2037,2038,2023,2035,2045,2026,2033,2024
2048,2043,2032,2035,2044,2029,2034,2034
2052,2046,2028,2043,2050,2045,2046,2041
2050,2041,2028,2039,2047,2043,2044,2048
2051,2045,2026,2042,2043,2040,2028,2049
2050,2042,2030,2042,2044,2044,2038,2053
2051,2046,2038,2048,2047,2051,2042,2062
2051,2045,2042,2049,2047,2050,2038,2077
2054,2044,2033,2043,2047,2049,2038,2081
2050,2041,2025,2041,2042,2039,2019,2076
2049,2026,2016,2031,2030,2026,2039,2074
2041,2019,2012,2022,2028,2021,2024,2079
2056,2031,2020,2031,2035,2031,2017,2071
2048,2032,2033,2032,2037,2038,2005,2051
2039,2037,2037,2046,2076,2060,2007,2060
2052,2045,2039,2060,2090,2071,2047,2064
2052,2053,2040,2065,2068,2084,2055,2065
2054,2058,2040,2061,2049,2080,2062,2059
2059,2056,2044,2063,2044,2074,2058,2058
2060,2061,2047,2056,2039,2057,2031,2048
2061,2057,2041,2050,2052,2039,2044,2044
2056,2057,2043,2039,1992,1984,2021,2034
2055,2060,2048,2018,1881,1938,2029,2026
2053,2060,2052,2031,1879,1958,2024,2021
2056,2058,2054,2049,1959,1981,2024,2020
2048,2046,2044,2030,2019,1988,1998,2009
2043,2042,2042,2021,2058,2011,2017,2012
2044,2035,2052,2044,2118,2052,2037,2020
2054,2039,2061,2054,2131,2068,2045,2023
2058,2055,2073,2057,2119,2073,2043,2018
2048,2060,2074,2055,2102,2082,2023,2025
2050,2059,2084,2048,2080,2092,2057,2032
2056,2068,2089,2047,2062,2097,2071,2047
2063,2070,2089,2050,2058,2100,2074,2053
2062,2061,2080,2052,2056,2102,2077,2053
2060,2055,2068,2047,2055,2093,2053,2061
2053,2062,2064,2048,2061,2065,2049,2061
2053,2055,2062,2043,2052,2021,2057,2064
2052,2052,2060,2039,2052,2015,2048,2066
2052,2055,2063,2038,2061,2030,2058,2074
2057,2057,2057,2032,2050,2049,2063,2086
2059,2053,2055,2040,2057,2056,2062,2078
2051,2051,2058,2058,2095,2062,2043,2076
2046,2051,2054,2049,2074,2065,2028,2058
2032,2038,2050,2049,2052,2068,2034,2063
2039,2042,2051,2042,2049,2086,2054,2072
2049,2050,2063,2052,2050,2049,2038,2073
2050,2055,2069,2054,2050,2011,2019,2071
2046,2051,2064,2053,2039,1999,1996,2066
2052,2055,2064,2049,2040,2012,2037,2053
2053,2057,2061,2054,2042,2033,2027,2049
2056,2055,2053,2047,2052,2048,2020,2038
2053,2049,2058,2046,2057,2053,2011,2033
2045,2046,2054,2049,2052,2056,2057,2041
2039,2042,2047,2046,2053,2040,2033,2039
2046,2044,2051,2044,2045,2034,2042,2037
2045,2041,2050,2045,2040,2030,2063,2040
2050,2053,2056,2048,2045,2028,2032,2036
2046,2048,2047,2041,2040,2037,2029,2023
2039,2048,2050,2046,2046,2045,2020,2025
2035,2047,2038,2042,2052,2036,2031,2019
2037,2042,2042,2046,2049,2042,2033,2024
2043,2043,2049,2046,2057,2059,2051,2025
2045,2046,2042,2044,2060,2072,2055,2014
2041,2040,2044,2038,2067,2075,2063,2009
2038,2043,2044,2048,2073,2077,2055,2020
2039,2045,2041,2052,2067,2073,2048,2035
2046,2047,2042,2052,2077,2069,2049,2036
2049,2041,2042,2047,2076,2061,2060,2044
2052,2035,2040,2049,2074,2048,2045,2051
2044,2036,2033,2042,2064,2031,2033,2054
2042,2031,2031,2048,2060,2010,2036,2055
2041,2034,2036,2046,2047,2002,2050,2060
2033,2036,2039,2043,2052,2005,2045,2057
2030,2025,2042,2041,2037,2005,2054,2061
2031,2030,2035,2045,2043,2022,2053,2064
2033,2034,2037,2045,2048,2029,2059,2068
2027,2018,2031,2037,2048,2024,2048,2068
2025,2017,2026,2039,2039,2027,2054,2064
2032,2027,2036,2042,2039,2034,2037,2060
2032,2029,2039,2043,2037,2035,2028,2061
2032,2032,2039,2044,2033,2034,2044,2059
2038,2034,2046,2047,2026,2044,2062,2057
2043,2043,2045,2046,2037,2050,2071,2044
2044,2041,2048,2042,2026,2048,2056,2037
2044,2045,2040,2043,2027,2047,2038,2036
2036,2037,2043,2040,2028,2043,2053,2022
2047,2043,2045,2044,2034,2047,2044,2026
2046,2041,2050,2044,2041,2054,2055,2026
2049,2041,2048,2042,2047,2068,2057,2029
2048,2047,2053,2047,2038,2093,2065,2025
2043,2043,2051,2046,2034,2093,2064,2020
2047,2036,2047,2049,2032,2093,2064,2019
2043,2035,2041,2044,2023,2074,2057,2018
2042,2030,2033,2048,2025,2038,2058,2030
2045,2035,2037,2055,2058,2033,2060,2034
2052,2044,2042,2061,2054,2036,2053,2025
2052,2042,2038,2054,2052,2048,2031,2021
2050,2043,2038,2054,2052,2060,2036,2020
2042,2043,2040,2055,2050,2059,2031,2025
2045,2045,2039,2049,2044,2040,2011,2029
2041,2047,2034,2051,2040,2011,2042,2037
2045,2051,2040,2052,2042,1995,2055,2047
2047,2044,2040,2045,2043,2011,2053,2054
2045,2043,2035,2037,2040,2031,2050,2063
2054,2043,2027,2036,2037,2043,2058,2063
2056,2042,2036,2031,2047,2057,2072,2073
2059,2044,2041,2026,2053,2065,2058,2076
2047,2038,2038,2021,2033,2056,2052,2077
2044,2046,2062,2028,2018,2061,2056,2071
2049,2062,2082,2033,2008,2057,2044,2072
2039,2064,2074,2035,1998,2046,2034,2071
2044,2064,2068,2026,1993,2027,2029,2075
2049,2063,2060,2032,2015,1995,2034,2080
2054,2060,2061,2041,2058,2002,2044,2078
2058,2062,2056,2048,2093,2033,2044,2069
2054,2061,2053,2055,2109,2057,2055,2060
2047,2059,2046,2048,2091,2066,2060,2051
2049,2048,2045,2043,2072,2057,2071,2046
2047,2039,2036,2043,2066,2050,2058,2041
2047,2041,2038,2044,2053,2043,2060,2044
2053,2052,2046,2047,2052,2034,2058,2042
2049,2054,2047,2042,2053,2036,2046,2046
2051,2048,2041,2037,2045,2035,2041,2037
2053,2050,2040,2036,2056,2044,2058,2032
2046,2048,2040,2042,2056,2054,2060,2031
2039,2043,2041,2036,2063,2071,2053,2036
2040,2032,2032,2030,2057,2068,2068,2042
2041,2025,2032,2033,2058,2065,2077,2045
2048,2043,2046,2037,2052,2052,2079,2039
2045,2043,2045,2040,2045,2029,2065,2030
2046,2043,2051,2042,2039,2025,2021,2023
2039,2039,2055,2042,2043,2023,2019,2018
2032,2049,2062,2047,2057,2021,2051,2037
2041,2053,2068,2057,2063,2038,2053,2047
2052,2053,2072,2050,2050,2040,2060,2050
2049,2058,2076,2053,2051,2028,2056,2049
2054,2056,2081,2049,2037,2028,2031,2058
2052,2059,2081,2045,2022,2031,2025,2057
2051,2057,2080,2040,2013,2036,2018,2055
2049,2056,2075,2043,2020,2054,2029,2058
2045,2056,2068,2041,2020,2040,2051,2053
2046,2053,2063,2042,2048,2040,2054,2066
2044,2055,2067,2049,2068,2056,2036,2061
2041,2043,2053,2046,2061,2046,2030,2056
2041,2045,2052,2045,2071,2047,2036,2063
2046,2051,2056,2044,2055,2045,2035,2066
2042,2049,2057,2047,2057,2035,2031,2054
2042,2050,2058,2040,2044,2037,2041,2056
2043,2057,2061,2042,2040,2036,2031,2056
2047,2056,2058,2039,2042,2042,2043,2058
2050,2056,2059,2043,2046,2047,2048,2052
2049,2059,2057,2043,2052,2046,2044,2045
2044,2061,2059,2043,2050,2046,2043,2039
2050,2054,2057,2042,2053,2052,2048,2036
2051,2050,2059,2039,2052,2050,2030,2031
2042,2048,2054,2041,2040,2049,2047,2031
2054,2051,2052,2039,2037,2038,2050,2031
2056,2055,2050,2040,2035,2036,2043,2036
2049,2050,2056,2038,2038,2036,2045,2032
2042,2047,2044,2033,2039,2039,2040,2032
2043,2035,2044,2033,2036,2044,2038,2025
2039,2036,2049,2032,2050,2057,2051,2026
2048,2047,2048,2033,2049,2074,2065,2028
2049,2045,2048,2035,2049,2087,2077,2036
2046,2046,2045,2034,2044,2091,2083,2037
2044,2046,2047,2034,2027,2093,2059,2036
2043,2043,2049,2031,2023,2099,2041,2036
2044,2046,2048,2029,2014,2069,2048,2035
2032,2041,2038,2023,2001,2024,2015,2026
2026,2036,2039,2027,2027,2022,2032,2047
2035,2041,2042,2040,2062,2050,2051,2057
2034,2039,2044,2042,2080,2080,2038,2062
2036,2042,2047,2049,2097,2127,2022,2054
2038,2038,2045,2053,2104,2165,2043,2055
2036,2040,2043,2045,2090,2167,2044,2058
2030,2035,2034,2039,2069,2120,2043,2058
2027,2025,2028,2027,2054,2019,2016,2054
2021,2025,2024,2027,2038,1931,2000,2054
2028,2036,2030,2030,2031,1932,2016,2054
2040,2043,2033,2033,2016,1968,2011,2051
2046,2049,2041,2036,2031,1993,2028,2054
2042,2058,2045,2044,2035,2008,2026,2049
2044,2059,2054,2040,2048,2010,2014,2046
2040,2059,2050,2038,2039,2009,2009,2034
2044,2060,2053,2042,2037,2015,2006,2030
2040,2055,2049,2043,2044,2025,2001,2033
2043,2057,2043,2040,2045,2044,2030,2034
2042,2058,2044,2038,2054,2052,2016,2032
2048,2057,2035,2036,2053,2052,2034,2017
2045,2049,2042,2039,2056,2057,2030,2017
2045,2054,2045,2041,2050,2056,2048,2016
2046,2053,2043,2041,2052,2052,2042,2013
2042,2050,2045,2041,2043,2031,2034,2010
2032,2041,2038,2036,2043,2023,2013,2017
2035,2049,2047,2036,2043,2020,2027,2030
2060,2061,2052,2041,2054,2023,2042,2040
2058,2062,2048,2044,2049,2021,2048,2042
2055,2062,2051,2051,2046,2023,2048,2044
2057,2068,2061,2054,2052,2040,2068,2044
2059,2070,2062,2055,2052,2044,2062,2051
2062,2068,2068,2049,2055,2043,2055,2054
2056,2066,2061,2047,2050,2040,2050,2047
2063,2066,2064,2047,2054,2044,2052,2057
2065,2068,2066,2054,2060,2063,2041,2064
2061,2069,2068,2053,2059,2071,2071,2065
2062,2072,2065,2052,2045,2078,2037,2069
2068,2064,2057,2046,2030,2079,2046,2068
2061,2064,2064,2051,2037,2075,2056,2071
2060,2070,2070,2057,2066,2093,2054,2083
2061,2064,2061,2054,2045,2102,2059,2074
2049,2052,2054,2047,2046,2094,2043,2066
2047,2046,2051,2049,2025,2085,2036,2061
2040,2053,2054,2044,2019,2069,2041,2058
2041,2046,2044,2036,2027,2044,1999,2047
2038,2035,2045,2028,2006,2028,2016,2040
2033,2034,2038,2008,1982,2017,1985,2035
2033,2038,2042,2013,2037,2050,2013,2038
2056,2052,2055,2044,2072,2073,2006,2040
2061,2059,2061,2049,2076,2106,2029,2049
2067,2059,2057,2043,2076,2107,2047,2055
2062,2057,2054,2046,2073,2087,2035,2049
2054,2052,2044,2040,2050,2053,2047,2041
2048,2051,2046,2040,2051,2030,2033,2034
2050,2049,2047,2042,2068,2044,2037,2024
2047,2044,2048,2042,2072,2071,2052,2024
2053,2051,2048,2042,2056,2086,2062,2027
2052,2041,2036,2022,2038,2095,2051,2028
2047,2042,2031,2021,2059,2100,2073,2026
2051,2047,2040,2042,2111,2079,2076,2038
2064,2050,2043,2058,2156,2027,2076,2037
2056,2044,2040,2049,2148,2011,2070,2037
2049,2042,2036,2042,2132,2015,2058,2026
2043,2042,2038,2040,2110,2010,2014,2013
2039,2038,2038,2038,2101,1992,2017,2013
2037,2034,2038,2033,2076,1980,2008,2013
2033,2032,2045,2044,2047,1977,1987,2022
2026,2034,2040,2035,1962,1999,2001,2034
2038,2039,2043,2041,1986,2012,2023,2048
2042,2039,2047,2039,2029,2037,2026,2058
2039,2038,2045,2044,2051,2064,2013,2062
2044,2041,2047,2042,2055,2081,2026,2062
2046,2042,2043,2039,2057,2088,2050,2068
2046,2048,2050,2037,2056,2071,2035,2067
2039,2039,2038,2032,2057,2058,2043,2069
2038,2038,2042,2038,2057,2046,2049,2076
2042,2051,2051,2044,2060,2048,2064,2080
2050,2051,2054,2044,2049,2027,2062,2071
2049,2051,2055,2036,2045,2027,2064,2069
2045,2048,2049,2028,2018,2022,2039,2063
2042,2039,2039,2025,1992,2020,2064,2056
2042,2038,2037,2017,1979,2011,2047,2038
2043,2031,2022,2004,1980,1997,2042,2022
2036,2030,2021,2016,1998,1986,2032,2035
2042,2044,2038,2045,2055,2007,2031,2036
2055,2054,2050,2070,2077,2020,2045,2035
2054,2054,2046,2055,2069,2028,2029,2031
2048,2046,2035,2046,2077,2054,2040,2021
2048,2042,2026,2037,2071,2055,2043,2016
2046,2040,2032,2033,2062,2049,2049,2014
2048,2040,2036,2039,2057,2064,2040,2012
2035,2033,2033,2037,2058,2064,2040,2009
2040,2038,2035,2046,2062,2057,2048,2024
2043,2050,2051,2043,2061,2061,2052,2015
2043,2046,2048,2041,2037,2064,2055,2015
2041,2046,2054,2036,2014,2059,2033,2022
2044,2056,2057,2039,2025,2056,2037,2032
2045,2058,2063,2040,2034,2052,2048,2031
2054,2065,2072,2044,2043,2053,2055,2036
2053,2061,2062,2042,2056,2052,2043,2049
2054,2061,2056,2047,2059,2058,2054,2049
2049,2065,2059,2049,2062,2063,2050,2047
2039,2059,2054,2046,2054,2065,2038,2050
2038,2056,2056,2041,2055,2079,2032,2047
2034,2050,2048,2033,2048,2087,2048,2056
2042,2047,2046,2029,2034,2088,2068,2070
2042,2053,2048,2027,2028,2075,2064,2081
2046,2055,2053,2030,2034,2036,2056,2081
2048,2052,2044,2033,2045,2018,2064,2082
2054,2049,2046,2041,2037,2014,2069,2088
2056,2057,2053,2039,2025,2025,2045,2076
2052,2055,2045,2029,2017,2028,2063,2068
2048,2051,2042,2031,2015,2025,2052,2058
2046,2042,2042,2025,2010,2016,2011,2058
2047,2041,2050,2026,2010,2015,2051,2044
2048,2044,2047,2030,2017,2034,2060,2037
2044,2050,2046,2037,2028,2037,2027,2035
2039,2045,2049,2045,2047,2041,2040,2018
2045,2046,2043,2047,2053,2035,2026,2017
2044,2044,2045,2055,2076,2035,2021,2014
2045,2053,2049,2053,2085,2025,2016,2010
2036,2046,2042,2050,2093,2014,2005,2017
2045,2043,2041,2047,2074,2020,2016,2025
2044,2040,2038,2047,2067,2043,2046,2017
2042,2038,2039,2046,2068,2081,2057,2012
2037,2039,2028,2047,2072,2110,2068,2014
2036,2040,2031,2044,2067,2122,2067,2025
2036,2048,2039,2041,2071,2120,2065,2024
2048,2055,2047,2045,2074,2110,2065,2018
2049,2051,2050,2047,2074,2060,2051,2014
2042,2050,2041,2037,2073,2027,2056,2018
2041,2051,2043,2035,2068,2033,2052,2024
2041,2043,2036,2034,2059,2035,2041,2027
2035,2044,2041,2030,2059,2031,2067,2035
2041,2046,2051,2028,2055,2030,2068,2044
2052,2048,2046,2032,2058,2032,2078,2048
2045,2046,2048,2032,2056,2029,2074,2056
2044,2054,2047,2030,2055,2039,2071,2055
2050,2057,2053,2035,2052,2052,2053,2071
2051,2056,2055,2039,2051,2073,2057,2071
2045,2054,2049,2035,2050,2080,2030,2068
2047,2040,2042,2035,2041,2092,2035,2068
2042,2038,2035,2026,2047,2126,2038,2071
2044,2041,2049,2029,2047,2145,2033,2068
2049,2044,2046,2040,2052,2120,2049,2066
2052,2050,2042,2040,2045,2036,2038,2059
2050,2053,2043,2035,2051,1984,2008,2055
2053,2053,2045,2039,2050,2017,2027,2061
2053,2056,2047,2038,2059,2050,2052,2053
2059,2061,2046,2038,2053,2055,2064,2040
2058,2057,2044,2034,2037,2045,2043,2033
2058,2057,2042,2033,2033,2038,2017,2025
2055,2050,2042,2034,2027,2035,2032,2022
2053,2043,2038,2034,2018,2033,2031,2008
2043,2038,2032,2030,2016,2026,2022,2004
2045,2041,2028,2030,2005,2034,2021,2004
2041,2039,2036,2032,2003,2043,2007,2003
2036,2043,2033,2032,1992,2043,2016,1998
2036,2041,2033,2028,1992,2047,2014,1996
2035,2037,2033,2038,2017,2050,2037,2007
2046,2054,2042,2050,2068,2032,2055,2023
2047,2055,2044,2053,2075,2024,2059,2030
2044,2051,2037,2049,2072,2032,2068,2046
2052,2050,2042,2051,2074,2042,2075,2052
2058,2054,2039,2049,2058,2051,2078,2056
2058,2052,2043,2041,2031,2034,2063,2057
2056,2044,2040,2046,2018,2018,2067,2051
2055,2038,2038,2033,2031,2007,2054,2055
2050,2043,2031,2029,2046,1993,2045,2047
2038,2029,2031,2022,2048,1992,2045,2049
2034,2026,2030,2023,2049,2005,2032,2053
2039,2033,2034,2021,2041,2012,2043,2053
2038,2027,2029,2018,2031,2024,2039,2060
2037,2028,2022,2017,2036,2039,2051,2061
2035,2026,2029,2024,2035,2045,2054,2058
2030,2028,2026,2022,2044,2052,2057,2064
2027,2025,2017,2015,2039,2064,2066,2066
2038,2042,2020,2014,2026,2068,2034,2051
2036,2046,2015,2000,1984,2061,2035,2042
2042,2039,2011,1992,1924,2058,2022,2035
2036,2038,2016,1992,1886,2014,2018,2029
2033,2040,2032,1991,1898,1981,2014,2027
2038,2042,2035,2005,1954,1992,2019,2035
2045,2045,2041,2026,2027,2005,2046,2036
2057,2045,2034,2042,2108,2046,2055,2037
2057,2044,2031,2053,2157,2088,2062,2034
2051,2037,2022,2055,2158,2115,2072,2031
2044,2041,2027,2048,2125,2107,2057,2026
2048,2046,2026,2038,2088,2086,2058,2018
2048,2045,2021,2036,2059,2070,2048,2018
2045,2045,2016,2025,2039,2058,2045,2006
2031,2030,2004,2008,2038,2060,2026,1997
2027,2023,2005,2021,2068,2075,2028,2005
2045,2031,2019,2039,2091,2084,2042,2021
2055,2047,2024,2037,2083,2065,2042,2020
2058,2048,2032,2032,2077,2052,2033,2036
2057,2049,2039,2024,2079,2047,2023,2038
2051,2049,2057,2026,2084,2058,2056,2037
2054,2054,2067,2012,2077,2060,2051,2040
2041,2052,2064,2005,2071,2060,2065,2041
2036,2045,2045,1991,2054,2044,2062,2039
2037,2041,2034,1984,2035,2037,2058,2053
2041,2045,2037,1998,2039,2043,2074,2063
2051,2062,2054,2016,2048,2063,2079,2072
2058,2064,2065,2024,2053,2059,2068,2065
2050,2068,2068,2026,2059,2057,2068,2067
2056,2068,2061,2026,2066,2060,2063,2075
2056,2064,2052,2024,2058,2047,2067,2072
2046,2045,2043,2010,2045,2031,2030,2071
2039,2036,2036,2013,2044,2023,2047,2070
2046,2048,2047,2017,2046,2026,2063,2068
2055,2055,2060,2023,2054,2025,2058,2073
2055,2061,2059,2026,2049,2022,2057,2075
2058,2062,2058,2022,2044,2006,2042,2060
2050,2067,2060,2021,2034,2008,2031,2053
2054,2059,2058,2019,2036,2021,2028,2046
2051,2059,2052,2017,2031,2034,2014,2040
2051,2054,2057,2024,2041,2065,2029,2037
2059,2058,2056,2025,2040,2100,2060,2036
2052,2058,2055,2032,2040,2109,2043,2038
2054,2053,2055,2026,2037,2091,2060,2033
2055,2056,2053,2024,2039,2075,2047,2029
2052,2053,2057,2029,2028,2068,2054,2027
2051,2053,2051,2032,2032,2062,2051,2024
2053,2055,2048,2033,2034,2062,2035,2015
2038,2043,2041,2025,2041,2057,2043,2021
2046,2039,2039,2031,2037,2046,2021,2026
2050,2056,2053,2035,2048,2045,2042,2027
2051,2057,2052,2035,2051,2050,2042,2024
2046,2055,2044,2024,2056,2067,2053,2026
2048,2049,2041,2028,2053,2066,2062,2037
2044,2044,2038,2028,2052,2045,2041,2035
2049,2048,2046,2031,2052,2038,2055,2032
2054,2046,2048,2031,2049,2039,2049,2036
2048,2053,2050,2043,2045,2045,2052,2040
2045,2043,2049,2047,2046,2045,2052,2047
2045,2049,2049,2043,2041,2051,2055,2048
2043,2045,2044,2042,2038,2047,2059,2052
2041,2044,2033,2037,2029,2042,2042,2051
2042,2036,2024,2031,2027,2040,2045,2054
2038,2032,2017,2023,2012,2037,2043,2058
2033,2031,2006,2013,2007,2035,2034,2046
2020,2013,1995,2005,1981,2039,2052,2053
2025,2019,1998,2012,2030,2051,2044,2056
2038,2038,2019,2028,2064,2066,2067,2061
2041,2039,2025,2038,2068,2073,2049,2056
2047,2048,2030,2036,2065,2068,2065,2053
2042,2043,2028,2035,2032,2063,2049,2039
2043,2048,2028,2024,2022,2054,2053,2033
2051,2045,2029,2022,2041,2051,2055,2032
2038,2039,2025,2002,2025,2025,2042,2028
2032,2030,2021,1981,1985,2005,2038,2018
2042,2036,2026,1994,2018,2021,2046,2021
2040,2052,2040,2006,2031,2029,2057,2024
2043,2052,2056,2010,2033,2043,2062,2024
2053,2067,2071,2019,2045,2046,2055,2024
2058,2072,2090,2029,2053,2053,2069,2023
2061,2075,2098,2039,2057,2056,2070,2025
2063,2066,2093,2033,2055,2050,2052,2019
2050,2057,2080,2036,2060,2058,2059,2015
2056,2060,2077,2036,2059,2058,2077,2026
2053,2067,2071,2035,2064,2058,2063,2023
2058,2069,2067,2036,2070,2060,2071,2024
2055,2068,2073,2034,2063,2057,2043,2022
2051,2060,2068,2025,2058,2045,2061,2026
2052,2062,2064,2030,2054,2054,2064,2039
2056,2059,2065,2026,2056,2062,2071,2047
2061,2063,2065,2021,2044,2070,2076,2054
2057,2064,2074,2023,2032,2064,2078,2059
2051,2065,2072,2027,2013,2050,2073,2059
2049,2056,2061,2036,2005,2052,2059,2064
2042,2044,2057,2035,2025,2047,2044,2065
2032,2038,2047,2029,2033,2055,2044,2066
2039,2042,2052,2028,2045,2053,2053,2066
2047,2046,2052,2026,2063,2036,2059,2076
2038,2038,2047,2027,2052,2028,2052,2067
2036,2038,2040,2021,2054,2025,2038,2069
2046,2048,2048,2028,2055,2032,2047,2073
2048,2056,2051,2027,2051,2026,2040,2067
2056,2056,2055,2035,2038,2021,2041,2060
2054,2052,2050,2032,2037,2022,2047,2058
2048,2053,2050,2031,2047,2037,2052,2053
2044,2046,2041,2032,2045,2047,2045,2045
2044,2047,2043,2038,2050,2064,2047,2033
2045,2042,2039,2036,2057,2081,2052,2027
2039,2047,2043,2033,2055,2081,2039,2019
2039,2044,2045,2034,2055,2086,2044,2025
2039,2047,2043,2035,2050,2112,2052,2024
2048,2050,2042,2032,2049,2087,2052,2025
2051,2047,2037,2033,2040,2061,2045,2022
2045,2044,2032,2031,2032,2071,2037,2016
2036,2039,2035,2027,2042,2056,2015,2012
2034,2029,2021,2032,2063,2050,2050,2017
2036,2032,2027,2038,2068,2068,2059,2031
2047,2041,2034,2041,2060,2052,2034,2034
2051,2038,2038,2037,2049,2044,2051,2029
2048,2036,2030,2036,2038,2027,2038,2035
2046,2039,2034,2032,2031,2015,2030,2030
2049,2043,2035,2031,2019,2017,2020,2031
2044,2042,2034,2030,2023,2029,2036,2033
2044,2040,2033,2024,2019,2033,2026,2029
2044,2041,2034,2030,2023,2045,2043,2037
2049,2046,2040,2041,2033,2013,2045,2061
2053,2056,2048,2053,2034,2010,2049,2068
2053,2055,2051,2051,2038,2008,2054,2068
2053,2056,2046,2049,2038,2025,2052,2080
2045,2052,2042,2036,2043,2065,2063,2079
2048,2042,2039,2027,2042,2071,2066,2079
2044,2044,2036,2023,2028,2063,2063,2078
2041,2036,2040,2021,2025,2046,2046,2073
2040,2048,2046,2030,2036,2033,2046,2075
2046,2059,2049,2029,2027,2020,2038,2068
2047,2058,2056,2035,2028,2009,2029,2068
2049,2061,2061,2043,2028,2013,2038,2067
2053,2063,2064,2046,2036,2017,2024,2060
2051,2065,2072,2044,2038,2021,2030,2055
2057,2061,2066,2042,2037,2020,2012,2048
2063,2062,2072,2041,2034,2026,2021,2044
2053,2059,2073,2043,2041,2037,2030,2042
2057,2066,2065,2042,2045,2040,2034,2038
2061,2059,2060,2042,2044,2054,2041,2041
2062,2055,2056,2041,2043,2067,2052,2032
2057,2052,2047,2030,2038,2081,2042,2025
2046,2040,2041,2020,2024,2103,2041,2009
2042,2034,2030,2011,2019,2114,2064,2002
2028,2023,2030,2013,2020,2118,2063,2008
2030,2032,2034,2019,2027,2120,2056,2018
2033,2051,2043,2037,2035,2075,2051,2025
2044,2053,2051,2040,2053,2014,2057,2035
2055,2058,2052,2047,2052,2022,2045,2033
2052,2052,2045,2039,2050,2038,2034,2033
2042,2049,2042,2038,2037,2049,2037,2037
2047,2049,2040,2033,2031,2053,2054,2046
2042,2048,2043,2034,2022,2044,2052,2050
2052,2051,2047,2031,2020,2044,2078,2056
2051,2056,2041,2029,2021,2048,2047,2062
2055,2048,2046,2030,2023,2046,2055,2067
2049,2047,2037,2035,2039,2051,2076,2079
2047,2044,2040,2035,2063,2065,2072,2082
2057,2046,2038,2029,2085,2065,2070,2090
2051,2042,2036,2030,2094,2070,2073,2083
2045,2028,2028,2021,2088,2056,2069,2079
2039,2028,2021,2022,2101,2063,2056,2082
2043,2039,2035,2031,2103,2065,2073,2080
2050,2044,2033,2031,2077,2049,2064,2082
2044,2033,2040,2031,2060,2032,2054,2073
2042,2039,2041,2036,2108,2045,2043,2076
2045,2039,2044,2042,2064,2041,2036,2062
2044,2037,2040,2029,1947,2019,2026,2047
2036,2035,2035,2028,1947,2009,2018,2025
2041,2040,2036,2033,1991,2029,2030,2020
2042,2040,2035,2036,2034,2067,2037,2020
2041,2046,2034,2031,2045,2068,2031,2026
2042,2051,2032,2020,2002,2035,2038,2032
2043,2049,2034,2011,2010,2033,2028,2036
2054,2052,2040,2023,2030,2044,2035,2037
2056,2059,2038,2024,2022,2035,2049,2043
2054,2053,2040,2027,2016,2035,2037,2037
2053,2047,2037,2022,2019,2041,2050,2027
2054,2040,2036,2025,2019,2051,2061,2033
2056,2049,2041,2024,2020,2062,2050,2033
2055,2050,2040,2020,2015,2064,2039,2035
2048,2040,2032,2015,2015,2072,2049,2036
2044,2045,2035,2018,2032,2097,2047,2034
2049,2044,2035,2024,2037,2134,2069,2038
2049,2048,2041,2036,2052,2130,2050,2048
2052,2045,2037,2048,2069,2088,2050,2049
2050,2051,2043,2053,2078,1989,2036,2048
2045,2048,2044,2053,2081,1984,2034,2053
2051,2047,2043,2055,2082,2020,2049,2058
2046,2040,2037,2053,2090,2044,2048,2073
2050,2042,2032,2049,2088,2045,2041,2078
2045,2037,2029,2044,2084,2048,2049,2078
2047,2029,2022,2040,2066,2053,2054,2081
2044,2030,2014,2026,2021,2051,2050,2073
2038,2024,2011,2018,1963,2042,2047,2072
2043,2039,2024,2026,1994,2046,2056,2077
2054,2043,2032,2030,2013,2043,2068,2075
2051,2046,2040,2036,2017,2043,2068,2076
2053,2048,2044,2038,2020,2047,2076,2065
2051,2054,2058,2035,2028,2051,2074,2059
2052,2060,2065,2030,2018,2038,2069,2050
2057,2059,2070,2025,2016,2031,2066,2045
2051,2066,2081,2030,2026,2037,2061,2047
2049,2057,2079,2025,2042,2033,2063,2041
2045,2052,2070,2011,2044,2022,2066,2038
2047,2049,2066,2008,2045,2006,2064,2032
2046,2053,2071,2018,2035,2003,2077,2023
2052,2056,2064,2029,2037,2015,2066,2025
2050,2058,2069,2032,2040,2011,2060,2027
2051,2056,2068,2033,2037,2015,2062,2022
2040,2039,2057,2024,2028,2032,2057,2020
2044,2034,2052,2026,2021,2052,2066,2028
2048,2047,2057,2019,2003,2091,2062,2028
2038,2044,2047,2011,1970,2084,2048,2020
2036,2036,2035,1991,1933,2069,2033,2009
2032,2034,2036,1979,1920,2053,2027,2001
2034,2031,2038,1989,1948,2026,2032,2016
2036,2034,2038,1998,1983,2005,2029,2026
2041,2048,2042,2023,2059,2026,2061,2049
2052,2056,2057,2054,2127,2056,2084,2065
2061,2057,2059,2062,2144,2081,2080,2071
2061,2053,2058,2052,2146,2094,2060,2073
2054,2047,2050,2050,2126,2089,2077,2072
2046,2044,2052,2047,2100,2078,2066,2073
2049,2042,2045,2049,2095,2077,2071,2071
2044,2038,2048,2040,2082,2055,2052,2071
2042,2030,2038,2037,2067,2039,2036,2070
2036,2028,2038,2032,2062,2033,2044,2077
2038,2031,2040,2040,2052,2033,2056,2076
2045,2044,2052,2041,2052,2039,2054,2068
2047,2059,2066,2045,2054,2043,2073,2076
2056,2067,2071,2053,2055,2060,2068,2080
2060,2073,2073,2054,2043,2067,2063,2063
2061,2067,2069,2050,2022,2058,2080,2053
2059,2071,2072,2044,2034,2060,2072,2054
2062,2072,2073,2045,2034,2063,2067,2057
2064,2069,2078,2050,2037,2071,2076,2055
2064,2066,2081,2055,2047,2068,2084,2047
2069,2071,2083,2056,2058,2064,2084,2052
2064,2073,2088,2059,2066,2064,2093,2048
2070,2069,2078,2046,2063,2068,2059,2043
2066,2065,2075,2036,2055,2061,2056,2038
2064,2060,2074,2043,2048,2051,2049,2029
2054,2051,2076,2051,2049,2052,2054,2029
2056,2053,2076,2049,2054,2057,2056,2031
2061,2062,2083,2053,2038,2042,2048,2032
2063,2059,2081,2056,2031,2023,2051,2034
2063,2056,2079,2062,2025,2034,2056,2041
2062,2058,2074,2058,2023,2039,2057,2035
2054,2050,2066,2062,2022,2043,2060,2050
2054,2046,2068,2059,2023,2041,2060,2051
2049,2046,2054,2050,2029,2041,2060,2056
2051,2043,2046,2044,2032,2040,2065,2059
2052,2044,2045,2036,2041,2045,2063,2065
2049,2045,2050,2034,2040,2052,2054,2072
2046,2043,2046,2037,2038,2056,2042,2072
2049,2044,2039,2035,2028,2051,2055,2088
2046,2045,2038,2033,2037,2052,2060,2087
2044,2046,2040,2027,2046,2048,2061,2081
2041,2034,2030,2018,2048,2040,2055,2077
2043,2038,2030,2017,2045,2036,2047,2082
2041,2047,2026,2012,2053,2036,2038,2078
2046,2039,2020,2009,2050,2019,2026,2073
2049,2040,2017,2010,2049,2022,2036,2072
2048,2034,2018,2011,2048,2039,2054,2069
2046,2032,2023,2020,2051,2066,2074,2069
2047,2034,2028,2022,2045,2073,2072,2064
2045,2039,2019,2023,2043,2062,2056,2048
2051,2035,2020,2026,2038,2054,2049,2050
2048,2038,2022,2026,2041,2049,2065,2043
2047,2040,2020,2024,2044,2051,2062,2039
2046,2035,2016,2027,2038,2059,2061,2039
2053,2035,2024,2028,2034,2058,2065,2042
2053,2040,2027,2033,2039,2063,2078,2046
2063,2044,2037,2038,2036,2068,2078,2052
2061,2045,2031,2040,2037,2068,2068,2048
2058,2039,2026,2035,2042,2058,2074,2039
2056,2051,2037,2043,2056,2053,2054,2034
2061,2053,2045,2044,2054,2049,2050,2030
2052,2050,2038,2041,2043,2015,2035,2029
2045,2039,2030,2036,2037,2001,2024,2026
2040,2035,2034,2032,2032,2011,2041,2038
2038,2037,2037,2039,2034,2022,2025,2044
2042,2035,2038,2038,2031,2024,2037,2052
2038,2032,2044,2028,2026,2027,2037,2052
2039,2044,2056,2033,2032,2045,2051,2061
2051,2051,2064,2043,2048,2071,2061,2067
2060,2053,2070,2039,2056,2097,2063,2076
2055,2053,2065,2034,2057,2102,2057,2077
2061,2048,2053,2026,2057,2116,2075,2087
2069,2052,2055,2016,2031,2126,2051,2090
2068,2053,2049,2014,2001,2073,2032,2084
2059,2040,2040,2004,1975,2013,2014,2076
2066,2043,2038,2003,1973,1980,2016,2073
2061,2049,2033,2010,1984,1967,2027,2077
2064,2039,2032,2027,2035,1984,2043,2066
2058,2030,2032,2036,2068,2025,2035,2058
2051,2030,2032,2035,2069,2047,2046,2054
2044,2039,2032,2035,2045,2051,2039,2060
2040,2042,2031,2033,2026,2050,2047,2047
2034,2037,2023,2032,2020,2034,2028,2038
2022,2028,2008,2014,2013,2027,2025,2034
2032,2037,1998,2031,2051,2034,2041,2044
2052,2055,2015,2057,2085,2043,2056,2056
2072,2061,2014,2059,2093,2042,2047,2049
2061,2055,2008,2057,2100,2043,2028,2038
2053,2052,2001,2056,2102,2042,2033,2041
2052,2036,1992,2049,2088,2036,2010,2035
2040,2021,1983,2044,2082,2034,2012,2029
2032,2017,1992,2053,2082,2048,2046,2034
2041,2028,2000,2056,2085,2056,2046,2033
2045,2036,2013,2048,2062,2049,2042,2035
2048,2038,2021,2046,2065,2048,2056,2040
2044,2045,2044,2055,2064,2054,2043,2047
2046,2059,2070,2061,2064,2063,2027,2045
2050,2066,2086,2058,2043,2053,2017,2050
2044,2065,2089,2059,2034,2048,2021,2055
2040,2064,2101,2048,2027,2040,2015,2057
2044,2063,2107,2058,2018,2027,2019,2064
2046,2065,2116,2059,2023,2027,2028,2074
2048,2070,2118,2066,2033,2023,2054,2080
2059,2071,2113,2067,2037,2024,2040,2087
2052,2069,2106,2058,2022,2023,2037,2090
2051,2062,2101,2058,2016,2028,2036,2083
2039,2046,2078,2055,2038,2039,2025,2079
2041,2039,2081,2057,2027,2047,2027,2086
2044,2054,2090,2062,2034,2039,2037,2077
2048,2055,2089,2060,2057,2029,2031,2069
2046,2051,2081,2047,2044,2046,2043,2069
2042,2041,2065,2049,2043,2068,2058,2057
2034,2040,2058,2054,2066,2103,2049,2049
2040,2040,2049,2048,2066,2106,2065,2050
2033,2041,2043,2039,2056,2092,2058,2045
2042,2044,2041,2032,2022,2074,2059,2041
2036,2038,2046,2021,1973,2055,2033,2040
2047,2043,2042,2016,1995,2054,2047,2036
2037,2044,2041,2021,2009,2042,2055,2028
2040,2041,2040,2018,1993,2028,2039,2028
2035,2040,2037,2021,1993,2022,2045,2028
2043,2043,2041,2030,2004,2028,2038,2028
2037,2034,2041,2031,2012,2032,2041,2024
2034,2037,2045,2041,2014,2042,2042,2031
2044,2042,2049,2044,2020,2043,2043,2027
2044,2043,2052,2047,2034,2053,2041,2030
2047,2040,2050,2034,2038,2065,2018,2031
2047,2047,2042,2032,2055,2078,2026,2033
2047,2051,2040,2040,2081,2079,2045,2046
2054,2044,2041,2046,2093,2080,2047,2055
2048,2046,2044,2047,2083,2053,2030,2064
2050,2048,2046,2057,2091,2031,2042,2072
2054,2053,2056,2060,2077,2033,2043,2079
2048,2056,2060,2055,2075,2050,2054,2073
2039,2048,2060,2053,2061,2057,2050,2071
2040,2045,2052,2045,2058,2063,2059,2084
2042,2033,2045,2052,2054,2060,2060,2094
2042,2031,2038,2046,2052,2056,2058,2080
2028,2026,2032,2039,2038,2052,2058,2072
2037,2036,2040,2045,2041,2057,2060,2079
2044,2044,2051,2046,2047,2061,2060,2083
2052,2044,2051,2049,2052,2057,2052,2077
2050,2050,2046,2050,2053,2059,2067,2068
2054,2049,2049,2054,2051,2052,2064,2064
2051,2050,2056,2059,2054,2039,2065,2061
2053,2057,2063,2061,2055,2050,2050,2057
2055,2053,2054,2054,2039,2058,2069,2045
2052,2050,2053,2057,2034,2050,2051,2038
2045,2040,2040,2041,2007,2029,2051,2040
2042,2045,2032,2029,2002,2022,2053,2034
2048,2040,2044,2043,2021,2023,2054,2030
2050,2043,2055,2051,2034,2022,2059,2033
2053,2052,2061,2054,2039,2029,2057,2032
2050,2049,2060,2054,2070,2025,2052,2033
2046,2047,2052,2056,2087,2034,2037,2026
2047,2054,2056,2058,2109,2051,2042,2041
2054,2049,2053,2057,2101,2050,2051,2033
2048,2041,2041,2052,2127,2052,2051,2037
2049,2046,2039,2065,2140,2046,2050,2037
2051,2048,2037,2070,2126,2031,2061,2044
2053,2044,2037,2071,2102,2026,2058,2052
2054,2043,2032,2061,2065,2026,2048,2068
2055,2035,2022,2051,1968,2026,2037,2057
2048,2023,2015,2030,1925,2017,2043,2053
2043,2025,2015,2033,1967,2013,2054,2062
2036,2032,2033,2049,2005,2012,2067,2072
2042,2031,2035,2053,2011,2016,2072,2074
2040,2029,2035,2063,2016,2024,2077,2069
2042,2035,2039,2073,2032,2034,2040,2074
2043,2032,2044,2068,2027,2041,2028,2064
2039,2024,2038,2067,2042,2064,2037,2071
2042,2038,2052,2072,2043,2063,2055,2076
2049,2044,2059,2074,2041,2030,2038,2079
2057,2051,2068,2068,2041,2036,2038,2069
2055,2057,2068,2071,2048,2066,2025,2059
2050,2058,2070,2071,2039,2075,2037,2050
2056,2057,2065,2066,2032,2077,2067,2046
2046,2051,2055,2062,2035,2069,2056,2042
2046,2049,2051,2062,2030,2052,2057,2032
2054,2058,2067,2070,2034,2040,2051,2028
2056,2068,2080,2074,2042,2039,2049,2033
2059,2073,2080,2071,2038,2033,2055,2029
2060,2069,2072,2059,2035,2039,2039,2029
2051,2063,2056,2049,2031,2048,2028,2027
2050,2057,2052,2035,2029,2044,2045,2021
2049,2049,2039,2015,2024,2050,2032,2017
2039,2041,2034,2021,2022,2055,2040,2020
2048,2052,2037,2025,2037,2072,2039,2031
2053,2058,2039,2032,2044,2069,2042,2034
2054,2065,2038,2033,2043,2060,2069,2037
2060,2067,2045,2041,2044,2053,2067,2043
2061,2066,2045,2041,2042,2055,2058,2047
2057,2064,2048,2046,2042,2056,2066,2051
2056,2062,2045,2049,2043,2053,2062,2054
2061,2067,2049,2047,2048,2054,2064,2055
2059,2055,2051,2049,2046,2054,2066,2058
2056,2056,2047,2048,2049,2052,2066,2064
2050,2044,2046,2048,2046,2055,2064,2071
2047,2037,2041,2044,2043,2049,2062,2069
2044,2038,2046,2045,2041,2051,2064,2075
2037,2038,2044,2049,2035,2053,2064,2072
2033,2028,2041,2040,2040,2040,2051,2073
2029,2034,2038,2038,2034,2040,2053,2077
2041,2042,2038,2043,2039,2043,2059,2079
2047,2043,2043,2045,2034,2039,2059,2072
2044,2044,2045,2042,2035,2041,2055,2071
2045,2049,2040,2042,2030,2040,2054,2061
2043,2050,2043,2039,2034,2034,2054,2058
2044,2051,2045,2050,2040,2035,2055,2049
2047,2050,2049,2048,2043,2039,2058,2042
2050,2050,2049,2050,2044,2040,2056,2037
2049,2055,2046,2050,2044,2043,2063,2036
2049,2055,2043,2050,2040,2053,2043,2039
2052,2048,2047,2051,2048,2059,2056,2037
2050,2052,2038,2047,2037,2060,2042,2033
2049,2049,2039,2047,2026,2050,2033,2027
2053,2052,2044,2043,2016,2043,2038,2027
2048,2041,2040,2040,2006,2032,2027,2022
2042,2041,2038,2036,2016,2032,2038,2019
2040,2045,2035,2038,2031,2052,2032,2028
2051,2055,2046,2054,2062,2075,2048,2035
2048,2062,2052,2060,2077,2079,2054,2038
2044,2058,2052,2060,2073,2074,2050,2043
2041,2049,2064,2068,2068,2072,2062,2038
2048,2047,2071,2071,2062,2067,2070,2044
2047,2048,2068,2068,2060,2075,2080,2053
2052,2045,2066,2065,2045,2095,2071,2063
2050,2040,2055,2063,2026,2101,2082,2067
2043,2035,2047,2054,2002,2088,2073,2063
2036,2027,2049,2054,1992,2077,2066,2078
2030,2030,2038,2040,1951,2025,2057,2076
2039,2032,2042,2042,1957,1994,2049,2076
2040,2042,2041,2046,1993,2001,2061,2071
2039,2030,2023,2039,2006,2019,2049,2060
2033,2026,2020,2050,2064,2040,2046,2075
2040,2042,2031,2070,2132,2065,2058,2068
2042,2041,2035,2073,2159,2074,2055,2062
2037,2037,2028,2066,2140,2086,2044,2056
2032,2039,2023,2053,2110,2096,2052,2048
2035,2032,2019,2039,2070,2100,2070,2043
2034,2036,2010,2030,2071,2107,2079,2041
2037,2040,2007,2021,2059,2064,2038,2037
2039,2033,2005,2016,2034,2009,2045,2035
2029,2033,2002,2014,2033,2009,2055,2029
2032,2037,2010,2023,2039,2025,2055,2033
2041,2045,2020,2032,2052,2039,2058,2031
2039,2048,2026,2047,2050,2039,2059,2038
2037,2050,2037,2045,2051,2038,2050,2030
2042,2051,2037,2045,2043,2042,2046,2027
2043,2043,2028,2030,2016,2024,2043,2030
2040,2039,2031,2026,2002,2029,2028,2025
2043,2054,2042,2036,2017,2040,2052,2030
2053,2059,2056,2044,2028,2038,2059,2032
2048,2064,2059,2047,2038,2039,2058,2040
2052,2064,2060,2046,2039,2042,2063,2040
2049,2060,2055,2045,2034,2039,2054,2050
2046,2063,2049,2046,2042,2034,2054,2042
2040,2057,2046,2045,2032,2030,2045,2044
2037,2050,2043,2044,2033,2032,2046,2038
2033,2053,2043,2049,2037,2032,2045,2044
2032,2051,2040,2043,2040,2035,2043,2053
2037,2053,2040,2040,2045,2040,2049,2063
2039,2056,2043,2039,2052,2049,2065,2066
2042,2057,2051,2048,2057,2057,2074,2076
2045,2055,2049,2046,2061,2064,2076,2081
2042,2054,2042,2035,2046,2056,2076,2081
2038,2046,2035,2037,2034,2061,2058,2089
2044,2050,2046,2037,2053,2080,2074,2087
2047,2054,2041,2038,2047,2094,2058,2082
2047,2053,2043,2043,2060,2107,2066,2078
2036,2052,2038,2047,2058,2118,2081,2069
2037,2051,2037,2048,2054,2135,2085,2064
2046,2050,2037,2043,2049,2162,2086,2060
2049,2051,2037,2041,2043,2177,2086,2052
2052,2050,2038,2043,2038,2131,2076,2037
2053,2050,2043,2039,2032,1999,2044,2033
2041,2052,2040,2040,2028,1937,2027,2036
2045,2052,2041,2041,2028,1972,2045,2036
2052,2050,2038,2042,2033,2008,2039,2030
2046,2051,2033,2041,2045,2027,2047,2026
2047,2052,2030,2043,2043,2033,2035,2027
2041,2046,2024,2041,2043,2030,2024,2025
2043,2038,2018,2042,2055,2033,2044,2021
2044,2039,2029,2052,2071,2045,2053,2028
2051,2043,2028,2049,2064,2050,2048,2031
2046,2046,2033,2048,2055,2059,2060,2034
2045,2048,2034,2048,2059,2057,2070,2039
2045,2044,2032,2044,2054,2066,2060,2041
2046,2038,2035,2046,2052,2052,2059,2039
2039,2040,2037,2047,2047,2040,2065,2040
2030,2040,2038,2049,2053,2046,2043,2049
2034,2044,2036,2052,2051,2053,2069,2048
2035,2041,2041,2054,2053,2052,2055,2056
