CH1,CH2,CH3,CH4,CH5,CH6,CH7,CH8
2051,2056,2063,2050,2036,2047,2050,2058
2046,2056,2058,2046,2032,2051,2046,2055
2047,2055,2064,2044,2030,2056,2052,2047
2052,2055,2070,2044,2030,2053,2052,2037
2051,2055,2063,2047,2029,2043,2026,2037
2044,2051,2056,2053,2039,2046,2043,2023
2043,2049,2051,2055,2037,2047,2032,2018
2044,2045,2045,2052,2044,2048,2041,2023
2035,2051,2044,2053,2049,2046,2041,2014
2038,2044,2042,2052,2047,2057,2047,2015
2038,2052,2037,2053,2054,2055,2055,2025
2049,2043,2033,2043,2050,2046,2026,2013
2040,2030,2009,2025,2036,2036,2008,2011
2031,2027,1986,2019,2030,2033,2022,2019
2044,2029,2003,2038,2041,2033,2040,2023
2041,2031,2012,2038,2041,2034,2034,2024
2036,2038,2032,2042,2055,2051,2032,2026
2044,2044,2037,2048,2061,2054,2032,2028
2041,2040,2033,2045,2060,2048,2040,2025
2040,2036,2021,2043,2063,2050,2056,2036
2041,2036,2020,2044,2049,2043,2036,2042
2038,2040,2025,2049,2057,2052,2046,2041
2032,2042,2040,2061,2057,2056,2060,2040
2041,2044,2053,2070,2061,2057,2050,2051
2041,2045,2056,2067,2058,2053,2051,2062
2047,2052,2068,2072,2052,2051,2046,2061
2052,2066,2072,2064,2050,2049,2064,2070
2046,2059,2068,2054,2051,2040,2038,2063
2037,2044,2067,2050,2036,2030,2039,2064
2036,2058,2070,2051,2041,2038,2054,2072
2053,2070,2078,2057,2050,2054,2067,2075
2051,2073,2065,2052,2054,2052,2060,2079
2047,2068,2063,2042,2044,2049,2035,2064
2054,2062,2064,2042,2042,2039,2058,2061
2055,2068,2066,2044,2043,2040,2046,2059
2053,2066,2069,2035,2039,2033,2046,2050
2047,2067,2076,2030,2033,2035,2022,2041
2050,2076,2082,2028,2036,2038,2025,2040
2056,2072,2069,2032,2042,2046,2030,2037
2049,2059,2065,2028,2043,2052,2050,2035
2050,2052,2051,2034,2040,2062,2052,2031
2043,2044,2052,2041,2042,2067,2060,2034
2041,2050,2043,2045,2039,2066,2061,2023
2048,2046,2047,2049,2044,2078,2054,2022
2050,2039,2036,2046,2039,2076,2054,2019
2040,2032,2030,2044,2029,2072,2038,2017
2049,2039,2041,2046,2029,2068,2036,2022
2044,2046,2043,2044,2033,2072,2029,2024
2048,2051,2043,2041,2031,2096,2045,2021
2045,2050,2044,2033,2033,2099,2046,2027
2040,2051,2043,2028,2034,2054,2047,2027
2039,2055,2049,2029,2031,2045,2053,2037
2043,2056,2047,2035,2042,2054,2071,2038
2044,2062,2052,2036,2044,2071,2066,2050
2048,2056,2055,2040,2041,2068,2049,2057
2049,2064,2063,2038,2047,2058,2057,2060
2045,2066,2060,2046,2050,2044,2052,2069
2041,2059,2061,2049,2044,2021,2053,2070
2048,2061,2061,2048,2050,2003,2058,2081
2041,2062,2060,2049,2048,2006,2064,2068
2044,2050,2045,2045,2039,1998,2039,2058
2031,2042,2045,2039,2039,2008,2038,2060
2043,2052,2044,2042,2044,2030,2041,2066
2047,2056,2055,2045,2034,2045,2046,2062
2057,2058,2050,2031,2024,2049,2056,2055
2061,2062,2051,2030,2025,2050,2054,2052
2053,2064,2050,2028,2023,2044,2045,2054
2053,2061,2051,2022,2026,2039,2041,2039
2053,2061,2046,2022,2023,2036,2035,2040
2053,2057,2049,2034,2026,2042,2027,2030
2049,2055,2052,2043,2033,2043,2057,2027
2050,2050,2047,2041,2043,2049,2060,2029
2049,2049,2046,2038,2034,2050,2052,2027
2044,2052,2046,2040,2030,2049,2030,2022
2041,2051,2047,2038,2030,2048,2038,2016
2048,2045,2050,2040,2023,2047,2044,2019
2044,2049,2042,2034,2020,2038,2031,2010
2032,2038,2035,2034,2020,2043,2034,2007
2035,2043,2046,2036,2023,2045,2044,2023
2043,2054,2050,2042,2017,2051,2041,2019
2046,2053,2055,2045,2013,2046,2035,2020
2048,2054,2047,2044,2016,2051,2051,2021
2050,2055,2049,2047,2013,2050,2052,2029
2046,2059,2049,2043,2036,2052,2045,2035
2042,2050,2043,2041,2058,2059,2049,2037
2044,2043,2043,2054,2075,2063,2046,2043
2049,2049,2043,2058,2084,2064,2062,2051
2045,2043,2045,2057,2081,2071,2039,2050
2049,2050,2042,2059,2076,2075,2038,2053
2042,2043,2043,2052,2065,2072,2040,2061
2044,2042,2041,2054,2063,2072,2058,2066
2042,2044,2045,2045,2064,2062,2057,2065
2037,2043,2040,2036,2065,2053,2041,2060
2040,2031,2040,2040,2059,2058,2040,2063
2037,2033,2035,2046,2063,2071,2061,2066
2050,2050,2044,2054,2072,2066,2057,2069
2055,2054,2058,2064,2075,2069,2057,2061
2051,2060,2060,2060,2068,2057,2050,2056
2056,2060,2061,2054,2056,2042,2060,2046
2048,2052,2061,2050,2038,2027,2041,2036
2047,2050,2058,2050,2029,2015,2029,2033
2047,2052,2058,2049,2020,2025,2044,2039
2051,2054,2054,2053,2027,2056,2051,2030
2056,2057,2061,2058,2040,2069,2068,2030
2057,2056,2066,2064,2043,2080,2063,2028
2069,2060,2071,2063,2046,2081,2074,2023
2056,2060,2085,2062,2049,2088,2058,2024
2062,2065,2089,2066,2058,2083,2051,2020
2060,2061,2082,2060,2095,2075,2060,2010
2053,2045,2063,2053,2114,2067,2054,2010
2047,2038,2046,2039,2115,2058,2047,2007
2050,2042,2040,2041,2116,2051,2061,2013
2049,2045,2039,2042,2127,2047,2056,2018
2055,2054,2040,2042,2134,2033,2069,2027
2056,2058,2047,2040,2125,2023,2061,2027
2065,2056,2036,2039,2125,2023,2069,2036
2059,2053,2038,2047,2120,2030,2068,2041
2059,2060,2049,2068,2087,2040,2043,2039
2052,2046,2058,2072,1966,2034,2027,2045
2048,2038,2052,2061,1910,2027,2024,2049
2051,2040,2048,2058,1977,2027,2031,2052
2049,2044,2054,2068,2034,2044,2037,2061
2054,2043,2059,2083,2055,2048,2038,2063
2058,2046,2066,2088,2071,2047,2042,2068
2053,2042,2064,2088,2051,2054,2058,2072
2046,2042,2063,2081,2034,2056,2040,2067
2042,2029,2060,2078,2032,2057,2039,2071
2042,2037,2072,2077,2043,2061,2056,2081
2052,2050,2070,2061,2005,2054,2065,2072
2051,2047,2053,2031,1968,2048,2046,2077
2057,2054,2055,2016,1991,2055,2033,2063
2057,2055,2052,2014,2002,2065,2060,2061
2058,2059,2038,2007,2006,2066,2063,2052
2060,2052,2028,2004,2016,2060,2064,2043
2055,2039,2013,1994,2014,2058,2067,2041
2051,2038,2000,1985,2018,2058,2055,2034
2051,2035,2004,1993,2025,2057,2061,2032
2053,2042,2018,2006,2032,2046,2061,2030
2057,2049,2032,2020,2033,2046,2055,2034
2061,2051,2032,2023,2030,2045,2049,2035
2058,2045,2029,2022,2036,2052,2041,2025
2060,2046,2032,2028,2040,2054,2033,2014
2054,2035,2035,2022,2030,2048,2039,2013
2050,2032,2032,2031,2031,2043,2054,2019
2050,2044,2044,2038,2037,2037,2041,2017
2046,2040,2039,2033,2032,2041,2035,2020
2044,2041,2043,2034,2034,2049,2035,2021
2040,2039,2040,2037,2035,2053,2037,2031
2041,2042,2042,2039,2032,2057,2053,2035
2042,2049,2049,2041,2033,2069,2043,2035
2053,2045,2054,2037,2032,2056,2046,2035
2052,2045,2050,2037,2041,2024,2045,2049
2054,2046,2045,2040,2048,2014,2051,2056
2056,2039,2031,2028,2049,2024,2053,2058
2046,2034,2022,2038,2054,2034,2055,2072
2047,2038,2024,2037,2049,2041,2072,2071
2053,2037,2022,2045,2049,2041,2074,2076
2051,2039,2021,2038,2050,2048,2043,2080
2041,2029,2008,2029,2039,2033,2036,2067
2037,2026,2002,2025,2039,2035,2040,2062
2035,2027,2004,2023,2048,2042,2043,2069
2040,2033,1997,2028,2041,2041,2034,2069
2046,2033,1998,2027,2034,2037,2035,2061
2042,2028,1998,2020,2028,2039,2040,2049
2038,2038,2004,2019,2027,2036,2052,2049
2040,2040,2018,2025,2030,2039,2045,2040
2044,2043,2025,2032,2034,2046,2028,2040
2044,2044,2034,2034,2036,2054,2030,2037
2042,2040,2032,2031,2032,2050,2016,2026
2046,2041,2025,2032,2038,2053,2042,2022
2048,2035,2029,2032,2037,2049,2038,2020
2042,2038,2035,2034,2035,2048,2042,2020
2049,2038,2041,2032,2039,2050,2051,2022
2050,2047,2051,2043,2044,2051,2044,2022
2049,2046,2049,2051,2045,2049,2041,2020
2037,2033,2033,2039,2031,2048,2038,2014
2031,2030,2031,2045,2033,2050,2049,2015
2041,2041,2046,2056,2052,2056,2057,2024
2053,2047,2057,2063,2043,2050,2056,2034
2055,2055,2068,2074,2052,2048,2044,2029
2054,2057,2075,2072,2055,2047,2031,2037
2054,2060,2075,2068,2052,2049,2031,2043
2065,2057,2067,2063,2061,2058,2036,2046
2062,2057,2063,2055,2055,2061,2049,2048
2055,2046,2051,2046,2060,2057,2045,2054
2051,2041,2043,2044,2056,2065,2047,2061
2047,2042,2042,2043,2062,2071,2054,2070
2048,2044,2036,2046,2053,2075,2053,2071
2046,2041,2030,2032,2047,2068,2046,2080
2046,2045,2032,2032,2041,2057,2061,2086
2050,2050,2042,2030,2040,2045,2062,2087
2051,2060,2053,2030,2043,2044,2058,2085
2045,2045,2055,2030,2038,2036,2053,2082
2047,2043,2057,2040,2044,2037,2059,2084
2052,2051,2067,2040,2036,2028,2039,2073
2045,2048,2074,2045,2036,2022,2049,2067
2046,2057,2090,2057,2038,2023,2048,2064
2052,2062,2092,2058,2054,2031,2051,2065
2054,2064,2081,2056,2054,2036,2060,2055
2054,2064,2068,2053,2061,2036,2056,2046
2054,2056,2053,2047,2058,2027,2043,2042
2048,2055,2048,2047,2060,2045,2050,2033
2051,2046,2040,2044,2059,2052,2056,2034
2042,2044,2039,2050,2054,2051,2066,2032
2045,2037,2037,2051,2053,2050,2058,2030
2037,2034,2049,2054,2051,2050,2066,2021
2039,2028,2056,2059,2051,2049,2058,2021
2041,2034,2057,2069,2046,2050,2061,2020
2041,2026,2043,2068,2026,2033,2058,2010
2028,2022,2032,2057,1989,2026,2057,2013
2026,2029,2030,2062,2014,2030,2056,2017
2027,2021,2023,2060,2029,2049,2033,2012
2029,2024,2017,2070,2058,2065,2040,2015
2032,2026,2018,2078,2089,2083,2046,2025
2029,2034,2022,2089,2108,2080,2045,2025
2042,2027,2024,2082,2099,2079,2054,2032
2039,2029,2018,2066,2097,2080,2060,2034
2037,2026,2013,2048,2069,2067,2055,2051
2037,2029,2011,2037,2050,2057,2042,2053
2041,2033,2016,2029,2042,2056,2042,2062
2037,2036,2018,2007,2016,2051,2050,2067
2038,2035,2024,1997,1968,2043,2051,2076
2038,2032,2019,1978,1960,2041,2055,2084
2042,2025,2019,1980,1982,2038,2065,2090
2050,2037,2044,1993,1997,2030,2056,2093
2052,2056,2081,2021,2038,2042,2060,2091
2053,2082,2114,2048,2055,2047,2072,2100
2071,2097,2119,2056,2054,2051,2072,2100
2073,2101,2115,2052,2055,2054,2070,2100
2072,2100,2110,2056,2063,2041,2046,2091
2068,2088,2103,2063,2073,2035,2031,2076
2058,2076,2092,2066,2076,2045,2064,2071
2061,2074,2076,2065,2067,2047,2051,2065
2065,2069,2071,2054,2046,2035,2046,2058
2058,2057,2064,2045,2023,2025,2034,2044
2060,2057,2058,2035,2018,2028,2062,2041
2059,2052,2056,2028,2015,2026,2047,2038
2055,2053,2060,2028,2016,2035,2044,2039
2060,2055,2069,2041,2026,2040,2043,2043
2061,2060,2077,2038,2023,2040,2040,2037
2064,2056,2070,2041,2020,2037,2048,2026
2046,2047,2058,2035,2028,2029,2028,2029
2046,2042,2057,2042,2045,2037,2028,2035
2050,2054,2068,2054,2045,2048,2054,2038
2051,2046,2070,2064,2054,2052,2052,2038
2046,2043,2073,2076,2057,2058,2050,2040
2047,2050,2085,2088,2068,2060,2058,2043
2054,2052,2082,2095,2072,2064,2046,2047
2060,2055,2094,2118,2077,2061,2057,2043
2053,2058,2112,2137,2066,2062,2066,2051
2060,2061,2117,2135,2083,2061,2076,2064
2055,2056,2106,2142,2080,2060,2070,2065
2048,2060,2099,2143,2086,2058,2058,2064
2053,2059,2097,2137,2095,2060,2066,2069
2052,2057,2079,2134,2079,2057,2059,2070
2048,2056,2068,2131,2074,2050,2054,2075
2050,2049,2047,2122,2060,2046,2052,2074
2042,2034,2027,2103,2046,2034,2056,2073
2039,2031,2012,2075,2028,2037,2045,2073
2036,2036,2014,2047,2019,2039,2055,2075
2039,2035,2008,2014,1975,2034,2037,2070
2036,2032,2000,1974,1923,2021,2032,2062
2035,2026,1992,1941,1888,2021,2023,2061
2040,2041,2009,1934,1885,2011,2031,2058
2048,2049,2029,1932,1905,1994,2033,2062
2061,2069,2037,1955,1970,2020,2040,2071
2071,2076,2044,1972,2020,2042,2062,2064
2076,2069,2045,2002,2072,2044,2081,2066
2070,2061,2048,2026,2126,2064,2089,2064
2065,2065,2053,2035,2141,2080,2084,2065
2060,2063,2046,2035,2125,2080,2084,2065
2055,2057,2045,2041,2112,2076,2072,2058
2051,2056,2044,2049,2066,2065,2085,2057
2052,2050,2047,2052,2100,2052,2069,2048
2051,2036,2034,2048,2143,2044,2054,2041
2043,2032,2029,2051,2138,2031,2045,2052
2050,2046,2036,2054,2108,2016,2067,2060
2056,2046,2032,2041,2069,2004,2065,2060
2054,2039,2023,2032,2035,2016,2048,2053
2039,2034,2029,2032,2057,2045,2043,2043
2046,2042,2041,2036,2098,2094,2039,2048
2054,2048,2054,2053,2138,2122,2063,2059
2057,2059,2066,2058,2113,2132,2075,2068
2062,2057,2056,2048,2051,2133,2083,2070
2057,2052,2051,2040,1948,2095,2056,2068
2050,2051,2049,2042,1965,2060,2042,2070
2042,2052,2053,2054,2052,2058,2040,2071
2048,2050,2049,2093,2111,2078,2048,2080
2047,2044,2048,2100,2130,2075,2040,2082
2046,2044,2043,2087,2112,2063,2033,2086
2044,2046,2044,2069,2061,2039,2040,2071
2034,2038,2035,2050,2015,2021,2034,2074
2029,2035,2032,2045,2014,2012,2033,2079
2040,2037,2034,2046,2019,2012,2037,2085
2047,2045,2026,2021,1982,2000,2026,2072
2046,2045,2022,2006,1960,2008,2030,2061
2045,2040,2021,2019,1993,2041,2045,2056
2048,2039,2032,2024,2011,2065,2063,2054
2044,2038,2034,2019,2001,2068,2056,2050
2045,2041,2034,2020,1982,2078,2049,2041
2044,2043,2034,2009,1943,2080,2050,2042
2049,2042,2044,2014,1931,2058,2069,2046
2052,2051,2044,2020,1931,2056,2057,2036
2051,2042,2032,2020,1944,2040,2063,2028
2046,2032,2013,2020,1967,2022,2044,2021
2040,2034,2017,2035,2052,1999,2060,2032
2050,2035,2028,2085,2186,2025,2072,2037
2050,2039,2026,2102,2230,2066,2059,2033
2046,2034,2017,2075,2182,2082,2054,2029
2050,2044,2025,2071,2154,2092,2050,2033
2049,2041,2018,2059,2134,2086,2054,2027
2051,2040,2018,2050,2060,2047,2059,2024
2050,2041,2010,2040,2039,1994,2045,2028
2042,2031,2015,2052,2062,1980,2025,2022
2043,2034,2025,2033,1954,1978,2023,2026
2036,2025,2028,1997,1780,1984,2024,2027
2029,2023,2032,1988,1820,2003,2018,2031
2034,2025,2053,2022,1923,2037,2038,2045
2052,2041,2088,2082,2004,2075,2044,2052
2052,2057,2100,2093,2085,2115,2049,2056
2054,2063,2087,2094,2167,2107,2059,2069
2059,2066,2083,2114,2260,2107,2084,2080
2058,2070,2084,2133,2309,2122,2079,2084
2069,2072,2076,2130,2303,2115,2055,2079
2052,2050,2063,2122,2256,2062,2050,2090
2048,2046,2060,2108,2213,2023,2047,2097
2058,2056,2052,2079,2150,2025,2050,2082
2052,2046,2043,2046,2099,2051,2047,2068
2048,2031,2036,2026,2023,2055,2043,2051
2040,2030,2036,2020,2033,2072,2064,2042
2039,2027,2028,2024,1972,2075,2055,2038
2034,2031,2019,2014,1896,2040,2044,2045
2049,2034,2025,2018,1942,2011,2035,2041
2054,2038,2040,2037,1982,2014,2032,2042
2062,2047,2050,2057,2017,2024,2046,2037
2060,2048,2053,2063,2040,2041,2048,2040
2056,2043,2057,2064,2054,2037,2055,2028
2047,2042,2052,2061,2055,2022,2034,2022
2048,2032,2048,2057,2040,2012,2030,2018
2050,2040,2046,2057,2024,2002,2045,2020
2043,2032,2041,2052,2018,1999,2046,2008
2035,2021,2026,2046,2006,2009,2055,2016
2027,2018,2024,2032,2000,2024,2049,2021
2034,2029,2031,2026,2001,2035,2047,2024
2034,2024,2017,2025,2005,2041,2037,2021
2038,2030,2021,2034,2030,2048,2037,2028
2042,2041,2033,2042,2053,2051,2049,2034
2048,2040,2048,2046,2045,2060,2072,2038
2048,2045,2055,2049,2033,2058,2068,2040
2046,2047,2061,2054,2032,2050,2054,2050
2047,2047,2066,2053,2027,2041,2043,2065
2059,2053,2063,2061,2019,2036,2052,2073
2059,2051,2059,2066,2016,2034,2038,2077
2055,2050,2052,2070,2015,2042,2042,2079
2046,2043,2040,2060,1986,2054,2030,2080
2048,2044,2046,2052,1980,2059,2030,2090
2051,2047,2059,2048,1980,2062,2052,2094
2044,2045,2059,2033,1979,2067,2065,2082
2039,2029,2059,2022,1998,2066,2040,2085
2040,2030,2060,2038,2033,2075,2043,2093
2058,2036,2052,2046,2039,2080,2053,2089
2059,2042,2046,2049,2039,2073,2036,2079
2059,2049,2045,2053,2066,2059,2037,2071
2058,2046,2042,2043,2040,2039,2042,2062
2050,2047,2038,2047,1989,2020,2034,2060
2051,2046,2039,2064,2007,2025,2052,2060
2057,2051,2042,2080,2063,2036,2062,2056
2061,2054,2040,2101,2159,2058,2044,2060
2065,2060,2040,2094,2180,2064,2047,2049
2061,2057,2041,2084,2170,2066,2047,2051
2065,2060,2046,2081,2168,2057,2056,2043
2063,2056,2048,2069,2151,2051,2043,2040
2065,2051,2051,2062,2115,2045,2029,2041
2060,2054,2053,2048,2084,2041,2040,2034
2054,2049,2043,2023,2039,2042,2030,2029
2050,2046,2065,2013,1976,2029,2034,2034
2060,2064,2086,1985,1801,2002,2019,2042
2058,2061,2086,1956,1741,1976,2023,2036
2058,2052,2074,1999,1940,2008,2021,2037
2059,2049,2065,2065,2109,2071,2036,2043
2058,2049,2070,2097,2171,2101,2048,2040
2051,2039,2064,2109,2203,2115,2041,2042
2057,2039,2060,2103,2226,2116,2019,2046
2052,2046,2062,2092,2204,2101,2032,2057
2055,2045,2061,2081,2178,2094,2049,2066
2061,2049,2068,2080,2171,2099,2045,2071
2054,2048,2050,2061,2140,2080,2048,2070
2054,2036,2040,2047,2106,2051,2038,2078
2051,2028,2040,2045,2077,2009,2030,2075
2046,2030,2035,2033,2009,1985,2023,2070
2040,2023,2025,2012,1942,1969,2005,2063
2022,2010,2009,1995,1926,1978,2014,2057
2023,2006,2016,2008,1983,2005,2020,2063
2029,2017,2027,2024,2021,2016,2028,2057
2032,2028,2032,2032,2017,2003,2032,2050
2032,2040,2041,2037,1987,2005,2012,2051
2039,2046,2045,2049,1988,2015,2010,2050
2035,2046,2049,2052,2004,2023,2009,2045
2036,2046,2048,2052,2032,2023,2042,2044
2041,2052,2057,2062,2091,2031,2013,2038
2046,2054,2051,2067,2136,2036,2008,2038
2050,2052,2048,2064,2116,2053,2035,2038
2050,2053,2042,2065,2060,2066,2028,2039
2050,2056,2048,2075,2114,2089,2032,2033
2058,2063,2048,2072,2074,2103,2029,2028
2058,2061,2039,2061,2017,2098,2012,2026
2059,2059,2032,2042,1988,2092,2015,2026
2053,2057,2022,2013,1921,2070,2000,2017
2044,2048,2019,1995,1779,2019,2002,2026
2050,2045,2029,1986,1670,1974,2034,2052
2067,2066,2046,2020,1770,2003,2060,2061
2072,2068,2059,2037,1837,2044,2056,2050
2060,2050,2053,2044,1912,2079,2049,2047
2053,2052,2056,2062,2034,2125,2089,2048
2059,2060,2067,2081,2137,2155,2082,2052
2065,2061,2071,2076,2124,2155,2078,2056
2065,2059,2064,2065,2102,2145,2092,2062
2060,2055,2050,2049,2116,2128,2078,2053
2056,2041,2037,2027,2089,2082,2052,2049
2042,2033,2034,2022,2089,2036,2053,2059
2053,2036,2047,2041,2172,1986,2063,2066
2050,2044,2053,2056,2174,1963,2061,2067
2041,2037,2055,2056,2099,1967,2066,2067
2041,2040,2051,2070,2081,2001,2069,2070
2041,2036,2041,2069,2076,2019,2059,2068
2048,2036,2043,2048,2045,2030,2042,2063
2041,2040,2045,2034,2011,2022,2019,2053
2044,2042,2046,2027,2000,2020,2023,2049
2042,2042,2043,2025,2006,2015,2028,2055
2045,2043,2046,2019,1989,1990,2038,2058
2051,2057,2061,2042,2044,2009,2052,2066
2057,2058,2057,2065,2099,2058,2059,2064
2054,2050,2054,2066,2105,2091,2066,2051
2054,2049,2063,2059,2092,2093,2053,2040
2051,2043,2065,2044,2054,2068,2034,2034
2049,2042,2054,2033,2009,2041,2043,2026
2050,2035,2045,2033,1998,1994,2036,2032
2043,2036,2040,2031,1974,1995,2036,2016
2039,2026,2027,2016,1954,2003,2001,2006
2034,2026,2031,2036,2013,2026,2012,2000
2040,2039,2052,2055,2064,2045,2025,2004
2043,2040,2044,2052,2077,2032,2016,2010
2042,2037,2040,2054,2102,2031,2030,2020
2054,2051,2058,2081,2166,2058,2061,2045
2056,2053,2057,2089,2182,2075,2073,2046
2057,2049,2056,2089,2194,2092,2069,2043
2058,2044,2053,2080,2179,2093,2070,2047
2053,2043,2058,2075,2165,2067,2064,2050
2050,2048,2054,2068,2122,2039,2065,2056
2049,2048,2047,2050,2060,2023,2056,2055
2048,2037,2044,2040,1981,2000,2040,2052
2044,2037,2038,2027,1963,1987,2041,2043
2037,2030,2026,2030,2022,1999,2036,2046
2041,2028,2044,2067,2110,2030,2062,2062
2047,2042,2057,2101,2224,2051,2061,2065
2049,2047,2053,2114,2277,2070,2063,2074
2056,2057,2060,2125,2304,2063,2068,2092
2064,2072,2070,2130,2294,2046,2059,2103
2069,2064,2066,2120,2295,2053,2073,2106
2061,2061,2066,2111,2273,2058,2064,2094
2063,2066,2063,2098,2238,2059,2048,2078
2052,2058,2051,2088,2226,2067,2036,2068
2045,2045,2040,2039,2066,2042,2034,2046
2040,2043,2036,2024,1942,2062,2037,2044
2036,2045,2034,2014,1763,2082,2053,2037
2046,2047,2035,2008,1741,2090,2056,2041
2042,2047,2042,2048,1882,2096,2069,2039
2040,2050,2045,2059,1891,2089,2072,2037
2049,2044,2046,2077,1934,2075,2071,2043
2058,2047,2050,2089,2005,2083,2065,2041
2053,2043,2049,2092,2067,2085,2067,2044
2056,2052,2046,2088,2099,2085,2046,2028
2052,2050,2052,2091,2195,2095,2082,2036
2061,2048,2050,2090,2228,2070,2062,2033
2058,2045,2048,2068,2111,2038,2067,2023
2059,2045,2051,2058,2010,2048,2060,2036
2058,2060,2059,2074,2078,2062,2062,2036
2062,2066,2059,2067,2080,2054,2060,2031
2067,2061,2058,2060,2062,2074,2056,2027
2061,2059,2055,2047,1968,2071,2053,2021
2062,2048,2051,2024,1845,2081,2028,2022
2055,2048,2042,2025,1869,2068,2025,2025
2054,2049,2039,2034,1934,2049,2018,2043
2060,2056,2050,2055,2028,2027,2032,2051
2062,2058,2053,2054,2066,2036,2049,2047
2059,2054,2048,2054,2080,2034,2049,2051
2051,2052,2046,2052,2061,2049,2058,2057
2053,2052,2047,2034,2017,2051,2053,2057
2051,2046,2037,2029,2042,2062,2042,2059
2039,2034,2032,2022,2070,2068,2058,2062
2031,2033,2035,2023,2055,2016,2052,2052
2026,2026,2028,2027,2036,1985,2033,2053
2032,2025,2018,2021,1989,1973,2002,2051
2029,2036,2017,2026,1985,1988,2026,2059
2038,2046,2019,2050,2053,2006,2038,2058
2044,2044,2025,2078,2131,2010,2060,2066
2053,2056,2030,2091,2161,2014,2056,2064
2046,2051,2026,2082,2132,2015,2064,2054
2059,2051,2027,2071,2117,2019,2039,2048
2061,2047,2025,2073,2103,2025,2058,2038
2059,2050,2030,2063,2075,2015,2058,2032
2050,2050,2028,2064,2033,2001,2056,2028
2054,2047,2030,2055,1995,2013,2061,2022
2055,2044,2028,2056,1986,2027,2051,2024
2054,2045,2038,2049,1961,2041,2054,2024
2053,2051,2044,2050,1932,2057,2052,2016
2056,2052,2053,2052,1912,2078,2047,2018
2058,2052,2056,2045,1891,2115,2042,2009
2040,2030,2047,2025,1902,2157,2034,2008
2036,2031,2045,2022,1915,2194,2040,2010
2041,2040,2065,2034,1950,2195,2063,2018
2033,2049,2068,2052,2041,2142,2024,2015
2032,2050,2073,2066,2172,2039,2000,2012
2040,2055,2071,2081,2270,2025,2033,2017
2042,2057,2066,2074,2246,2040,2016,2024
2043,2056,2065,2067,2204,2037,2014,2035
2043,2048,2056,2053,2195,2032,2052,2037
2046,2042,2045,2051,2192,2011,2038,2045
2043,2047,2052,2054,2136,2006,2037,2052
2046,2044,2047,2039,2045,2002,2032,2051
2033,2042,2042,2035,2051,2038,2038,2048
2033,2042,2043,2045,2086,2061,2058,2055
2043,2049,2056,2072,2132,2082,2051,2069
2052,2060,2063,2081,2129,2078,2039,2075
2049,2054,2050,2053,2089,2058,2049,2074
2039,2042,2043,2046,2091,2028,2028,2068
2034,2044,2042,2047,2106,2032,2033,2067
2047,2052,2054,2057,2077,2027,2018,2064
2046,2052,2052,2047,2008,2025,2039,2064
2048,2054,2052,2054,2072,2039,2043,2051
2044,2053,2052,2051,2120,2050,2047,2047
2049,2058,2052,2051,2118,2055,2038,2038
2059,2060,2054,2056,2121,2047,2043,2032
2062,2059,2053,2054,2121,2035,2017,2034
2060,2061,2057,2047,2057,2033,2021,2032
2061,2067,2058,2051,2042,2053,2015,2028
2065,2073,2060,2066,2025,2106,2014,2034
2058,2067,2062,2066,1954,2135,2045,2032
2055,2066,2051,2042,1798,2134,2049,2029
2056,2061,2054,2035,1745,2106,2033,2034
2055,2065,2055,2035,1812,2005,2044,2028
2062,2068,2053,2030,1855,1935,2042,2016
2048,2050,2043,2016,1910,1966,2016,2003
2040,2052,2044,2025,2035,2034,2048,2013
2051,2057,2048,2044,2070,2063,2051,2015
2050,2061,2042,2028,1973,2062,2068,2015
2042,2045,2030,2003,1956,2019,2047,2015
2041,2045,2027,2012,2001,1973,2039,2023
2041,2038,2027,2030,2050,1998,2071,2027
2041,2040,2032,2078,2203,2070,2080,2032
2041,2042,2033,2120,2370,2156,2084,2037
2043,2041,2040,2153,2454,2196,2083,2031
2042,2032,2034,2117,2347,2168,2054,2024
2034,2027,2028,2052,2163,2110,2059,2037
2032,2030,2022,2003,2034,2083,2035,2048
2033,2039,2030,2003,2037,2059,2049,2056
2040,2041,2033,2030,2109,2059,2044,2066
2036,2043,2035,2043,2019,2051,2029,2060
2035,2028,2019,2043,2029,2060,2037,2051
2031,2024,2017,2044,2024,2055,2030,2061
2039,2034,2030,2046,1973,2041,2056,2071
2052,2046,2048,2060,2015,2043,2042,2076
2058,2059,2057,2066,2041,2031,2022,2062
2054,2062,2051,2056,2017,1994,2024,2053
2056,2055,2051,2046,2010,1957,2041,2045
2060,2064,2065,2068,2132,1955,2060,2053
2071,2079,2077,2083,2171,1959,2052,2054
2073,2075,2077,2079,2107,1954,2053,2036
2068,2071,2065,2055,2007,1957,2033,2014
2056,2064,2050,2041,1916,1965,2037,2015
2056,2057,2048,2044,1886,1994,2049,2012
2058,2055,2042,2040,1888,2041,2047,2008
2053,2051,2037,2042,1944,2087,2044,2018
2053,2062,2053,2072,2054,2113,2071,2029
2069,2074,2061,2096,2158,2124,2070,2029
2070,2068,2057,2097,2237,2112,2066,2027
2060,2058,2049,2087,2207,2098,2051,2029
2063,2069,2047,2070,2147,2068,2050,2026
2057,2057,2044,2053,2093,2062,2057,2019
2058,2057,2043,2048,2041,2048,2047,2014
2045,2054,2035,2023,1887,2016,2034,2016
2040,2039,2026,1997,1873,2001,2007,2021
2050,2038,2033,2006,1918,2013,2023,2032
2052,2042,2031,2016,1931,2007,2041,2039
2047,2036,2026,2011,1924,2010,2030,2039
2048,2037,2031,2001,1875,2018,2029,2048
2052,2041,2035,2019,1878,2024,2032,2053
2056,2039,2041,2025,1974,2024,2029,2045
2044,2031,2029,2039,2012,2028,2035,2053
2046,2030,2033,2074,2083,2057,2051,2058
2044,2034,2028,2091,2176,2064,2045,2055
2031,2026,2019,2091,2220,2037,2020,2042
2025,2017,2023,2087,2223,2034,2032,2049
2029,2025,2030,2079,2174,2041,2043,2065
2046,2043,2039,2078,2131,2040,2037,2072
2051,2051,2041,2074,2122,2046,2050,2062
2056,2051,2040,2065,2103,2043,2057,2054
2050,2050,2035,2054,2071,2043,2042,2048
2044,2044,2034,2060,2090,2056,2033,2038
2044,2039,2044,2061,2041,2056,2014,2020
2041,2033,2042,2040,1958,2063,2003,2000
2030,2031,2036,2031,1948,2062,1982,1988
2023,2031,2040,2029,1955,2055,2001,1990
2028,2031,2032,2029,1977,2059,2018,1993
2036,2027,2024,2042,2017,2050,2040,2010
2040,2032,2038,2068,2092,2061,2058,2016
2055,2052,2062,2107,2162,2087,2063,2022
2061,2058,2082,2133,2173,2103,2072,2023
2060,2056,2080,2112,2134,2091,2041,2013
2052,2042,2071,2105,2112,2089,2041,2002
2045,2052,2071,2106,2092,2081,2038,2010
2055,2049,2056,2100,2086,2075,2060,2009
2045,2046,2044,2093,2085,2061,2032,2003
2047,2044,2039,2089,2075,2038,2010,2008
2039,2050,2035,2080,2069,1997,2029,2013
2040,2045,2025,2071,2070,2018,2026,2014
2039,2049,2013,2056,2073,2056,2021,2024
2038,2050,2009,2042,2064,2064,2030,2032
2044,2044,2018,2036,2049,2021,2022,2034
2049,2046,2020,2018,2030,2001,2010,2047
2051,2044,2017,1997,2023,2020,2010,2060
2046,2052,2027,1990,2022,2048,2002,2059
2050,2064,2063,2008,2030,2067,2015,2062
2058,2081,2092,2020,2047,2084,2034,2056
2063,2086,2114,2024,2080,2084,2022,2065
2058,2080,2090,2016,2087,2055,2010,2072
2063,2075,2072,2012,2084,2029,2029,2072
2070,2072,2078,2024,2083,2015,2046,2059
2063,2076,2078,2028,2070,1972,2015,2059
2058,2064,2078,2036,2057,1970,2028,2056
2056,2067,2076,2038,2054,1989,2025,2053
2056,2064,2069,2042,2051,2016,2045,2046
2056,2060,2065,2044,2048,2034,2040,2036
2048,2053,2051,2049,2041,2045,2046,2029
2042,2050,2043,2042,2051,2054,2037,2020
2044,2039,2036,2039,2044,2060,2058,2020
2042,2039,2025,2032,2052,2062,2053,2014
2036,2035,2025,2032,2056,2065,2041,2011
2034,2033,2019,2039,2061,2075,2063,2018
2043,2038,2026,2041,2069,2074,2057,2024
2053,2044,2025,2043,2074,2069,2054,2022
2047,2046,2022,2038,2067,2051,2021,2006
2041,2036,2008,2036,2058,2050,2012,1998
2036,2033,1999,2037,2068,2053,2020,2003
2041,2048,2009,2042,2070,2055,2040,2007
2038,2048,2005,2052,2071,2066,2035,1995
2034,2045,1996,2053,2067,2070,2039,2009
2033,2048,1997,2045,2068,2096,2027,2017
2041,2051,1999,2057,2068,2136,2044,2034
2039,2053,2001,2060,2077,2130,2046,2035
2045,2056,2013,2067,2079,2078,2058,2037
2040,2053,2017,2074,2075,1992,2048,2034
2040,2052,2028,2074,2074,2000,2050,2041
2034,2052,2034,2073,2078,2045,2043,2053
2036,2048,2049,2082,2083,2073,2051,2051
2033,2042,2047,2076,2058,2079,2043,2052
2036,2045,2053,2077,2061,2067,2043,2057
2027,2045,2061,2083,2071,2052,2046,2055
2029,2040,2057,2076,2062,2039,2014,2054
2022,2042,2059,2080,2068,2047,2023,2054
2030,2047,2064,2090,2070,2062,2023,2052
2032,2046,2069,2090,2069,2071,2051,2048
2034,2040,2068,2086,2066,2084,2037,2044
2035,2041,2067,2083,2062,2081,2036,2034
2034,2041,2068,2084,2065,2083,2035,2028
2030,2042,2066,2076,2057,2067,2044,2014
2033,2047,2063,2082,2048,2035,2041,2021
2027,2050,2061,2084,2050,2012,2037,2019
2044,2062,2068,2088,2053,2016,2033,2017
2050,2062,2058,2090,2058,2025,2044,2017
2046,2063,2046,2082,2056,2041,2052,2019
2050,2055,2033,2065,2055,2044,2054,2020
2046,2051,2026,2052,2047,2042,2024,2007
2052,2042,2029,2050,2042,2040,2056,2012
2049,2045,2034,2054,2048,2042,2050,2014
2043,2039,2032,2047,2045,2050,2035,2008
2039,2032,2022,2030,2042,2042,2033,2000
2037,2038,2018,2030,2044,2058,2039,2012
2039,2045,2028,2042,2041,2062,2049,2014
2034,2047,2037,2050,2050,2070,2070,2018
2039,2045,2040,2053,2058,2080,2064,2021
2043,2050,2045,2054,2061,2085,2065,2027
2040,2049,2049,2054,2068,2072,2044,2037
2044,2051,2053,2057,2061,2049,2033,2035
2042,2049,2062,2050,2057,2036,2052,2041
2042,2049,2067,2055,2056,2033,2050,2043
2040,2050,2071,2055,2056,2035,2043,2047
2039,2054,2072,2060,2054,2035,2042,2052
2042,2059,2082,2062,2062,2031,2036,2066
2045,2063,2080,2064,2064,2030,2030,2063
2046,2060,2081,2060,2054,2042,2016,2065
2041,2054,2067,2062,2045,2056,2012,2055
2031,2041,2053,2049,2035,2064,2013,2048
2029,2039,2047,2047,2038,2033,2029,2053
2038,2048,2049,2056,2038,2005,2014,2046
2040,2044,2049,2054,2039,2001,2026,2047
2040,2045,2047,2060,2041,2018,2046,2046
2040,2047,2043,2058,2037,2020,2026,2040
2035,2044,2043,2050,2038,2014,2008,2029
2041,2049,2046,2057,2032,2008,2015,2028
2043,2047,2047,2058,2045,2023,2035,2028
2041,2049,2049,2060,2042,2023,2025,2026
2046,2046,2050,2059,2042,2024,2025,2026
2045,2052,2049,2062,2048,2025,2026,2019
2043,2051,2047,2065,2052,2036,2028,2020
2040,2047,2042,2063,2048,2034,2007,2013
2036,2045,2040,2055,2055,2053,2009,2010
2034,2044,2038,2054,2052,2068,2019,2006
2038,2040,2036,2053,2057,2097,2019,2003
2023,2028,2024,2046,2051,2116,2012,2005
2032,2031,2020,2046,2052,2108,2050,2007
2036,2043,2028,2049,2048,2089,2039,2010
2025,2037,2030,2051,2050,2062,2034,2006
2034,2042,2037,2054,2055,2062,2049,2013
2040,2054,2042,2068,2067,2065,2029,2018
2041,2053,2040,2072,2060,2065,2039,2022
2037,2053,2043,2067,2063,2072,2043,2026
2039,2048,2036,2061,2068,2076,2042,2035
2045,2057,2041,2064,2069,2084,2058,2047
2052,2059,2058,2064,2074,2086,2060,2059
2054,2068,2066,2070,2070,2085,2066,2067
2056,2061,2065,2070,2077,2082,2059,2066
2052,2065,2068,2072,2068,2070,2042,2068
2047,2068,2061,2066,2058,2068,2048,2073
2046,2057,2061,2068,2066,2066,2058,2075
2044,2058,2052,2057,2055,2051,2045,2072
2043,2054,2052,2055,2055,2056,2050,2068
2049,2056,2052,2063,2055,2050,2055,2067
2050,2056,2051,2061,2051,2045,2040,2056
2051,2057,2053,2057,2048,2038,2043,2052
2049,2057,2055,2064,2048,2043,2047,2043
2050,2061,2052,2061,2052,2048,2041,2043
2057,2057,2054,2060,2055,2051,2034,2035
2057,2056,2052,2064,2057,2055,2031,2030
2051,2057,2044,2055,2053,2060,2027,2027
2053,2053,2041,2044,2042,2059,2039,2025
2054,2052,2043,2046,2035,2049,2043,2024
2049,2056,2044,2046,2033,2034,2026,2016
2053,2057,2047,2045,2039,2037,2017,2013
2054,2052,2045,2053,2041,2028,2038,2005
2049,2055,2047,2053,2048,2036,2035,2010
2055,2062,2049,2058,2055,2047,2040,2010
2042,2046,2039,2048,2052,2038,2038,2000
2036,2039,2034,2044,2052,2044,2026,2009
2051,2051,2039,2052,2056,2058,2048,2018
2051,2053,2043,2052,2067,2053,2045,2022
2049,2057,2049,2051,2062,2045,2055,2021
2047,2057,2053,2052,2064,2049,2041,2024
2047,2059,2052,2056,2065,2061,2028,2027
2051,2060,2054,2062,2071,2072,2047,2034
2054,2063,2054,2066,2076,2081,2049,2034
2052,2062,2053,2061,2076,2085,2048,2040
2050,2055,2044,2056,2074,2072,2043,2042
2048,2053,2047,2060,2059,2053,2039,2036
2049,2050,2040,2052,2051,2051,2038,2043
2038,2049,2039,2052,2056,2054,2030,2040
2035,2043,2041,2051,2052,2053,2032,2047
2032,2042,2039,2048,2034,2041,2026,2050
2036,2042,2040,2038,2021,2024,2021,2052
2026,2033,2030,2034,2004,2024,2015,2051
2031,2038,2026,2032,2005,2029,2037,2054
2036,2042,2032,2029,2028,2057,2042,2055
2035,2044,2036,2048,2052,2074,2042,2060
2034,2050,2046,2058,2062,2062,2048,2047
2035,2053,2044,2057,2054,2043,2033,2042
2038,2054,2045,2054,2061,2048,2033,2036
2036,2055,2043,2056,2059,2043,2040,2040
2040,2048,2045,2047,2050,2062,2055,2022
2032,2047,2039,2045,2045,2066,2054,2020
2030,2051,2044,2043,2046,2066,2059,2022
2032,2052,2037,2044,2043,2078,2075,2017
2036,2052,2042,2051,2052,2090,2061,2025
2039,2057,2052,2063,2058,2062,2053,2026
2042,2063,2053,2060,2050,2057,2050,2026
2041,2064,2054,2066,2052,2064,2067,2021
2039,2058,2041,2053,2044,2095,2034,2016
2032,2048,2037,2051,2059,2132,2049,2008
2030,2044,2038,2054,2067,2161,2052,2015
2036,2050,2045,2058,2072,2136,2045,2023
2040,2052,2046,2057,2063,2015,2040,2021
2046,2054,2049,2054,2059,1969,2034,2025
2034,2053,2049,2061,2061,1962,2038,2032
2040,2052,2046,2065,2071,1965,2046,2039
2050,2055,2045,2075,2082,1995,2045,2041
2040,2055,2047,2076,2087,2025,2065,2047
2047,2052,2046,2070,2096,2054,2078,2059
2043,2041,2042,2071,2097,2068,2066,2056
2042,2046,2038,2061,2087,2073,2068,2056
2037,2040,2038,2058,2073,2050,2052,2064
2042,2039,2032,2056,2072,2038,2041,2064
2031,2041,2030,2051,2073,2024,2044,2066
2036,2038,2027,2050,2064,2028,2032,2059
2030,2033,2024,2041,2051,2030,2028,2060
2026,2032,2020,2039,2056,2034,2028,2052
2027,2047,2031,2045,2052,2051,2025,2040
2030,2043,2033,2044,2054,2050,2020,2042
2032,2045,2028,2042,2030,2048,2022,2039
2030,2050,2040,2053,2067,2041,2024,2039
2034,2058,2043,2052,2074,2031,2015,2040
2040,2056,2045,2054,2065,2031,2030,2028
2038,2057,2037,2050,2061,2060,2045,2023
2042,2057,2038,2052,2069,2089,2053,2025
2045,2056,2043,2055,2077,2092,2061,2030
2042,2056,2040,2053,2088,2094,2060,2025
2044,2054,2043,2041,2060,2072,2062,2019
2049,2055,2041,2050,2078,2073,2058,2020
2044,2050,2042,2053,2074,2069,2073,2019
2044,2049,2045,2051,2062,2041,2061,2020
2043,2045,2049,2050,2034,1999,2042,2002
2028,2035,2042,2038,2023,1981,2030,1999
2027,2027,2036,2041,2033,1979,2020,2008
2026,2043,2045,2051,2044,1999,2021,2014
2037,2050,2050,2050,2045,2030,2022,2025
2045,2058,2060,2045,2031,2053,2027,2020
2047,2060,2067,2044,2012,2060,2008,2018
2044,2065,2069,2049,2019,2061,2005,2030
2050,2067,2072,2052,2055,2064,2023,2050
2053,2065,2066,2053,2070,2072,2043,2058
2049,2059,2066,2064,2080,2069,2047,2054
2044,2061,2064,2063,2094,2074,2065,2060
2038,2060,2057,2066,2087,2083,2085,2056
2040,2054,2053,2049,2049,2085,2070,2059
2033,2048,2043,2025,1976,2088,2061,2055
2028,2046,2034,2013,1912,2081,2052,2057
2033,2043,2035,2007,1886,2074,2042,2055
2022,2033,2023,1993,1875,2058,2035,2051
2030,2033,2025,2008,1961,2053,2049,2077
2042,2059,2059,2072,2099,2076,2084,2095
2063,2075,2069,2102,2190,2032,2102,2101
2072,2075,2075,2111,2217,2039,2117,2086
2068,2071,2067,2101,2206,2102,2112,2083
2057,2067,2059,2085,2160,2084,2092,2064
2054,2060,2054,2076,2121,2062,2061,2043
2053,2058,2052,2070,2092,2044,2062,2036
2045,2056,2044,2062,2072,2043,2050,2022
2044,2051,2035,2044,2035,2020,2018,2005
2036,2039,2031,2045,2024,2016,2021,2012
2028,2042,2024,2036,2030,2064,2042,2010
2029,2043,2033,2033,2038,2102,2070,2013
2038,2043,2031,2032,2034,2088,2057,2004
2039,2054,2032,2037,2027,2067,2049,2007
2040,2052,2034,2032,2009,2059,2052,1997
2025,2041,2030,2038,2019,2025,2050,2019
2037,2038,2024,2042,2054,1994,2071,2033
2047,2048,2033,2040,2081,2038,2054,2032
2044,2039,2029,2044,2103,2076,2057,2035
2044,2037,2031,2054,2102,2090,2069,2026
2040,2036,2032,2048,2099,2096,2065,2028
2035,2030,2032,2038,2083,2087,2074,2036
2036,2033,2031,2039,2072,2071,2086,2046
2038,2031,2039,2037,2072,2068,2078,2055
2035,2039,2046,2040,2130,2059,2060,2060
2030,2037,2043,2046,2149,2030,2067,2061
2034,2030,2042,2046,2116,1988,2041,2061
2030,2028,2045,2052,2103,1940,2024,2065
2031,2026,2041,2044,2060,1896,2018,2061
2030,2030,2035,2034,2015,1887,2018,2071
2030,2030,2035,2033,2005,1960,2027,2069
2026,2033,2035,2040,1992,2029,2022,2064
2032,2036,2033,2044,1900,2028,2000,2063
2032,2042,2031,2016,1822,2011,1994,2063
2035,2043,2032,2003,1846,2016,2017,2067
2043,2052,2032,2023,1960,2047,2037,2070
2044,2049,2040,2036,2007,2069,2041,2063
2049,2051,2047,2049,2036,2090,2078,2071
2053,2057,2047,2049,2086,2118,2086,2052
2054,2060,2036,2034,2106,2134,2074,2037
2054,2056,2033,2026,2079,2121,2056,2033
2044,2055,2041,2026,2039,2126,2069,2025
2052,2057,2050,2031,2022,2101,2066,2020
2047,2059,2053,2043,2040,2045,2067,2036
2048,2060,2060,2074,2102,2037,2071,2035
2050,2063,2066,2074,2112,2060,2070,2035
2053,2058,2061,2072,2106,2087,2072,2035
2053,2051,2053,2054,2069,2070,2057,2026
2038,2038,2045,2054,2044,2056,2034,2018
2039,2040,2053,2053,2029,2059,2043,2027
2047,2050,2063,2053,1993,2022,2044,2027
2053,2055,2070,2046,1993,2007,2042,2039
2045,2064,2079,2043,2002,2012,2043,2032
2044,2067,2077,2031,2012,2026,2041,2031
2051,2064,2075,2041,2055,2043,2022,2050
2062,2078,2082,2059,2104,2062,2058,2052
2062,2077,2082,2064,2134,2084,2059,2058
2052,2068,2080,2065,2145,2077,2056,2071
2056,2070,2066,2059,2120,2065,2058,2078
2054,2061,2050,2051,2113,2118,2073,2082
2043,2046,2034,2043,2111,2101,2074,2082
2036,2043,2029,2042,2094,2038,2062,2079
2049,2043,2030,2037,2082,2030,2044,2077
2050,2039,2027,2036,2070,2041,2039,2070
2042,2032,2019,2028,2064,2042,2037,2081
2032,2025,2013,2028,2062,2042,2041,2086
2041,2037,2019,2026,2056,2048,2037,2078
2041,2035,2017,2018,2034,2044,2045,2076
2040,2038,2013,2007,1983,2027,2040,2067
2038,2034,2013,2020,1992,2043,2049,2070
2042,2035,2017,2019,2009,2049,2048,2066
2037,2038,2020,2017,2014,2035,2041,2057
2044,2037,2014,2018,2057,2038,2022,2051
2045,2041,2021,2030,2092,2033,2047,2052
2053,2045,2026,2032,2073,2025,2054,2053
2057,2052,2035,2028,2056,2025,2068,2050
2061,2054,2035,2034,2056,2038,2071,2045
2060,2052,2033,2017,2033,2055,2063,2034
2054,2048,2026,2012,1996,2055,2059,2026
2053,2039,2030,2020,1964,2057,2053,2023
2048,2038,2022,2011,1979,2040,2042,2019
2035,2036,2025,2015,1968,2017,2022,2016
2044,2046,2042,2038,1996,1985,2061,2041
2054,2056,2043,2058,2039,1991,2063,2044
2048,2050,2043,2068,2048,2022,2052,2049
2054,2052,2050,2083,2081,2046,2070,2049
2049,2048,2057,2092,2119,2052,2056,2047
2053,2044,2052,2070,2080,2047,2067,2055
2045,2043,2042,2057,2058,2056,2072,2061
2050,2044,2040,2056,2042,2051,2071,2072
2055,2046,2037,2066,2021,2018,2062,2084
2056,2058,2040,2070,2016,2018,2054,2088
2055,2062,2035,2075,2030,2029,2053,2095
2056,2062,2039,2076,2045,2060,2060,2091
2047,2047,2015,2054,2080,2100,2073,2081
2035,2036,1993,2037,2088,2136,2074,2075
2035,2024,1985,2012,2066,2148,2061,2068
2023,2025,1990,2008,2062,2161,2070,2068
2036,2044,2020,2014,2062,2140,2063,2072
2045,2059,2038,2016,2058,2016,2045,2066
2052,2063,2044,2014,2050,1947,2046,2064
2054,2068,2052,2015,2072,1994,2046,2064
2061,2066,2059,2018,2085,2056,2026,2068
2056,2059,2051,2004,2048,2049,2051,2057
2052,2056,2047,2005,2012,2017,2035,2039
2056,2061,2066,2015,1996,2021,2041,2033
2048,2064,2084,2031,2016,2059,2049,2039
2045,2064,2091,2043,2024,2056,2034,2028
2048,2062,2084,2043,2022,2050,2040,2032
2043,2059,2071,2045,2031,2050,2066,2032
2047,2056,2064,2048,2059,1998,2072,2044
2053,2060,2068,2058,2094,1993,2069,2041
2047,2059,2074,2069,2148,2013,2071,2042
2046,2054,2072,2060,2130,1993,2054,2036
2047,2059,2083,2061,2076,1997,2058,2048
2055,2071,2086,2060,2041,2010,2073,2041
2060,2065,2084,2058,2036,2026,2061,2033
2060,2064,2073,2053,2064,2066,2068,2044
2057,2068,2069,2053,2071,2108,2086,2050
2050,2060,2060,2046,2064,2097,2080,2044
2053,2055,2053,2038,2044,2062,2032,2036
2045,2051,2048,2044,2056,2054,2040,2031
2046,2050,2056,2050,2059,2073,2038,2042
2050,2052,2044,2047,2050,2090,2045,2055
2044,2047,2048,2041,2044,2089,2044,2062
2049,2047,2047,2029,2033,2060,2034,2061
2048,2047,2043,2013,2032,2053,2051,2065
2038,2037,2035,2008,2018,2031,2066,2066
2035,2033,2030,2009,2020,1983,2042,2065
2026,2035,2035,2019,2050,1980,2055,2075
2035,2040,2046,2040,2079,2017,2062,2080
2050,2046,2051,2039,2074,2045,2070,2082
2047,2047,2050,2045,2072,2056,2075,2079
2050,2053,2067,2049,2052,2054,2069,2070
2054,2051,2073,2056,2044,2054,2076,2067
2051,2046,2073,2055,2042,2063,2072,2060
2056,2044,2067,2054,2040,2077,2083,2056
2055,2049,2070,2050,2054,2100,2090,2060
2059,2051,2072,2059,2097,2126,2081,2057
2057,2056,2072,2049,2148,2180,2096,2055
2074,2064,2078,2056,2173,2188,2080,2053
2067,2062,2071,2063,2173,2134,2060,2043
2063,2053,2060,2064,2142,2006,2031,2022
2046,2051,2049,2054,2084,1950,2013,2018
2050,2057,2034,2032,2032,1936,2013,2011
2045,2043,2028,2024,2008,1934,2002,2022
2040,2045,2025,2027,1980,1939,2012,2029
2056,2055,2029,2034,2003,1979,2024,2040
2061,2055,2039,2037,2046,2019,2029,2041
2058,2057,2051,2027,2024,2042,2045,2043
2055,2057,2062,2019,2050,2046,2058,2041
2058,2059,2059,2018,2088,2055,2068,2047
2051,2055,2052,2016,2075,2060,2063,2047
2048,2042,2038,1997,2044,2051,2066,2041
2039,2036,2034,2013,2045,2071,2071,2048
2039,2039,2043,2023,2028,2085,2080,2053
2041,2034,2045,2011,1985,2082,2077,2063
2044,2036,2058,2021,2010,2057,2068,2075
2043,2038,2058,2030,2023,2025,2045,2077
2045,2040,2053,2030,2016,2023,2046,2080
2042,2044,2042,2022,2025,2036,2023,2068
2033,2025,2026,2017,2046,2060,2030,2062
2030,2028,2026,2015,2050,2074,2024,2070
2044,2040,2035,2016,2054,2095,2027,2072
2052,2054,2039,2019,2010,2082,2050,2072
2057,2056,2037,2035,2018,1998,2027,2064
2057,2062,2034,2024,1992,1975,2039,2052
2043,2055,2026,2015,1958,1992,2042,2050
2053,2056,2035,2017,1958,2078,2078,2044
2055,2059,2032,2031,1975,2125,2077,2040
2047,2052,2025,2027,1979,2042,2071,2042
2045,2048,2024,2039,2036,1996,2088,2043
2053,2046,2026,2044,2061,2023,2074,2037
2048,2053,2037,2035,2062,2041,2069,2026
2055,2054,2046,2031,2066,2038,2064,2020
2048,2052,2041,2019,2074,2030,2048,2031
2055,2047,2038,2019,2061,2028,2046,2020
2037,2032,2036,2016,2025,2032,2037,2019
2047,2032,2034,2021,2008,2038,2035,2025
2056,2049,2045,2028,2004,2042,2041,2028
2061,2047,2055,2026,2016,2042,2046,2023
2050,2057,2062,2031,2064,2047,2049,2026
2056,2050,2059,2046,2077,2054,2052,2025
2055,2054,2058,2043,2068,2048,2021,2037
2057,2047,2058,2045,2056,2048,2036,2037
2048,2052,2053,2038,2046,2050,2044,2051
2049,2052,2055,2033,2046,2057,2063,2058
2056,2049,2048,2030,2083,2068,2068,2057
2058,2047,2050,2038,2100,2077,2076,2065
2048,2040,2047,2040,2081,2066,2073,2077
2052,2040,2044,2030,2056,2059,2076,2083
2048,2039,2041,2027,2038,2046,2064,2080
2043,2032,2040,2016,2011,2026,2045,2068
2035,2027,2022,2024,2044,2031,2037,2071
2040,2025,2025,2034,2071,2034,2049,2070
2051,2038,2033,2035,2047,2017,2026,2058
2049,2038,2029,2035,2032,2016,2035,2061
2052,2048,2036,2040,2042,2042,2044,2069
2053,2052,2041,2036,2040,2064,2064,2064
2056,2049,2045,2032,2043,2081,2069,2061
2049,2050,2038,2030,2034,2085,2075,2054
2054,2043,2039,2027,2031,2069,2060,2050
2054,2044,2045,2031,2035,2023,2049,2040
2053,2044,2044,2031,2036,2009,2043,2030
2054,2048,2040,2031,2034,2025,2040,2033
2054,2051,2043,2034,2046,2028,2044,2026
2055,2048,2041,2030,2041,2047,2050,2029
2052,2049,2038,2035,2045,2048,2046,2031
2056,2044,2038,2030,2041,2039,2040,2017
2041,2030,2035,2017,2012,2018,2035,2014
2031,2029,2033,2011,2003,2014,2038,2022
2042,2043,2043,2022,2000,2022,2056,2026
2043,2047,2046,2030,1980,2009,2048,2032
2049,2043,2054,2033,1960,2005,2052,2026
2041,2043,2047,2023,1970,2015,2052,2022
2048,2042,2046,2031,1998,2051,2042,2029
2056,2046,2056,2040,2012,2070,2052,2040
2055,2046,2055,2041,2008,2063,2048,2049
2055,2041,2051,2039,2011,2061,2025,2051
2049,2041,2044,2033,1995,2016,2033,2059
2050,2039,2052,2044,2043,2001,2053,2074
2048,2040,2058,2057,2122,2022,2060,2084
2050,2045,2052,2065,2150,2042,2058,2083
2057,2041,2050,2057,2147,2058,2057,2087
2053,2036,2036,2050,2138,2071,2058,2080
2041,2022,2020,2033,2110,2072,2056,2076
2036,2012,2014,2029,2084,2072,2069,2078
2038,2026,2028,2022,2079,2066,2060,2077
2048,2025,2030,2019,2052,2051,2055,2073
2041,2031,2025,2012,2031,2031,2057,2070
2042,2027,2029,2006,2024,2020,2044,2062
2053,2032,2036,2016,2028,2031,2043,2056
2057,2041,2040,2026,2028,2051,2065,2057
2059,2049,2042,2026,2036,2085,2076,2049
2058,2049,2047,2027,2052,2094,2071,2038
2066,2046,2051,2031,2073,2098,2069,2039
2069,2048,2050,2040,2085,2099,2066,2030
2064,2047,2046,2040,2078,2070,2034,2030
2060,2045,2049,2043,2056,2011,2015,2025
2051,2041,2049,2041,2015,1990,2014,2023
2050,2041,2047,2039,2010,1998,2031,2017
2049,2031,2036,2026,1995,2012,2026,2015
2045,2027,2034,2024,2015,2027,2047,2024
2052,2039,2042,2035,2014,2040,2064,2029
2058,2038,2040,2036,2018,2032,2052,2036
2051,2048,2053,2047,2039,2038,2057,2038
2062,2056,2052,2049,2053,2041,2066,2046
2061,2054,2056,2050,2062,2037,2052,2047
2070,2054,2054,2045,2057,2036,2059,2047
2063,2052,2050,2030,2069,2054,2064,2048
2055,2043,2054,2040,2072,2059,2056,2055
2057,2046,2056,2051,2067,2059,2033,2052
2057,2049,2048,2048,2060,2070,2025,2062
2062,2048,2044,2048,2058,2059,2025,2078
2061,2051,2052,2043,2053,2067,2052,2088
2059,2050,2049,2046,2045,2055,2057,2089
2069,2052,2048,2045,2042,2046,2050,2091
2059,2041,2034,2035,2024,2025,2036,2085
2055,2036,2032,2033,2031,2024,2037,2083
2049,2040,2032,2034,2027,2031,2047,2082
2056,2039,2030,2034,2034,2034,2053,2076
2050,2036,2033,2035,2032,2043,2047,2074
2050,2037,2035,2038,2021,2030,2041,2061
2055,2038,2040,2029,2018,1998,2052,2053
2055,2038,2047,2028,2034,2019,2056,2052
2060,2046,2052,2038,2084,2067,2071,2052
2064,2057,2062,2041,2108,2097,2073,2054
2063,2057,2059,2041,2111,2109,2066,2046
2064,2050,2053,2039,2105,2111,2069,2043
2063,2050,2048,2033,2104,2069,2067,2047
2057,2049,2054,2035,2103,2072,2076,2045
2067,2052,2063,2041,2085,2099,2080,2038
2066,2053,2065,2051,2060,2148,2076,2028
2052,2047,2061,2043,1964,2149,2058,2016
2049,2035,2070,2042,1894,2128,2060,2021
2051,2046,2080,2060,1938,2036,2058,2015
2048,2044,2082,2067,1968,1911,2040,2013
2051,2041,2079,2071,1983,1928,2046,2023
2054,2041,2071,2069,1997,1970,2050,2032
2053,2033,2061,2069,2019,2002,2046,2038
2053,2040,2057,2077,2033,2030,2029,2041
2052,2037,2044,2085,2051,2064,2054,2049
2055,2039,2035,2069,2018,2090,2064,2057
2051,2032,2034,2064,2040,2070,2057,2057
2053,2036,2029,2063,2073,2044,2048,2060
2055,2040,2030,2061,2064,2030,2041,2077
2050,2040,2038,2061,2041,2034,2038,2073
2048,2037,2039,2065,2003,2004,2027,2069
2050,2030,2041,2056,1984,1997,2028,2068
2043,2024,2028,2023,1968,1993,2016,2066
2027,2010,2014,1972,1919,1998,2031,2060
2036,2020,2021,1962,1954,2019,2029,2063
2034,2028,2032,1976,1962,2045,2033,2060
2041,2034,2042,1979,1906,2040,2031,2055
2046,2043,2050,1996,1936,2007,2038,2066
2053,2040,2045,2018,2010,1982,2041,2061
2053,2044,2044,2031,2057,1991,2043,2053
2057,2048,2039,2034,2063,2020,2043,2050
2056,2045,2040,2040,2069,2056,2048,2049
2059,2048,2037,2045,2059,2083,2064,2046
2066,2049,2043,2048,2055,2083,2056,2047
2070,2060,2046,2054,2061,2076,2058,2053
2072,2057,2046,2052,2058,2070,2060,2051
2073,2056,2044,2045,2039,2070,2069,2045
2066,2050,2036,2033,2019,2072,2065,2040
2050,2036,2029,2011,1959,2052,2043,2022
2048,2035,2024,1999,1945,2012,2034,2014
2044,2045,2033,2013,1979,2026,2037,2021
2055,2056,2049,2040,2015,2031,2047,2033
2070,2070,2062,2059,2047,2017,2056,2044
2071,2069,2068,2082,2098,2096,2077,2054
2077,2073,2070,2086,2119,2151,2082,2063
2070,2069,2071,2097,2115,2109,2082,2056
2053,2056,2079,2106,2114,1978,2042,2045
2051,2053,2073,2098,2106,1963,2034,2054
2058,2042,2063,2085,2081,2000,2039,2062
2061,2035,2053,2071,2076,1997,2049,2065
2054,2031,2053,2072,2118,2014,2047,2069
2059,2039,2055,2076,2128,2032,2051,2073
2057,2042,2049,2060,2090,2022,2049,2075
2053,2036,2047,2036,2001,1973,2047,2074
2050,2031,2037,2034,1951,1972,2018,2075
2053,2027,2042,2043,1954,1999,2043,2070
2053,2034,2054,2046,1977,2012,2037,2070
2061,2033,2039,2039,2013,2026,2039,2071
2057,2032,2049,2051,2064,2070,2055,2068
2059,2037,2056,2060,2077,2115,2051,2068
2060,2045,2060,2054,2083,2130,2057,2056
2058,2039,2063,2047,2077,2114,2060,2049
2056,2036,2049,2045,2066,2094,2045,2046
2051,2041,2058,2053,2056,2087,2047,2038
2052,2048,2062,2059,2057,2084,2048,2040
2055,2046,2062,2068,2044,2073,2042,2034
2055,2046,2063,2062,2023,2057,2029,2035
2057,2045,2066,2078,2043,2050,2026,2025
2056,2044,2068,2083,2089,2023,2045,2017
2055,2037,2061,2080,2100,2017,2027,2018
2043,2022,2045,2061,2097,2026,2016,2019
2045,2026,2046,2056,2079,2040,2036,2030
2056,2043,2058,2068,2077,2057,2060,2033
2060,2043,2064,2064,2084,2073,2044,2041
2061,2048,2052,2059,2087,2080,2072,2043
2064,2045,2047,2050,2055,2072,2057,2043
2060,2036,2043,2022,2008,2090,2054,2046
2053,2034,2057,2010,1883,2106,2054,2050
2056,2043,2060,2018,1896,2117,2064,2052
2059,2052,2069,2027,1950,2146,2063,2058
2060,2053,2077,2032,2011,2116,2066,2069
2068,2071,2095,2067,2067,2047,2050,2079
2068,2075,2091,2045,2028,2023,2032,2073
2055,2061,2080,2020,1990,2028,2033,2075
2054,2055,2074,2011,1966,2049,2050,2078
2053,2054,2065,2008,1965,2048,2037,2059
2041,2034,2045,2000,1988,2027,2026,2066
2040,2043,2056,2009,2020,2002,2051,2088
2057,2062,2074,2020,2010,1978,2053,2077
2063,2060,2072,2019,1956,1962,2038,2077
2063,2058,2068,2033,1976,1984,2046,2070
2061,2052,2064,2040,2030,2015,2054,2064
2058,2052,2057,2037,2055,2043,2047,2049
2053,2048,2058,2039,2054,2063,2040,2044
2056,2049,2063,2045,2038,2032,2048,2037
2050,2046,2063,2030,1985,1968,2018,2028
2054,2047,2058,2029,1967,1959,2034,2028
2054,2041,2056,2037,1972,1993,2035,2022
2046,2033,2044,2030,1982,2031,2037,2014
2046,2037,2047,2039,1973,2045,2044,2007
2048,2040,2056,2044,1993,2053,2034,2012
2050,2039,2065,2053,2013,2036,2029,2015
2041,2033,2056,2069,2059,1981,2053,2032
2048,2044,2071,2083,2123,2001,2065,2043
2060,2054,2080,2100,2140,2040,2060,2045
2059,2056,2078,2093,2142,2069,2055,2050
2059,2063,2073,2090,2119,2059,2054,2048
2064,2059,2067,2082,2106,2060,2055,2043
2062,2047,2058,2078,2103,2069,2041,2044
2054,2051,2052,2070,2098,2075,2053,2049
2054,2049,2044,2061,2095,2071,2056,2048
2053,2046,2046,2057,2070,2050,2056,2051
2049,2046,2048,2048,2064,2049,2056,2057
2057,2051,2059,2049,2055,2049,2058,2065
2061,2049,2055,2046,2058,2052,2055,2075
2058,2054,2053,2040,2049,2054,2047,2078
2060,2045,2056,2037,2053,2060,2052,2080
2056,2048,2044,2032,2042,2056,2030,2073
2041,2027,2033,2018,2035,2051,2030,2077
2044,2028,2027,2028,2025,2057,2014,2078
2051,2039,2034,2038,2045,2066,2015,2081
2053,2039,2039,2045,2085,2066,2020,2069
2055,2045,2044,2049,2115,2067,2041,2062
2058,2039,2045,2052,2146,2076,2043,2061
2058,2044,2047,2052,2138,2077,2051,2058
2052,2044,2048,2054,2135,2067,2027,2053
2050,2044,2047,2056,2142,2058,2041,2042
2053,2043,2044,2043,2097,2033,2014,2042
2053,2037,2039,2041,2070,2014,2034,2035
2054,2039,2044,2050,2082,2023,2056,2042
2051,2048,2048,2056,1994,1996,2054,2049
2057,2045,2049,2050,1926,1999,2048,2054
2056,2050,2054,2051,1951,2013,2054,2051
2062,2051,2058,2058,1973,2016,2059,2045
2052,2040,2048,2047,1949,2043,2049,2045
2055,2038,2043,2033,1927,2096,2067,2034
2062,2036,2046,2018,1888,2146,2081,2029
2052,2035,2039,1988,1794,2156,2075,2025
2053,2040,2037,1989,1765,2087,2062,2054
2061,2052,2052,2026,1880,2049,2059,2061
2074,2068,2063,2062,1990,2034,2070,2055
2070,2064,2060,2068,2059,2011,2036,2043
2061,2056,2050,2060,2116,1999,2019,2026
2051,2048,2042,2061,2155,1983,2012,2023
2042,2039,2030,2066,2168,1981,2007,2028
2035,2028,2029,2069,2141,2009,2005,2032
2038,2025,2036,2069,2088,2032,2029,2047
2050,2037,2043,2065,2063,2051,2033,2066
2054,2039,2055,2068,2098,2068,2043,2075
2057,2045,2060,2078,2146,2082,2032,2081
2056,2044,2054,2072,2157,2069,2017,2089
2052,2044,2052,2063,2131,2067,2008,2081
2059,2057,2058,2044,2037,2036,2022,2073
2059,2051,2048,2043,1961,2025,2010,2059
2056,2047,2044,2032,1916,2010,2000,2055
2044,2041,2035,2038,1961,1979,2001,2053
2050,2042,2046,2060,2056,1966,2023,2057
2052,2043,2048,2056,2021,1966,2037,2051
2051,2042,2048,2052,2047,1990,2039,2053
2052,2043,2048,2056,2090,2011,2041,2045
2059,2047,2055,2063,2066,2021,2035,2050
2060,2055,2052,2061,2053,2041,2060,2051
2061,2054,2058,2056,2044,2064,2062,2056
2059,2053,2054,2062,2031,2085,2089,2046
2057,2050,2054,2051,2003,2097,2079,2040
2051,2044,2052,2053,1995,2085,2070,2036
2050,2034,2041,2042,1989,2079,2052,2034
2038,2031,2032,2023,1996,2064,2030,2020
2039,2031,2040,2042,2004,2024,2038,2020
2044,2036,2041,2062,2044,2003,2031,2022
2046,2038,2044,2064,2087,2047,2042,2032
2049,2044,2046,2053,2030,2095,2053,2034
2054,2044,2043,2036,1987,2055,2051,2035
2048,2040,2051,2036,2043,2036,2053,2038
2042,2042,2051,2043,2028,2025,2051,2036
2043,2037,2051,2052,2039,2029,2033,2036
2041,2038,2056,2073,2077,2045,2021,2052
2046,2042,2058,2080,2093,2051,2030,2056
2051,2040,2055,2077,2101,2058,2050,2068
2047,2035,2054,2062,2078,2064,2059,2078
2046,2034,2040,2049,2045,2067,2051,2086
2052,2041,2035,2058,2126,2076,2067,2079
2047,2040,2040,2067,2191,2063,2053,2077
2030,2027,2038,2061,2169,2048,2048,2074
2037,2026,2042,2069,2183,2062,2032,2070
2050,2040,2055,2064,2101,2069,2050,2078
2044,2044,2053,2043,1982,2064,2042,2073
2048,2051,2058,2038,1983,2053,2026,2065
2052,2059,2046,2023,1938,2001,2030,2059
2057,2062,2050,2023,1946,1981,2029,2059
2065,2065,2056,2032,1926,2007,2043,2054
2066,2069,2068,2018,1808,2033,2050,2051
2071,2080,2084,2066,1948,2080,2068,2058
2080,2082,2083,2088,2043,2072,2045,2068
2076,2076,2076,2076,2085,2062,2045,2064
2079,2077,2079,2083,2112,2089,2052,2058
2076,2067,2073,2113,2115,2138,2058,2041
2066,2050,2064,2118,2155,2189,2069,2030
2052,2045,2056,2102,2162,2192,2063,2031
2045,2034,2045,2078,2127,2155,2056,2025
2039,2035,2048,2077,2180,2143,2055,2024
2045,2058,2057,2073,2144,2068,2039,2036
2047,2057,2059,2057,2066,1969,2029,2046
2059,2059,2061,2036,1976,1910,2002,2040
2053,2053,2054,2019,1963,1918,2002,2039
2050,2048,2050,2028,2040,1983,2027,2031
2047,2044,2048,2046,2074,2047,2049,2037
2042,2045,2051,2061,2103,2068,2033,2043
2050,2048,2058,2064,2165,2090,2041,2044
2057,2053,2059,2052,2124,2095,2027,2051
2054,2053,2044,2022,1918,2042,2030,2057
2050,2043,2037,2009,1826,2048,2040,2065
2046,2044,2037,2020,1903,2086,2049,2073
2042,2039,2039,2027,1921,2073,2051,2075
2047,2035,2037,2026,1919,2021,2033,2073
2037,2025,2034,2019,1968,2003,2013,2069
2034,2029,2033,2039,2021,1938,2029,2078
2047,2042,2043,2055,2068,1971,2031,2071
2054,2048,2043,2055,2056,2022,2034,2071
2055,2047,2042,2060,2067,2076,2053,2079
2059,2056,2059,2094,2157,2113,2054,2078
2062,2060,2066,2089,2127,2100,2060,2063
2054,2055,2052,2074,2109,1990,2041,2053
2045,2045,2051,2099,2216,2003,2028,2046
2053,2046,2057,2115,2188,2067,2045,2045
2054,2043,2068,2099,2002,2052,2047,2041
2056,2046,2068,2084,1970,2024,2050,2040
2063,2049,2069,2105,2061,2010,2044,2037
2053,2053,2066,2120,2105,2014,2033,2029
2050,2049,2070,2121,2099,2061,2056,2034
2054,2049,2069,2115,2117,2086,2043,2021
2042,2037,2059,2096,2038,2070,2036,2019
2042,2042,2050,2075,1959,2052,2046,2018
2065,2059,2058,2096,2012,2056,2046,2029
2051,2048,2052,2077,2026,2049,2037,2013
2041,2037,2035,2035,1957,2029,2034,2014
2039,2036,2033,2039,2003,2036,2048,2025
2051,2037,2049,2076,2089,2063,2045,2037
2055,2047,2074,2101,2120,2101,2067,2040
2064,2058,2094,2115,2098,2126,2061,2050
2065,2063,2099,2101,2037,2121,2063,2057
2063,2064,2086,2057,1895,2055,2067,2068
2060,2065,2073,2047,1879,1965,2045,2084
2063,2057,2062,2054,1985,1982,2035,2091
2061,2054,2047,2064,2018,2016,2041,2092
2060,2051,2046,2073,2006,2045,2058,2092
2060,2052,2039,2070,2025,2070,2039,2091
2050,2042,2031,2028,1959,2033,2039,2077
2043,2034,2014,1966,1844,2016,2031,2068
2038,2036,2011,1949,1864,2025,2022,2062
2038,2032,2006,1973,2031,2010,2017,2061
2036,2029,2014,2030,2221,2004,2038,2066
2047,2033,2022,2037,2153,2025,2037,2050
2050,2033,2020,2000,1897,2017,2012,2031
2037,2027,2017,1987,1872,2046,2022,2029
2047,2040,2024,2015,1998,2093,2050,2038
2050,2047,2028,2018,2046,2086,2063,2041
2060,2058,2036,2029,2126,2076,2058,2040
2054,2055,2043,2020,2113,2091,2058,2045
2056,2054,2044,2011,2026,2082,2059,2040
2057,2055,2050,2028,2058,2086,2052,2038
2054,2055,2052,2050,2138,2088,2041,2033
2052,2059,2058,2058,2135,2081,2042,2030
2039,2050,2054,2057,2134,2087,2051,2027
2047,2041,2046,2054,2104,2064,2052,2029
2051,2054,2053,2056,2073,2046,2054,2036
2053,2057,2054,2055,2115,2034,2068,2039
2055,2052,2046,2049,2140,2016,2060,2037
2050,2053,2044,2062,2163,2015,2052,2044
2052,2058,2049,2059,2146,1986,2052,2047
2057,2058,2046,2040,2084,1943,2046,2042
2058,2054,2037,2018,1986,1965,2008,2038
2043,2042,2033,2032,1919,1991,2009,2042
2037,2037,2034,2058,1916,2014,2028,2056
2040,2039,2045,2092,2025,2053,2042,2069
2046,2034,2046,2086,2040,2071,2054,2072
2027,2032,2040,2072,2050,2099,2056,2055
2024,2030,2035,2074,2024,2092,2075,2076
2028,2027,2040,2044,1963,2067,2051,2070
2029,2023,2021,2006,1951,2044,2045,2069
2031,2013,2022,2016,2032,2057,2041,2075
2039,2032,2038,2042,2111,2061,2049,2073
2048,2041,2040,2054,2139,2051,2053,2070
2054,2050,2054,2063,2145,2052,2042,2067
2052,2050,2052,2071,2187,2067,2044,2059
2053,2050,2053,2074,2211,2069,2034,2058
2049,2051,2051,2073,2214,2059,2036,2049
2052,2059,2057,2077,2223,2053,2037,2040
2050,2055,2051,2082,2198,2073,2035,2034
2049,2062,2052,2062,2131,2082,2042,2025
2042,2045,2038,2008,1862,2070,2015,2007
2037,2039,2038,1978,1720,2049,2015,2008
2034,2041,2043,2014,1803,2008,2018,2015
2041,2047,2042,2023,1876,1993,2018,2008
2034,2038,2048,2037,1968,1965,2021,2024
2040,2047,2054,2067,2069,1984,2055,2034
2041,2046,2055,2082,2145,2004,2055,2035
2054,2054,2060,2084,2150,2022,2054,2044
2053,2051,2058,2085,2143,2058,2043,2031
2048,2046,2050,2085,2133,2090,2064,2034
2044,2046,2046,2065,2109,2094,2072,2023
2039,2043,2038,2056,2074,2074,2078,2036
2033,2038,2040,2054,1989,2032,2067,2040
2039,2037,2049,2047,1829,2012,2070,2053
2038,2033,2046,2039,1855,2024,2053,2052
2027,2030,2035,2049,1935,2035,2056,2058
2025,2036,2035,2062,1989,2043,2054,2067
2035,2034,2046,2067,2021,2049,2053,2079
2037,2040,2050,2062,1991,2046,2063,2079
2035,2032,2042,2069,2017,2068,2054,2082
2033,2030,2046,2067,2007,2059,2047,2073
2027,2026,2034,2042,2007,2051,2045,2076
2026,2028,2038,2035,2085,2051,2045,2078
2045,2045,2045,2061,2160,2065,2045,2074
2044,2049,2047,2071,2125,2053,2035,2069
2042,2051,2049,2073,2080,2051,2037,2062
2045,2046,2040,2059,2017,2035,2021,2049
2037,2032,2034,2051,2020,2037,2020,2042
2037,2027,2032,2053,2056,2042,2025,2030
2034,2028,2032,2071,2110,2074,2051,2034
2034,2032,2043,2076,2109,2101,2055,2038
2040,2039,2043,2056,2055,2100,2048,2033
2049,2041,2044,2051,2127,2105,2070,2028
2049,2042,2043,2066,2167,2099,2059,2031
2047,2050,2049,2065,2124,2083,2037,2020
2044,2042,2042,2041,2050,2044,2020,2023
2042,2045,2037,2042,2041,2021,2009,2020
2039,2042,2029,2038,2029,2027,2017,2008
2040,2034,2029,2039,1979,2006,2028,2020
2039,2043,2028,2032,1924,2013,2050,2024
2043,2045,2041,2039,1966,2040,2065,2033
2051,2052,2051,2060,2039,2050,2077,2051
2053,2054,2052,2057,2089,2033,2074,2044
2060,2057,2047,2055,2146,2008,2069,2049
2060,2060,2052,2072,2170,2041,2067,2054
2057,2058,2048,2083,2145,2070,2059,2058
2049,2051,2038,2062,2073,2101,2062,2056
2049,2038,2033,2041,2030,2094,2064,2052
2037,2036,2027,2025,1974,2065,2062,2055
2033,2028,2026,2013,1921,2009,2048,2065
2042,2037,2036,2030,1947,1968,2058,2082
2049,2041,2049,2063,2024,1996,2071,2078
2046,2043,2044,2067,2057,2022,2060,2077
2042,2032,2048,2070,2111,2062,2059,2079
2037,2039,2044,2075,2107,2068,2060,2075
2042,2047,2038,2068,2083,2057,2060,2076
2050,2033,2029,2061,2070,2056,2054,2067
2049,2042,2028,2060,2050,2052,2053,2056
2050,2039,2018,2058,2037,2056,2045,2053
2054,2035,2015,2053,2047,2050,2054,2049
2046,2035,2009,2051,2035,2052,2059,2038
2043,2037,2018,2058,2040,2050,2057,2036
2044,2038,2014,2057,2032,2053,2060,2036
2048,2036,2022,2057,2033,2061,2062,2034
2048,2044,2027,2056,2040,2056,2060,2031
2050,2038,2034,2056,2053,2044,2061,2026
2047,2040,2039,2057,2052,2040,2054,2029
2047,2040,2044,2047,2031,2031,2046,2022
2043,2040,2043,2042,2018,2027,2034,2016
2029,2021,2021,2028,2027,2040,2052,2015
2027,2025,2036,2044,2068,2058,2069,2026
2051,2042,2058,2061,2087,2071,2055,2029
2043,2047,2067,2067,2083,2066,2059,2037
2047,2053,2075,2078,2074,2058,2057,2038
2051,2053,2082,2075,2070,2042,2051,2045
2052,2065,2098,2091,2057,2041,2061,2056
2063,2070,2099,2090,2067,2043,2041,2063
2063,2069,2094,2084,2078,2046,2060,2064
2060,2064,2101,2082,2070,2040,2060,2069
2065,2064,2094,2074,2060,2034,2039,2083
2055,2057,2079,2057,2027,2022,2038,2077
2052,2056,2069,2060,2022,2024,2040,2079
2050,2054,2066,2065,2067,2050,2041,2084
2049,2050,2065,2073,2053,2054,2052,2087
2054,2061,2076,2067,2036,2052,2050,2095
2051,2055,2074,2064,2052,2060,2048,2092
2057,2059,2074,2070,2067,2069,2042,2090
2051,2063,2072,2061,2076,2060,2036,2085
2053,2057,2067,2049,2034,2037,2037,2070
2049,2052,2059,2028,1986,2005,2038,2060
2048,2052,2055,2034,1981,2000,2035,2059
2054,2055,2059,2056,2053,2029,2064,2058
2053,2060,2062,2064,2105,2096,2094,2069
2050,2055,2066,2069,2168,2121,2085,2063
2052,2051,2058,2068,2140,2109,2076,2055
2052,2050,2056,2065,2110,2117,2082,2044
2046,2045,2050,2062,2079,2100,2068,2041
2040,2044,2048,2057,2056,2088,2060,2031
2036,2040,2040,2044,2022,2054,2040,2021
2026,2033,2035,2021,1955,2009,2038,2013
2035,2026,2037,2060,2060,2018,2037,2013
2031,2018,2032,2066,2052,2010,2036,2010
2025,2022,2028,2054,2034,1963,2026,2012
2039,2036,2027,2068,2046,1911,2027,2016
2042,2041,2028,2068,2052,1943,2034,2020
2048,2042,2030,2075,2055,2012,2039,2021
2052,2041,2031,2077,2072,2074,2045,2031
2058,2044,2029,2084,2077,2131,2065,2039
2062,2041,2027,2075,2099,2149,2074,2046
2047,2037,2012,2073,2113,2153,2076,2048
2048,2034,2002,2056,2071,2159,2054,2059
2045,2033,2000,2049,2069,2182,2054,2066
2037,2033,1994,2038,2075,2226,2061,2070
2031,2029,1985,2034,2064,2205,2046,2075
2032,2025,1981,2044,2053,2116,2032,2078
2034,2036,1999,2076,2072,2001,2016,2092
2040,2042,2010,2084,2098,1964,2034,2085
2029,2035,2007,2064,2080,1891,2004,2078
2028,2028,2009,2047,2044,1912,2028,2074
2036,2037,2026,2052,2017,1975,2038,2064
2042,2049,2060,2080,2032,2008,2041,2055
2029,2047,2081,2055,1939,1980,2017,2043
2026,2048,2100,2047,1915,1964,2005,2038
2028,2056,2132,2060,1931,1969,2002,2036
2033,2065,2161,2074,1932,1975,2007,2037
2043,2069,2160,2084,1986,1970,2033,2042
2052,2079,2155,2105,2066,1984,2054,2056
2059,2079,2157,2125,2112,2020,2072,2048
2059,2080,2158,2142,2143,2082,2052,2042
2050,2071,2149,2140,2116,2117,2044,2021
2036,2057,2128,2126,2087,2132,2044,2010
2026,2054,2111,2121,2097,2148,2030,2004
2030,2046,2092,2120,2092,2148,2038,2010
2024,2030,2068,2102,2077,2126,2038,2000
2021,2031,2056,2098,2099,2121,2060,2007
2029,2043,2056,2103,2128,2104,2060,2013
2033,2044,2038,2093,2131,2083,2052,2008
2032,2040,2030,2071,2107,2062,2049,2013
2035,2045,2021,2047,2098,2051,2055,2013
2034,2044,2023,2028,2078,2056,2041,2018
2039,2043,2015,2008,2051,2034,2020,2018
2030,2038,2004,1988,1975,2026,2020,2023
2029,2039,2004,1983,2020,2044,2039,2035
2036,2036,2005,1994,2104,2044,2036,2040
2035,2032,2009,2007,2136,2044,2049,2053
2031,2029,2014,2020,2151,2060,2053,2064
2030,2035,2018,2031,2156,2046,2043,2072
2036,2032,2031,2043,2154,2040,2030,2075
2044,2046,2041,2051,2126,2046,2049,2078
2038,2049,2045,2041,2065,2050,2056,2077
2038,2040,2045,2027,1928,2029,2052,2074
2040,2049,2060,2029,1932,2034,2056,2078
2043,2062,2061,2033,1976,2060,2070,2075
2055,2069,2070,2040,2004,2097,2056,2072
2060,2076,2072,2035,2001,2108,2045,2061
2054,2076,2078,2038,2020,2107,2071,2061
2058,2070,2068,2035,2044,2102,2053,2048
2048,2067,2062,2039,2081,2095,2055,2032
2040,2064,2059,2055,2104,2104,2047,2017
2038,2055,2061,2056,2106,2108,2053,1999
2033,2053,2061,2063,2117,2083,2033,1992
2033,2057,2060,2072,2138,2019,2022,2000
2032,2058,2059,2071,2135,1971,2004,1992
2039,2058,2056,2061,2086,1946,1988,1996
2040,2054,2048,2045,2031,1973,2008,2004
2025,2043,2037,2013,1900,1974,2018,2005
2034,2044,2032,2010,1930,1996,2031,2008
2050,2061,2053,2048,2031,2037,2035,2015
2053,2060,2053,2056,2058,2047,2052,2028
2040,2055,2047,2050,2078,2027,2039,2024
2040,2053,2052,2051,2057,1993,2051,2030
2044,2054,2050,2047,2041,1978,2038,2030
2041,2050,2053,2041,2029,1980,2025,2023
2039,2049,2035,2024,1924,1989,2020,2033
2045,2054,2043,2042,1942,2035,2033,2052
2053,2067,2064,2073,2052,2073,2052,2058
2057,2065,2065,2076,2111,2089,2049,2064
2054,2059,2059,2073,2106,2079,2053,2072
2044,2053,2051,2066,2088,2066,2049,2074
2040,2046,2049,2059,2039,2056,2045,2066
2042,2039,2053,2054,1996,2050,2013,2068
2032,2024,2049,2044,1968,2032,2030,2067
2029,2023,2042,2042,1965,2041,2034,2072
2037,2038,2048,2050,1991,2047,2021,2065
2039,2035,2043,2051,2005,2051,2028,2061
2041,2041,2049,2055,1991,2063,2033,2069
2051,2046,2047,2060,2031,2080,2063,2064
2045,2053,2047,2064,2131,2086,2059,2062
2043,2053,2039,2064,2119,2084,2062,2049
2042,2044,2034,2060,2094,2077,2055,2043
2040,2044,2026,2056,2066,2066,2051,2034
2040,2043,2027,2077,2110,2095,2064,2040
2050,2047,2030,2089,2129,2086,2051,2030
2037,2044,2025,2075,2134,2062,2057,2026
2035,2038,2026,2060,2108,2063,2056,2023
2036,2044,2028,2042,2003,2051,2047,2026
2043,2049,2033,2023,2026,2034,2050,2026
2042,2040,2031,2027,2056,2034,2031,2019
2042,2043,2032,2026,2040,2026,2036,2020
2043,2053,2040,2029,2038,2011,2051,2024
2044,2051,2046,2023,2029,2008,2057,2026
2051,2054,2055,2039,2027,2016,2062,2031
2052,2058,2060,2039,2034,2031,2058,2034
2045,2061,2064,2039,2036,2058,2047,2032
2051,2053,2073,2046,2052,2068,2057,2036
2048,2055,2068,2046,2069,2075,2050,2048
2044,2053,2067,2058,2093,2052,2058,2055
2048,2055,2070,2072,2117,2029,2043,2065
2039,2051,2070,2076,2118,2036,2051,2065
2035,2053,2065,2067,2078,2049,2062,2062
2035,2045,2054,2054,2030,2059,2061,2067
2029,2040,2056,2045,1985,2075,2060,2075
2028,2043,2049,2037,1971,2064,2047,2072
2023,2037,2037,2018,1963,2026,2057,2082
2030,2037,2040,2043,2020,2027,2064,2097
2048,2058,2060,2064,2072,2054,2079,2097
2051,2061,2067,2071,2096,2066,2074,2086
2047,2063,2062,2066,2093,2050,2052,2070
2045,2056,2054,2049,2059,2021,2041,2064
2046,2058,2059,2045,2061,2030,2060,2057
2052,2056,2061,2050,2053,2047,2057,2052
2050,2056,2048,2051,2060,2062,2068,2045
2046,2053,2051,2057,2074,2066,2064,2047
2051,2051,2055,2061,2072,2067,2037,2045
2057,2052,2055,2057,2057,2070,2067,2044
2049,2060,2056,2043,2050,2072,2040,2043
2049,2059,2052,2045,2068,2072,2043,2036
2045,2061,2054,2055,2137,2077,2052,2036
2048,2054,2053,2053,2137,2055,2051,2030
2038,2046,2039,2022,2041,2031,2048,2015
2030,2046,2034,2012,1992,2068,2065,2019
2042,2058,2040,2025,2009,2088,2066,2022
2039,2053,2042,2037,2050,2089,2058,2025
2037,2058,2046,2047,2045,2084,2055,2027
2041,2058,2049,2052,2012,2000,2059,2036
2046,2057,2055,2042,1993,1970,2064,2050
2042,2059,2045,2025,1970,1978,2060,2057
2046,2056,2047,2022,1959,1969,2048,2052
2040,2055,2041,2029,1953,1974,2048,2058
2038,2054,2040,2014,1920,1957,2032,2051
2028,2040,2025,2006,1933,1965,2019,2054
2032,2039,2047,2059,2068,2022,2044,2064
2032,2047,2051,2085,2129,2074,2043,2065
2035,2044,2046,2084,2146,2104,2067,2064
2034,2041,2036,2074,2139,2115,2057,2064
2023,2033,2022,2064,2124,2096,2050,2075
2034,2038,2028,2061,2082,2071,2059,2093
2040,2056,2042,2065,2075,2045,2074,2097
2044,2059,2044,2065,2057,2032,2068,2074
2043,2056,2043,2059,2049,2046,2071,2066
2032,2047,2041,2057,2052,2057,2077,2058
2034,2050,2036,2051,2054,2047,2039,2056
2042,2058,2046,2052,2044,2044,2055,2056
2044,2057,2052,2057,2043,2050,2072,2047
2048,2062,2053,2058,2089,2069,2049,2046
2039,2059,2040,2060,2128,2055,2070,2038
2038,2051,2044,2063,2123,2045,2061,2042
2041,2054,2046,2060,2148,2061,2064,2033
2046,2052,2039,2056,2132,2046,2059,2032
2039,2049,2038,2043,2076,2019,2047,2032
2039,2045,2032,2035,2028,2012,2043,2013
2021,2031,2022,2028,1938,2012,2041,2006
2022,2021,2021,2035,1938,2040,2051,2014
2029,2037,2030,2063,2033,2064,2050,2019
2036,2039,2042,2075,2073,2077,2069,2028
2037,2048,2045,2071,2069,2071,2078,2030
2034,2040,2041,2069,2084,2059,2072,2039
2042,2042,2039,2062,2084,2051,2076,2040
2032,2041,2032,2057,2075,2042,2067,2046
2047,2043,2031,2060,2097,2042,2073,2052
2046,2051,2034,2072,2123,2050,2072,2059
2049,2057,2041,2076,2129,2043,2063,2073
2046,2067,2045,2069,2098,2038,2065,2078
2054,2060,2049,2061,2031,2028,2058,2088
2050,2059,2046,2059,2005,2034,2044,2091
2044,2058,2043,2059,2032,2042,2038,2085
2037,2057,2044,2056,2052,2050,2033,2082
2026,2042,2034,2055,2057,2074,2053,2079
2027,2042,2030,2061,2070,2078,2064,2081
2036,2054,2038,2061,2056,2083,2060,2078
2037,2050,2039,2058,2051,2088,2054,2069
2038,2049,2041,2052,2052,2078,2044,2064
2042,2053,2042,2044,2048,2025,2047,2051
2045,2064,2047,2052,2048,2001,2042,2055
2045,2056,2042,2048,2045,2017,2054,2049
2051,2058,2044,2038,2037,2021,2058,2038
2045,2049,2046,2035,2037,2014,2050,2039
2050,2051,2052,2031,2031,2021,2041,2041
2042,2050,2044,2036,2031,2033,2038,2042
2052,2051,2052,2037,2031,2032,2058,2049
2053,2053,2052,2039,2029,2033,2074,2044
2056,2061,2057,2035,2019,2021,2070,2049
2050,2058,2057,2036,2026,2027,2068,2035
2052,2047,2048,2037,2027,2028,2079,2036
2047,2046,2049,2043,2040,2028,2085,2044
2057,2060,2063,2055,2063,2008,2078,2035
2058,2060,2059,2055,2070,1996,2075,2049
2055,2055,2054,2057,2055,2016,2086,2047
2054,2060,2055,2064,2085,2060,2079,2050
2056,2062,2054,2070,2126,2103,2058,2050
2052,2060,2046,2068,2109,2113,2064,2054
2041,2049,2046,2061,2082,2117,2035,2052
2042,2043,2042,2058,2012,2106,2024,2054
2039,2043,2037,2039,1961,2089,2034,2052
2039,2041,2036,2021,1890,2042,2038,2060
2040,2040,2044,2025,1934,1994,2044,2073
2044,2044,2040,2044,2054,1993,2052,2090
2043,2052,2047,2046,2062,2039,2077,2096
2045,2049,2047,2064,2106,2063,2070,2099
2042,2043,2042,2060,2099,2058,2062,2096
2040,2037,2033,2053,2089,2070,2055,2101
2046,2055,2043,2072,2102,2075,2058,2094
2046,2047,2038,2067,2083,2062,2040,2085
2039,2044,2033,2062,2117,2101,2045,2078
2042,2045,2033,2058,2115,2163,2044,2069
2042,2046,2035,2057,2126,2244,2059,2059
2046,2056,2045,2061,2109,2237,2056,2056
2051,2060,2046,2044,2046,2075,2030,2047
2051,2059,2052,2060,2060,1890,1987,2030
2048,2052,2042,2041,1978,1931,2004,2024
2045,2051,2040,2029,1968,2008,2035,2024
2041,2056,2037,2045,2015,2018,2025,2031
2046,2054,2030,2052,2010,2015,2036,2036
2048,2052,2030,2049,2014,2042,2046,2044
2056,2059,2040,2048,2023,2088,2061,2041
2042,2054,2036,2040,2023,2082,2062,2035
2042,2051,2046,2066,2087,2102,2070,2045
2058,2066,2066,2082,2126,2111,2054,2043
2057,2065,2056,2058,2000,2084,2052,2033
2047,2055,2045,2014,1906,2031,2037,2030
2049,2053,2044,2010,1987,2006,2036,2032
2042,2057,2049,2035,2100,2024,2058,2048
2053,2056,2061,2065,2128,2029,2066,2046
2054,2060,2064,2055,2078,2003,2052,2057
2048,2064,2073,2050,2073,1992,2045,2053
2047,2063,2066,2051,2040,1998,2046,2055
2047,2063,2063,2044,2035,2021,2054,2060
2040,2052,2052,2044,2040,2034,2046,2069
2039,2043,2044,2046,2036,2032,2044,2077
2038,2047,2043,2043,2039,2039,2046,2078
2041,2046,2035,2039,2047,2035,2023,2082
2034,2037,2033,2033,2043,2028,2016,2082
2033,2037,2027,2032,2042,2030,2039,2082
2046,2045,2038,2036,2045,2040,2051,2087
2047,2044,2037,2032,2036,2038,2063,2083
2047,2041,2034,2034,2031,2050,2072,2080
2049,2038,2029,2029,2031,2058,2062,2071
2049,2044,2029,2038,2052,2062,2073,2071
2047,2041,2036,2040,2060,2070,2054,2066
2050,2040,2033,2041,2033,2050,2044,2057
2050,2040,2031,2039,2004,2035,2031,2057
2045,2035,2031,2026,1988,2043,2039,2037
2040,2030,2026,2029,2000,2059,2037,2028
2036,2025,2026,2023,2027,2082,2042,2024
2039,2027,2038,2045,2094,2114,2053,2021
2041,2034,2035,2043,2098,2107,2059,2014
2027,2034,2035,2051,2076,2094,2048,2013
2024,2027,2028,2046,2061,2060,2025,2012
2024,2026,2030,2039,2050,2011,2024,2011
2032,2038,2041,2047,2051,2009,2046,2029
2047,2041,2040,2048,2031,2012,2036,2034
2049,2046,2043,2053,2018,2017,2056,2039
2042,2047,2044,2047,2019,2037,2049,2036
2052,2048,2034,2045,2029,2025,2037,2044
2048,2052,2045,2047,2048,2025,2037,2052
2051,2059,2046,2060,2061,2043,2055,2060
2049,2061,2050,2053,2060,2036,2060,2073
2049,2064,2057,2051,2067,2019,2054,2076
2048,2060,2054,2053,2071,2001,2039,2075
2045,2053,2061,2051,2072,2014,2045,2083
2041,2054,2063,2050,2064,2026,2046,2081
2045,2048,2061,2052,2062,2034,2051,2085
2047,2052,2063,2052,2056,2037,2043,2084
2045,2044,2056,2046,2045,2025,2032,2077
2044,2046,2060,2042,2037,2026,2046,2087
2042,2051,2066,2050,2043,2032,2056,2085
2048,2047,2065,2052,2046,2025,2059,2073
2052,2048,2063,2041,2038,2025,2040,2075
2056,2053,2056,2043,2038,2029,2047,2070
2053,2057,2059,2046,2049,2043,2045,2068
2061,2054,2055,2054,2044,2047,2053,2063
2058,2058,2053,2056,2041,2043,2061,2052
2052,2053,2053,2055,2040,2046,2068,2054
2050,2049,2049,2050,2024,2057,2055,2046
2043,2043,2048,2050,2031,2057,2048,2042
2051,2046,2060,2056,2028,2064,2064,2042
2046,2051,2056,2045,2000,2067,2038,2034
2038,2044,2047,2039,2008,2071,2043,2029
2046,2041,2044,2042,2044,2076,2029,2028
2048,2036,2042,2041,2050,2031,2013,2032
2042,2037,2047,2048,2054,2011,2014,2040
2049,2051,2061,2059,2073,2043,2021,2044
2052,2056,2063,2066,2123,2067,2026,2038
2053,2060,2060,2066,2147,2098,2035,2034
2045,2052,2051,2045,2137,2118,2047,2024
2043,2042,2042,2026,2115,2089,2033,2035
