CH1,CH2,CH3,CH4,CH5,CH6,CH7,CH8
2031,2032,2026,2055,2068,2046,2033,2099
2036,2037,2034,2053,2056,2045,2047,2106
2041,2030,2027,2045,2044,2029,2020,2101
2034,2019,2024,2031,2039,2014,2029,2081
2022,2023,2029,2032,2033,2015,2024,2067
2026,2036,2050,2046,2039,2026,2035,2066
2034,2050,2064,2044,2038,2032,2042,2066
2043,2061,2075,2047,2042,2033,2037,2060
2054,2062,2067,2045,2039,2026,2048,2058
2058,2062,2054,2039,2046,2023,2052,2052
2057,2055,2051,2045,2054,2022,2056,2054
2061,2053,2045,2045,2048,2021,2030,2043
2052,2043,2041,2040,2046,2013,2058,2032
2058,2046,2044,2046,2050,2017,2034,2023
2047,2048,2047,2040,2039,2027,2047,2015
2045,2039,2041,2040,2043,2026,2054,2008
2039,2033,2035,2033,2042,2038,2056,2002
2036,2038,2044,2039,2054,2057,2069,2000
2035,2037,2047,2039,2055,2068,2059,2015
2032,2044,2047,2042,2078,2081,2083,2014
2042,2044,2048,2043,2068,2083,2090,2024
2042,2042,2041,2048,2073,2070,2088,2025
2045,2041,2046,2045,2066,2063,2089,2036
2044,2050,2074,2044,2062,2054,2086,2041
2055,2065,2089,2048,2069,2058,2081,2043
2054,2071,2085,2052,2070,2058,2085,2059
2049,2065,2070,2052,2068,2064,2076,2068
2054,2060,2066,2051,2063,2059,2090,2076
2048,2053,2061,2048,2063,2056,2063,2083
2046,2053,2054,2047,2058,2050,2077,2090
2041,2056,2059,2056,2061,2045,2062,2099
2046,2056,2056,2052,2052,2040,2060,2097
2042,2046,2056,2052,2049,2040,2040,2099
2041,2060,2069,2050,2052,2045,2056,2097
2049,2056,2066,2049,2053,2054,2075,2097
2053,2060,2063,2043,2051,2053,2068,2090
2054,2057,2058,2037,2055,2055,2056,2083
2057,2061,2057,2037,2044,2045,2058,2076
2051,2048,2044,2036,2045,2044,2052,2060
2046,2050,2046,2040,2043,2052,2060,2046
2045,2052,2045,2037,2049,2055,2058,2045
2047,2051,2048,2047,2058,2067,2066,2037
2054,2055,2056,2052,2058,2065,2072,2037
2052,2056,2055,2050,2061,2066,2050,2027
2049,2050,2056,2043,2053,2052,2060,2029
2047,2047,2049,2038,2046,2041,2057,2017
2042,2046,2051,2040,2043,2038,2064,2012
2041,2045,2048,2036,2045,2030,2059,2008
2044,2039,2046,2035,2037,2025,2045,2009
2047,2042,2048,2034,2039,2032,2062,2017
2045,2051,2047,2039,2048,2033,2058,2024
2053,2049,2042,2036,2051,2036,2060,2018
2054,2047,2046,2035,2054,2034,2055,2026
2048,2048,2034,2033,2053,2033,2055,2034
2045,2042,2032,2028,2046,2041,2056,2031
2044,2040,2025,2022,2047,2044,2061,2030
2039,2046,2035,2019,2055,2050,2065,2043
2037,2054,2040,2028,2060,2046,2064,2052
2042,2048,2042,2024,2060,2049,2072,2062
2045,2048,2037,2025,2063,2055,2059,2077
2046,2051,2029,2030,2068,2057,2067,2086
2050,2041,2019,2027,2066,2050,2055,2097
2048,2037,2012,2027,2060,2044,2061,2098
2038,2031,2011,2020,2049,2033,2040,2088
2030,2023,2015,2025,2047,2040,2046,2095
2035,2032,2029,2035,2059,2053,2065,2103
2044,2044,2034,2035,2054,2047,2053,2091
2046,2046,2042,2031,2042,2042,2049,2088
2048,2043,2036,2025,2044,2045,2064,2089
2049,2039,2042,2031,2032,2043,2073,2073
2051,2042,2053,2029,2039,2048,2066,2067
2047,2045,2058,2034,2034,2048,2080,2057
2051,2054,2068,2036,2036,2049,2079,2046
2047,2052,2068,2035,2035,2043,2056,2046
2048,2051,2061,2034,2039,2048,2064,2038
2055,2046,2064,2041,2038,2046,2046,2028
2054,2052,2056,2033,2033,2042,2056,2020
2054,2049,2052,2035,2037,2039,2058,2014
2052,2045,2049,2036,2039,2045,2056,2012
2042,2038,2044,2032,2039,2037,2042,1998
2033,2024,2035,2033,2038,2035,2054,1992
2040,2030,2034,2036,2049,2047,2057,1994
2043,2040,2041,2045,2059,2053,2062,1996
2033,2043,2038,2049,2064,2051,2060,2009
2031,2045,2050,2056,2068,2041,2056,2015
2040,2042,2040,2051,2060,2024,2051,2023
2041,2034,2037,2046,2061,2022,2037,2032
2047,2045,2041,2050,2060,2034,2049,2038
2052,2045,2044,2057,2060,2046,2058,2049
2053,2044,2041,2056,2057,2058,2033,2055
2051,2049,2036,2056,2062,2060,2038,2052
2040,2048,2036,2049,2065,2060,2043,2074
2040,2036,2035,2057,2063,2060,2064,2075
2035,2044,2032,2054,2056,2053,2043,2088
2042,2046,2047,2058,2057,2041,2036,2094
2041,2055,2050,2053,2048,2039,2034,2095
2036,2041,2039,2040,2042,2038,2018,2101
2032,2035,2028,2034,2039,2041,2044,2097
2035,2043,2044,2031,2032,2043,2055,2089
2037,2057,2066,2036,2038,2044,2049,2078
2046,2072,2090,2047,2043,2044,2055,2079
2063,2087,2102,2051,2049,2037,2030,2075
2058,2085,2102,2040,2039,2041,2048,2057
2053,2076,2089,2026,2043,2027,2056,2053
2050,2069,2080,2023,2034,2029,2043,2042
2056,2065,2073,2029,2034,2034,2043,2040
2061,2066,2071,2029,2046,2037,2052,2034
2062,2065,2062,2032,2046,2040,2054,2018
2052,2062,2057,2028,2043,2035,2054,2023
2046,2058,2060,2036,2044,2036,2054,2021
2049,2059,2056,2036,2050,2034,2056,2018
2053,2065,2058,2039,2043,2026,2040,2016
2056,2059,2056,2038,2043,2015,2034,2006
2048,2055,2047,2035,2043,2017,2044,1998
2048,2058,2055,2041,2055,2026,2046,2000
2051,2059,2054,2046,2059,2026,2051,1999
2043,2052,2054,2046,2063,2025,2058,2003
2044,2041,2043,2035,2060,2033,2051,2010
2042,2037,2040,2032,2064,2055,2049,2018
2033,2039,2038,2033,2060,2096,2048,2026
2043,2050,2050,2041,2072,2112,2053,2030
2046,2059,2050,2042,2070,2100,2058,2035
2049,2057,2053,2040,2069,2083,2060,2047
2050,2057,2047,2048,2078,2079,2066,2060
2051,2059,2051,2054,2071,2075,2068,2076
2051,2061,2054,2048,2066,2067,2061,2077
2049,2051,2051,2047,2061,2059,2046,2077
2044,2055,2042,2044,2054,2047,2059,2086
2043,2054,2037,2035,2050,2032,2052,2089
2038,2049,2028,2032,2043,2025,2040,2088
2042,2045,2025,2032,2046,2028,2056,2091
2046,2055,2030,2032,2049,2035,2057,2093
2056,2056,2027,2032,2047,2035,2058,2086
2048,2050,2026,2032,2042,2036,2054,2073
2058,2052,2028,2036,2038,2027,2032,2069
2048,2054,2027,2036,2036,2028,2030,2054
2052,2050,2029,2035,2035,2030,2032,2044
2050,2050,2036,2043,2041,2035,2041,2033
2040,2039,2038,2049,2037,2035,2026,2022
2036,2039,2038,2052,2037,2038,2030,2018
2029,2036,2041,2059,2049,2053,2041,2006
2033,2037,2041,2067,2046,2042,2030,2006
2036,2041,2036,2078,2035,2033,2020,1993
2039,2030,2022,2074,2033,2039,2025,1999
2041,2022,2015,2077,2035,2048,2032,2002
2041,2010,2003,2071,2031,2053,2003,1992
2029,2002,2000,2072,2031,2061,2020,1996
2040,2019,2015,2083,2050,2084,2055,2005
2038,2030,2015,2078,2060,2074,2052,2000
2040,2035,2023,2080,2057,2023,2035,1993
2035,2036,2020,2072,2059,2007,2044,2003
2035,2046,2020,2068,2062,2017,2043,2013
2035,2052,2021,2054,2060,2034,2053,2032
2032,2047,2021,2039,2060,2039,2048,2037
2036,2052,2018,2019,2051,2043,2046,2045
2035,2044,2010,2004,2042,2051,2021,2054
2035,2040,2008,2000,2046,2052,2048,2053
2038,2042,2016,1990,2048,2056,2054,2069
2042,2042,2031,1990,2041,2061,2047,2076
2038,2042,2051,1986,2041,2056,2043,2084
2043,2048,2055,1993,2032,2047,2024,2093
2045,2048,2064,2001,2027,2026,2023,2103
2050,2061,2081,2021,2035,2017,2026,2097
2060,2078,2100,2029,2034,2017,2049,2100
2056,2074,2094,2033,2040,2025,2036,2092
2062,2068,2088,2032,2038,2029,2018,2089
2058,2067,2071,2035,2043,2037,2043,2075
2064,2070,2070,2034,2052,2042,2040,2072
2061,2061,2058,2033,2050,2054,2040,2066
2054,2064,2062,2035,2048,2063,2060,2057
2052,2064,2071,2043,2048,2071,2041,2049
2051,2068,2068,2041,2035,2066,2036,2035
2056,2070,2068,2043,2043,2072,2043,2034
2059,2068,2067,2050,2052,2065,2050,2024
2055,2064,2065,2055,2042,2054,2029,2018
2051,2064,2066,2046,2043,2058,2047,2016
2044,2062,2065,2045,2043,2056,2038,2007
2049,2056,2063,2045,2043,2043,2025,2001
2046,2045,2054,2048,2045,2023,2030,1999
2042,2056,2055,2050,2055,2018,2034,2004
2053,2062,2061,2047,2048,2016,2053,2015
2053,2060,2056,2043,2036,2007,2050,2020
2055,2061,2056,2044,2039,2013,2052,2010
2055,2059,2055,2041,2026,2021,2044,2012
2052,2054,2059,2044,2034,2033,2037,2021
2044,2056,2056,2051,2029,2048,2025,2026
2034,2052,2053,2050,2035,2053,2020,2024
2038,2048,2053,2056,2042,2056,2034,2035
2042,2058,2054,2054,2045,2053,2037,2056
2044,2057,2050,2050,2045,2056,2035,2059
2042,2053,2045,2050,2053,2053,2045,2066
2048,2044,2045,2050,2047,2059,2030,2075
2049,2045,2043,2047,2044,2054,2038,2083
2046,2046,2038,2046,2040,2054,2040,2086
2043,2041,2030,2041,2033,2048,2028,2076
2034,2028,2033,2042,2029,2049,2022,2084
2031,2035,2035,2043,2033,2050,2032,2087
2039,2032,2034,2037,2044,2044,2027,2083
2029,2034,2034,2041,2046,2044,2036,2080
2033,2039,2041,2044,2040,2044,2039,2068
2031,2042,2049,2045,2049,2043,2042,2068
2039,2051,2047,2042,2039,2049,2043,2058
2038,2050,2044,2040,2039,2041,2029,2039
2035,2046,2043,2041,2037,2040,2026,2031
2034,2047,2050,2048,2040,2047,2028,2028
2032,2049,2051,2052,2040,2051,2046,2027
2034,2050,2052,2049,2041,2048,2032,2025
2038,2055,2054,2050,2035,2049,2011,2026
2044,2060,2051,2049,2036,2053,2038,2024
2057,2063,2050,2045,2039,2059,2037,2019
2049,2058,2046,2047,2036,2054,2033,2012
2043,2046,2042,2046,2031,2049,2016,2005
2038,2044,2042,2045,2036,2056,2029,2005
2041,2061,2059,2052,2045,2058,2035,2009
2045,2052,2046,2053,2051,2054,2040,2002
2044,2051,2053,2061,2053,2054,2053,2010
2053,2052,2061,2057,2066,2055,2051,2024
2053,2052,2052,2064,2068,2052,2042,2020
2051,2050,2039,2052,2074,2054,2045,2023
2049,2041,2033,2050,2075,2058,2054,2022
2035,2038,2035,2054,2075,2059,2052,2025
2036,2033,2036,2040,2066,2058,2053,2038
2025,2032,2033,2034,2043,2037,2062,2045
2029,2039,2034,2027,2013,2034,2062,2062
2045,2052,2046,2034,2000,2032,2050,2078
2046,2056,2056,2030,1999,2029,2055,2077
2042,2056,2046,2027,1991,2019,2044,2080
2041,2046,2042,2028,2007,2021,2048,2077
2042,2041,2045,2041,2033,2036,2055,2086
2047,2045,2047,2046,2065,2046,2060,2091
2050,2054,2046,2049,2078,2061,2049,2091
2048,2053,2053,2052,2066,2063,2058,2092
2049,2056,2054,2050,2045,2041,2060,2082
2049,2056,2055,2044,2027,2040,2042,2071
2054,2051,2054,2040,2026,2039,2045,2070
2048,2040,2049,2034,2035,2054,2048,2053
2044,2043,2044,2047,2062,2068,2046,2051
2052,2042,2047,2074,2080,2072,2046,2042
2051,2038,2055,2077,2086,2061,2058,2030
2039,2037,2063,2078,2082,2066,2040,2019
2036,2034,2064,2082,2073,2059,2045,2011
2035,2040,2061,2070,2072,2053,2037,2009
2035,2046,2064,2081,2065,2051,2048,2006
2038,2046,2064,2086,2060,2055,2027,2000
2039,2040,2064,2083,2058,2049,2031,1996
2032,2038,2048,2080,2049,2051,2044,1997
2032,2040,2054,2082,2055,2054,2055,2008
2053,2055,2063,2091,2062,2060,2039,2008
2052,2061,2060,2087,2063,2054,2055,2013
2050,2064,2055,2071,2048,2058,2059,2014
2052,2060,2059,2070,2057,2065,2044,2014
2046,2057,2058,2064,2065,2067,2047,2022
2051,2057,2055,2053,2062,2059,2041,2024
2047,2050,2040,2043,2047,2051,2029,2024
2044,2048,2022,2024,2051,2053,2041,2035
2046,2047,2017,2022,2055,2059,2050,2048
2045,2043,2017,2021,2056,2058,2039,2059
2054,2050,2018,2021,2055,2056,2057,2074
2052,2056,2029,2028,2061,2055,2051,2088
2052,2059,2037,2039,2060,2057,2046,2092
2054,2053,2032,2037,2059,2058,2043,2090
2043,2041,2022,2030,2045,2049,2039,2086
2034,2033,2020,2026,2039,2042,2024,2089
2038,2034,2020,2022,2035,2038,2026,2084
2033,2041,2029,2025,2033,2033,2036,2079
2050,2057,2050,2039,2028,2033,2027,2070
2052,2070,2061,2051,2035,2039,2037,2067
2050,2072,2069,2052,2032,2050,2025,2057
2053,2070,2072,2064,2047,2058,2050,2050
2056,2073,2070,2061,2048,2066,2056,2045
2058,2073,2071,2061,2054,2065,2057,2036
2053,2061,2068,2061,2052,2070,2037,2030
2049,2062,2065,2057,2054,2071,2037,2027
2053,2056,2057,2052,2047,2055,2062,2019
2043,2057,2058,2045,2046,2050,2052,2015
2040,2056,2047,2048,2044,2053,2058,2009
2043,2051,2043,2045,2045,2062,2050,2014
2039,2055,2050,2052,2047,2052,2043,2000
2042,2054,2041,2056,2056,2055,2027,2002
2043,2048,2035,2054,2059,2066,2041,2017
2052,2059,2036,2062,2062,2069,2038,2017
2052,2056,2039,2052,2059,2068,2035,2015
2046,2052,2030,2052,2060,2062,2046,2010
2040,2056,2031,2058,2058,2064,2043,2013
2044,2055,2037,2053,2060,2062,2044,2022
2048,2064,2053,2059,2058,2057,2054,2030
2049,2065,2058,2066,2058,2061,2045,2041
2050,2063,2052,2059,2052,2070,2056,2044
2054,2061,2052,2058,2054,2069,2039,2050
2050,2057,2044,2054,2052,2054,2027,2053
2046,2056,2041,2055,2048,2055,2031,2060
2040,2043,2039,2050,2051,2059,2048,2071
2042,2048,2044,2050,2049,2034,2022,2080
2037,2050,2042,2055,2062,2027,2032,2089
2043,2050,2034,2049,2055,2026,2036,2089
2031,2040,2032,2047,2042,2032,2024,2090
2033,2037,2034,2044,2037,2042,2031,2085
2033,2045,2030,2038,2041,2043,2022,2080
2034,2040,2032,2038,2037,2045,2025,2080
2036,2043,2034,2039,2037,2048,2031,2072
2042,2049,2033,2037,2039,2050,2038,2065
2040,2045,2032,2037,2042,2042,2030,2061
2045,2042,2025,2033,2041,2042,2029,2048
2043,2042,2032,2036,2038,2039,2039,2038
2045,2045,2031,2038,2044,2035,2033,2032
2040,2043,2032,2038,2042,2049,2034,2023
2040,2040,2039,2042,2050,2051,2046,2020
2038,2044,2041,2048,2058,2057,2051,2014
2042,2049,2035,2056,2056,2058,2044,2004
2048,2046,2026,2056,2054,2055,2050,2015
2045,2047,2029,2059,2054,2061,2066,2012
2045,2041,2024,2049,2050,2056,2068,2004
2044,2038,2026,2045,2044,2054,2065,2005
2045,2046,2035,2058,2061,2063,2074,2010
2051,2050,2047,2064,2070,2061,2048,2010
2050,2049,2045,2061,2068,2064,2061,1999
2044,2045,2052,2064,2068,2060,2056,1994
2050,2050,2057,2064,2066,2048,2061,2001
2053,2048,2060,2059,2066,2045,2052,2012
2046,2048,2060,2063,2072,2059,2049,2021
2049,2042,2068,2060,2073,2066,2078,2032
2047,2042,2062,2059,2077,2076,2073,2044
2050,2047,2058,2061,2073,2065,2069,2043
2037,2040,2050,2052,2068,2064,2087,2057
2028,2030,2039,2048,2066,2058,2082,2071
2026,2031,2027,2052,2058,2050,2074,2077
2033,2023,2027,2052,2050,2051,2071,2085
2039,2031,2031,2049,2048,2038,2056,2084
2046,2035,2029,2044,2041,2037,2061,2089
2048,2044,2024,2044,2038,2045,2077,2090
2049,2049,2022,2044,2032,2054,2060,2095
2046,2040,2014,2038,2030,2050,2053,2087
2039,2031,1998,2034,2029,2045,2043,2069
2039,2025,1994,2037,2025,2045,2042,2062
2047,2019,2004,2049,2040,2058,2038,2054
2053,2035,2016,2068,2053,2060,2037,2045
2061,2057,2026,2075,2048,2024,2027,2026
2052,2054,2026,2074,2033,1992,2012,2009
2049,2041,2033,2078,2034,1988,1989,1999
2053,2032,2040,2074,2040,1986,2017,1999
2045,2045,2050,2079,2036,1990,2006,2008
2043,2051,2063,2086,2034,1993,2023,2004
2043,2064,2071,2088,2037,2007,2030,2004
2046,2065,2069,2085,2038,2013,2006,2005
2044,2060,2050,2072,2035,2014,2014,1998
2037,2043,2047,2067,2023,2007,2019,1991
2041,2043,2050,2066,2037,2007,2003,1988
2046,2055,2060,2067,2050,2017,2004,1986
2042,2053,2054,2061,2051,2026,2024,2001
2042,2051,2058,2058,2051,2039,2028,2009
2045,2061,2071,2062,2059,2058,2031,2004
2042,2065,2074,2058,2057,2074,2060,2012
2044,2064,2064,2039,2058,2096,2047,2024
2044,2054,2055,2030,2054,2092,2061,2030
2043,2053,2045,2026,2058,2085,2064,2038
2041,2053,2057,2036,2062,2072,2062,2047
2050,2058,2063,2041,2052,2052,2068,2063
2051,2058,2060,2037,2041,2056,2058,2069
2050,2055,2053,2037,2025,2050,2051,2073
2046,2047,2048,2040,2029,2054,2048,2082
2045,2045,2042,2033,2028,2062,2048,2083
2037,2045,2040,2034,2044,2069,2065,2094
2042,2044,2048,2052,2064,2083,2062,2107
2054,2057,2054,2061,2068,2086,2069,2108
2060,2059,2053,2052,2058,2089,2057,2100
2055,2054,2053,2051,2054,2097,2051,2087
2055,2052,2051,2050,2047,2096,2045,2074
2046,2050,2045,2046,2046,2079,2041,2059
2046,2051,2045,2050,2036,2022,2035,2051
2060,2052,2046,2047,2035,1994,2010,2037
2060,2039,2036,2042,2038,2003,2038,2024
2045,2029,2033,2044,2038,2020,2032,2015
2031,2031,2038,2044,2046,2042,2050,2012
2034,2040,2044,2048,2045,2047,2053,2020
2034,2042,2046,2049,2041,2045,2063,2017
2040,2053,2055,2058,2046,2052,2051,2015
2044,2058,2064,2064,2047,2056,2050,2018
2053,2057,2065,2066,2043,2051,2047,2012
2046,2053,2060,2068,2040,2053,2017,2008
2047,2053,2059,2072,2044,2055,2029,2009
2052,2052,2057,2070,2057,2059,2048,2012
2051,2054,2056,2069,2062,2065,2040,2008
2048,2057,2056,2073,2065,2069,2052,2018
2046,2058,2051,2069,2068,2059,2045,2018
2050,2056,2057,2071,2062,2054,2038,2033
2057,2055,2052,2067,2061,2056,2058,2032
2050,2054,2046,2067,2060,2056,2043,2032
2046,2057,2042,2069,2057,2059,2044,2041
2046,2054,2043,2065,2055,2074,2043,2051
2043,2051,2040,2063,2046,2080,2048,2062
2050,2053,2037,2053,2042,2082,2053,2069
2040,2048,2039,2052,2044,2078,2053,2081
2047,2049,2040,2039,2047,2078,2062,2084
2051,2049,2038,2040,2061,2077,2039,2087
2046,2052,2023,2034,2055,2069,2037,2092
2042,2034,2016,2027,2050,2056,2030,2089
2039,2033,2014,2030,2031,2038,2023,2088
2043,2043,2020,2029,2015,2020,2030,2083
2043,2046,2026,2025,2009,2002,2028,2075
2038,2051,2026,2024,2003,1982,2017,2071
2040,2045,2024,2016,2005,1980,2014,2060
2038,2044,2027,2030,2029,1991,2024,2056
2046,2055,2036,2042,2053,2008,2060,2052
2053,2056,2040,2054,2077,2029,2043,2047
2061,2056,2043,2058,2085,2058,2047,2038
2058,2056,2047,2059,2078,2064,2047,2025
2054,2052,2041,2054,2054,2057,2052,2023
2050,2049,2039,2052,2061,2049,2050,2015
2055,2042,2040,2054,2059,2054,2050,2005
2044,2042,2036,2050,2052,2058,2051,1996
2044,2037,2034,2046,2051,2058,2050,1997
2047,2037,2033,2043,2047,2052,2050,1986
2042,2033,2031,2044,2044,2044,2056,1989
2039,2044,2040,2047,2044,2056,2056,1999
2044,2045,2045,2051,2051,2052,2057,1998
2048,2046,2038,2056,2054,2050,2034,2003
2045,2044,2035,2062,2057,2053,2045,2007
2049,2049,2037,2067,2056,2058,2041,2013
2049,2049,2038,2069,2060,2063,2056,2019
2060,2053,2038,2063,2062,2067,2066,2025
2060,2056,2028,2056,2057,2059,2064,2036
2060,2052,2030,2050,2060,2055,2057,2042
2054,2053,2043,2043,2063,2049,2055,2046
2044,2049,2054,2044,2062,2047,2033,2052
2046,2054,2062,2046,2070,2050,2036,2065
2049,2052,2068,2051,2072,2053,2053,2076
2045,2060,2066,2056,2074,2049,2040,2079
2045,2043,2059,2048,2065,2045,2037,2079
2030,2042,2043,2038,2049,2046,2056,2088
2036,2033,2042,2035,2049,2055,2060,2101
2044,2044,2046,2038,2055,2056,2026,2095
2046,2046,2044,2032,2059,2054,2041,2089
2050,2051,2050,2031,2055,2053,2049,2076
2043,2051,2053,2025,2043,2048,2046,2071
2055,2054,2043,2028,2042,2048,2059,2067
2050,2046,2038,2023,2038,2050,2059,2059
2050,2047,2032,2024,2050,2053,2048,2042
2052,2042,2029,2032,2050,2056,2068,2031
2042,2045,2032,2042,2048,2054,2061,2020
2039,2036,2037,2046,2054,2054,2054,2020
2042,2040,2033,2043,2044,2054,2037,2013
2042,2034,2026,2043,2049,2058,2039,2011
2041,2034,2026,2048,2049,2057,2060,2005
2043,2037,2025,2052,2052,2056,2049,2006
2044,2037,2018,2050,2044,2049,2066,1996
2040,2031,2016,2046,2042,2051,2051,1994
2045,2035,2019,2052,2048,2056,2049,2001
2045,2037,2022,2052,2051,2055,2069,1992
2026,2030,2023,2051,2043,2053,2052,1993
2042,2037,2033,2054,2046,2050,2044,2007
2049,2040,2036,2054,2046,2041,2067,2020
2045,2038,2039,2058,2054,2042,2072,2024
2043,2041,2043,2054,2057,2052,2072,2036
2051,2040,2037,2045,2056,2058,2080,2044
2044,2046,2041,2041,2063,2062,2067,2043
2038,2050,2050,2043,2059,2065,2064,2048
2038,2049,2055,2054,2065,2065,2070,2071
2039,2056,2053,2065,2067,2062,2085,2077
2045,2060,2065,2063,2066,2057,2085,2090
2049,2067,2071,2065,2070,2053,2084,2089
2049,2066,2069,2062,2058,2054,2079,2080
2036,2054,2067,2036,2047,2049,2058,2076
2035,2055,2067,2015,2039,2057,2076,2078
2050,2057,2064,2011,2037,2073,2057,2077
2043,2065,2070,2010,2030,2077,2059,2073
2036,2057,2063,2013,2027,2070,2065,2067
2044,2049,2060,2022,2030,2053,2081,2069
2048,2047,2056,2030,2028,2028,2073,2054
2049,2043,2049,2022,2021,2018,2051,2041
2046,2038,2043,2016,2006,2023,2051,2027
2032,2039,2043,2026,2019,2030,2047,2009
2035,2041,2053,2030,2029,2043,2055,2016
2040,2037,2056,2036,2033,2045,2062,2010
2034,2041,2053,2035,2036,2044,2047,2013
2044,2052,2068,2039,2032,2045,2049,2007
2050,2049,2057,2047,2034,2046,2060,2009
2048,2048,2052,2051,2031,2046,2046,1998
2036,2045,2050,2048,2037,2042,2052,2000
2041,2047,2053,2052,2040,2050,2066,2015
2049,2055,2051,2045,2046,2051,2061,2010
2037,2049,2049,2040,2046,2049,2045,1998
2030,2041,2040,2039,2046,2051,2050,2004
2039,2042,2037,2042,2040,2058,2051,2008
2038,2051,2050,2049,2056,2067,2052,2020
2051,2045,2043,2055,2060,2066,2076,2032
2041,2047,2037,2044,2054,2048,2059,2027
2042,2046,2036,2050,2053,2049,2058,2043
2045,2055,2055,2056,2052,2050,2062,2050
2049,2065,2060,2058,2061,2049,2061,2060
2043,2057,2059,2065,2056,2049,2041,2067
2041,2050,2054,2050,2062,2046,2044,2080
2040,2045,2052,2053,2050,2040,2056,2083
2041,2046,2046,2049,2042,2034,2054,2087
2037,2040,2048,2047,2036,2024,2043,2093
2037,2038,2057,2050,2030,2025,2030,2099
2043,2051,2056,2049,2030,2025,2043,2094
2047,2054,2056,2050,2024,2025,2023,2093
2051,2052,2050,2045,2019,2029,2034,2085
2049,2049,2048,2042,2014,2027,2049,2076
2057,2052,2046,2037,2018,2033,2039,2061
2050,2049,2045,2038,2025,2043,2032,2051
2052,2047,2045,2041,2034,2046,2032,2045
2046,2045,2041,2039,2027,2048,2058,2034
2047,2044,2042,2040,2033,2053,2043,2028
2050,2042,2041,2038,2031,2050,2055,2034
2048,2037,2038,2039,2038,2052,2046,2022
2054,2045,2033,2040,2038,2062,2044,2015
2043,2044,2036,2044,2043,2065,2065,2010
2048,2042,2034,2041,2033,2057,2058,2001
2040,2037,2029,2033,2020,2044,2039,1994
2038,2033,2025,2033,2017,2044,2056,2002
2039,2034,2018,2028,2026,2056,2052,2002
2040,2024,2001,2017,2030,2055,2050,2004
2045,2026,2001,2035,2055,2065,2052,2013
2051,2035,2016,2063,2086,2058,2061,2021
2049,2048,2026,2061,2082,2063,2060,2034
2055,2042,2029,2066,2091,2083,2038,2028
2049,2036,2023,2067,2093,2078,2044,2040
2049,2038,2021,2063,2082,2074,2056,2053
2051,2041,2019,2059,2068,2048,2044,2064
2054,2039,2009,2063,2056,2032,2021,2068
2056,2042,2024,2069,2060,2045,2065,2073
2049,2050,2033,2064,2055,2048,2064,2072
2053,2043,2040,2065,2042,2049,2043,2087
2043,2034,2033,2058,2035,2043,2033,2088
2038,2024,2030,2048,2033,2030,2033,2084
2031,2016,2017,2037,2028,2026,2024,2082
2034,2022,2026,2035,2030,2036,2043,2077
2038,2036,2040,2038,2039,2044,2037,2073
2043,2052,2063,2044,2028,2045,2047,2072
2044,2056,2074,2046,2035,2045,2044,2069
2043,2062,2083,2047,2034,2045,2040,2065
2048,2072,2096,2042,2023,2042,2047,2056
2046,2066,2086,2051,2021,2046,2033,2049
2053,2058,2088,2041,2017,2043,2062,2038
2046,2052,2076,2039,2021,2042,2064,2037
2052,2053,2077,2041,2032,2041,2058,2031
2048,2059,2077,2042,2030,2044,2053,2029
2048,2061,2080,2048,2038,2053,2045,2031
2053,2065,2084,2055,2040,2053,2048,2021
2056,2069,2083,2053,2041,2042,2039,2015
2058,2060,2081,2046,2035,2037,2032,2008
2049,2054,2073,2046,2025,2033,2043,1999
2042,2060,2073,2049,2032,2041,2032,2003
2048,2059,2071,2052,2037,2052,2041,2007
2046,2053,2075,2062,2043,2066,2064,2006
2055,2052,2094,2076,2044,2065,2078,2016
2060,2057,2096,2081,2036,2067,2050,2021
2060,2055,2092,2082,2045,2061,2053,2031
2052,2057,2099,2092,2039,2062,2060,2039
2054,2054,2100,2097,2044,2065,2060,2040
2054,2050,2106,2097,2037,2054,2060,2045
2052,2051,2106,2102,2050,2049,2062,2056
2052,2051,2102,2101,2037,2043,2044,2064
2051,2057,2102,2106,2048,2048,2047,2073
2051,2056,2095,2107,2053,2045,2044,2083
2046,2052,2083,2102,2040,2045,2051,2096
2051,2053,2072,2099,2044,2045,2032,2087
2038,2039,2055,2081,2045,2038,2017,2089
2039,2037,2038,2071,2046,2038,2016,2083
2036,2037,2037,2059,2049,2041,2053,2089
2041,2040,2038,2055,2057,2047,2046,2080
2048,2046,2030,2040,2062,2044,2013,2080
2047,2046,2023,2023,2034,2026,2057,2075
2049,2034,2000,2000,1991,2004,2028,2061
2047,2034,1991,1997,1981,2004,2034,2046
2042,2029,1988,1992,1983,2004,2031,2031
2036,2026,1982,1990,1998,2027,2058,2024
2042,2034,1994,2017,2052,2055,2063,2026
2055,2049,2009,2039,2086,2064,2062,2027
2060,2046,2024,2048,2107,2081,2064,2021
2057,2045,2027,2042,2115,2091,2054,2016
2052,2043,2024,2039,2098,2103,2048,2009
2052,2038,2020,2033,2073,2101,2045,2002
2047,2031,2017,2032,2064,2111,2041,2003
2052,2031,2017,2033,2066,2114,2034,2009
2058,2041,2020,2030,2058,2086,2071,2017
2057,2036,2027,2027,2038,2026,2025,2014
2053,2030,2018,2026,2018,2003,2051,2013
2053,2029,2023,2032,2020,2010,2046,2019
2050,2036,2024,2033,2030,2025,2041,2020
2050,2038,2033,2041,2042,2029,2048,2029
2063,2040,2040,2041,2046,2025,2037,2047
2062,2046,2049,2048,2051,2025,2033,2049
2056,2040,2045,2046,2053,2022,2038,2059
2049,2045,2059,2063,2062,2025,2059,2076
2045,2049,2062,2058,2064,2033,2054,2077
2036,2042,2057,2059,2063,2049,2061,2082
2030,2040,2043,2042,2047,2046,2052,2087
2033,2043,2038,2031,2031,2046,2045,2090
2037,2032,2039,2014,2050,2057,2036,2089
2035,2036,2046,2017,2079,2084,2025,2085
2037,2043,2049,2000,2090,2098,2040,2078
2033,2051,2051,2003,2070,2098,2037,2074
2042,2058,2055,2006,2065,2097,2030,2073
2043,2058,2056,2015,2062,2073,2043,2070
2049,2059,2057,2028,2082,2032,2035,2080
2052,2065,2060,2049,2116,2038,2056,2076
2054,2068,2066,2064,2133,2058,2048,2068
2064,2065,2059,2059,2115,2070,2054,2062
2058,2059,2049,2051,2071,2075,2077,2054
2047,2053,2042,2037,1972,2070,2052,2038
2050,2052,2051,2033,1988,2066,2061,2038
2050,2058,2058,2050,2035,2077,2064,2032
2050,2060,2071,2052,2061,2081,2063,2033
2055,2067,2081,2056,2060,2066,2061,2022
2056,2057,2076,2059,2054,2041,2044,2019
2053,2052,2075,2058,2022,2032,2049,2016
2052,2051,2075,2054,2002,2021,2042,2014
2042,2046,2072,2052,2005,2013,2039,2011
2049,2047,2068,2062,2024,2025,2044,2022
2055,2054,2074,2064,2008,2029,2029,2032
2054,2051,2070,2052,1965,2011,2045,2030
2047,2052,2063,2054,2016,2007,2040,2041
2051,2044,2059,2065,2053,2015,2045,2048
2051,2049,2064,2063,2051,2049,2042,2054
2053,2037,2056,2066,2055,2078,2038,2052
2042,2028,2047,2058,2054,2082,2054,2064
2042,2038,2051,2055,2043,2072,2060,2074
2041,2031,2045,2052,2048,2058,2066,2081
2041,2032,2050,2056,2070,2028,2062,2095
2048,2037,2046,2050,2052,2032,2040,2104
2036,2022,2029,2040,2037,2033,2031,2104
2034,2019,2024,2031,2020,2041,2028,2105
2048,2019,2025,2020,1970,2037,2031,2103
2042,2025,2022,2009,1954,2038,2033,2092
2045,2036,2026,2007,1980,2036,2041,2091
2056,2041,2039,2010,1993,2043,2056,2075
2051,2045,2045,2012,1992,2034,2025,2062
2039,2038,2044,2010,2009,2011,2019,2052
2037,2031,2040,2014,2033,1997,2034,2048
2038,2027,2027,2005,2044,2028,2044,2041
2048,2038,2033,2025,2070,2059,2069,2044
2049,2043,2043,2043,2077,2069,2050,2031
2041,2040,2039,2046,2083,2065,2047,2014
2030,2039,2043,2052,2088,2067,2048,2010
2033,2041,2046,2048,2062,2057,2040,2017
2048,2037,2044,2045,2042,2049,2035,2023
2049,2034,2040,2047,2055,2046,2034,2019
2045,2031,2040,2052,2062,2054,2034,2013
2043,2036,2045,2049,2052,2059,2039,2002
2043,2035,2043,2043,2035,2075,2046,2014
2049,2044,2056,2033,2011,2090,2049,2024
2055,2053,2062,2026,1993,2088,2035,2024
2064,2065,2074,2016,1980,2076,2038,2037
2064,2060,2075,2021,1977,2069,2054,2037
2051,2046,2066,2024,1983,2056,2052,2039
2051,2049,2070,2036,1997,2035,2051,2062
2057,2056,2078,2046,2019,2028,2057,2082
2060,2052,2065,2050,2020,2022,2057,2081
2052,2048,2063,2053,2035,2022,2047,2094
2043,2050,2068,2060,2064,2033,2048,2094
2048,2049,2064,2053,2061,2023,2076,2103
2047,2042,2059,2049,2038,2025,2047,2105
2041,2038,2056,2043,2025,2038,2044,2102
2038,2042,2056,2047,2055,2037,2042,2100
2041,2042,2051,2039,2071,2048,2054,2094
2038,2047,2059,2041,2093,2068,2028,2086
2039,2043,2047,2045,2112,2069,2041,2079
2040,2044,2038,2044,2098,2060,2022,2069
2035,2035,2035,2026,2070,2067,2019,2056
2038,2046,2052,2046,2112,2070,2043,2058
2053,2057,2064,2069,2147,2038,2066,2067
2062,2064,2069,2077,2119,2049,2072,2063
2063,2059,2063,2064,2115,2065,2070,2053
2056,2057,2060,2067,2093,2051,2055,2043
2056,2057,2058,2069,2005,2062,2042,2028
2053,2049,2054,2056,1941,2065,2051,2022
2050,2039,2045,2050,1950,2056,2045,2022
2044,2035,2040,2034,1918,2046,2010,2008
2032,2022,2030,2033,1966,2037,2025,2002
2030,2025,2033,2051,2049,2025,2044,2009
2043,2041,2049,2077,2122,2044,2053,2017
2045,2044,2052,2085,2145,2064,2060,2020
2047,2042,2054,2078,2104,2063,2040,2026
2048,2047,2047,2059,2001,2052,2046,2027
2049,2038,2035,2041,1972,2020,2045,2030
2051,2038,2048,2048,1988,1981,2048,2041
2055,2050,2057,2037,1950,1969,2036,2051
2060,2044,2058,2033,1931,1979,2031,2057
2059,2044,2056,2022,1966,2005,2047,2058
2042,2032,2043,2013,2006,2032,2056,2054
2025,2016,2020,1992,2019,2035,2046,2053
2028,2029,2039,2015,2053,2042,2049,2071
2039,2045,2080,2042,2089,2045,2066,2080
2047,2049,2083,2055,2083,2026,2051,2089
2031,2048,2076,2043,2061,2008,2032,2091
2033,2053,2071,2035,2036,2004,2040,2099
2035,2049,2057,2023,2038,2012,2038,2098
2043,2053,2049,2025,2072,2022,2030,2099
2050,2064,2051,2052,2093,2024,2051,2093
2046,2058,2048,2052,2095,2021,2043,2077
2042,2054,2041,2054,2114,2046,2055,2061
2050,2060,2048,2063,2170,2092,2059,2058
2055,2055,2040,2065,2194,2147,2071,2048
2049,2059,2038,2075,2164,2156,2076,2050
2046,2055,2042,2074,2142,2149,2073,2041
2042,2046,2041,2064,2096,2129,2071,2026
2035,2042,2033,2043,2011,2093,2060,2020
2037,2036,2023,2023,1935,2064,2059,2012
2031,2022,2014,2021,1946,2056,2064,2013
2028,2024,2018,2015,1938,2058,2046,2014
2034,2028,2039,2024,1946,2054,2064,2019
2050,2030,2058,2034,1970,2054,2067,2020
2061,2043,2079,2046,1993,2061,2068,2014
2058,2038,2089,2057,2028,2069,2061,2005
2061,2056,2107,2059,2034,2060,2043,2000
2051,2054,2099,2065,2050,2047,2046,2006
2036,2044,2088,2072,2075,2038,2041,2020
2031,2039,2080,2080,2094,2045,2028,2034
2046,2036,2081,2082,2085,2048,2037,2036
2037,2038,2071,2074,2071,2036,2040,2032
2033,2031,2058,2079,2062,2034,2045,2042
2030,2036,2058,2095,2098,2052,2052,2064
2040,2029,2057,2093,2082,2075,2060,2068
2030,2022,2035,2066,2015,2075,2047,2066
2028,2013,2024,2037,1957,2058,2041,2073
2027,2015,2021,2014,1915,2053,2055,2074
2027,2017,2011,1983,1913,2039,2033,2073
2016,2006,1997,1952,1927,2014,2027,2075
2015,2013,2005,1961,2011,2026,2044,2096
2038,2027,2013,1995,2096,2069,2069,2103
2044,2026,2004,2001,2107,2093,2045,2089
2037,2029,2006,2015,2151,2118,2046,2087
2048,2047,2032,2038,2178,2112,2054,2080
2054,2059,2041,2052,2182,2064,2049,2076
2061,2064,2050,2064,2125,2021,2040,2064
2052,2063,2063,2067,2009,1992,2034,2057
2049,2060,2069,2070,1997,2005,2027,2059
2053,2051,2061,2074,1978,2047,2042,2045
2056,2048,2059,2078,1966,2078,2098,2037
2053,2042,2049,2078,2023,2082,2091,2030
2052,2042,2049,2081,2022,2067,2075,2030
2051,2047,2052,2075,2015,2040,2059,2021
2052,2049,2050,2072,2035,2042,2030,2022
2051,2044,2052,2077,2073,2054,2066,2008
2041,2035,2045,2076,2084,2054,2035,2000
2038,2037,2044,2078,2128,2068,2053,2004
2049,2044,2049,2097,2185,2089,2050,2005
2053,2049,2062,2104,2213,2069,2045,2005
2050,2046,2051,2074,2169,2046,2053,2005
2036,2024,2014,2010,1989,2030,2034,2005
2018,2010,1994,1977,1922,2025,2040,2013
2022,2019,2002,1986,2016,2021,2057,2042
2046,2035,2022,2004,2039,2037,2066,2058
2052,2046,2021,1990,2030,2090,2051,2060
2053,2046,2012,2005,2080,2120,2066,2068
2052,2045,2016,2011,2064,2120,2062,2073
2053,2042,2008,1998,2008,2082,2058,2072
2046,2036,2018,1992,1971,2034,2032,2076
2037,2034,2031,1996,1943,1987,2046,2094
2034,2039,2038,2000,1914,1983,2051,2098
2031,2023,2018,1972,1858,1978,2056,2105
2023,2016,2008,1955,1861,1978,2043,2112
2027,2022,2018,1959,1887,1995,2059,2106
2040,2022,2033,1961,1890,2006,2044,2091
2039,2018,2048,1971,1952,2027,2025,2068
2031,2016,2047,1999,2040,2050,2038,2054
2039,2031,2066,2038,2096,2053,2020,2055
2047,2043,2078,2060,2148,2082,2045,2055
2051,2052,2093,2052,2128,2118,2062,2052
2039,2062,2100,2042,2115,2143,2069,2042
2034,2063,2094,2037,2152,2140,2050,2025
2031,2053,2082,2033,2096,2079,2064,2034
2040,2058,2089,2059,2087,2012,2058,2040
2046,2069,2096,2081,2112,2008,2076,2033
2053,2075,2104,2094,2109,2037,2079,2035
2055,2066,2096,2072,2042,2043,2060,2030
2052,2062,2081,2068,2127,2051,2041,2015
2042,2043,2061,2064,2157,2058,2049,2007
2030,2032,2048,2046,2093,2043,2047,2000
2016,2021,2027,2006,1929,1989,2020,1989
2011,2012,2022,2014,1945,1956,2021,1994
2028,2021,2029,2049,2011,1980,2018,2011
2042,2041,2060,2080,2076,2022,2046,2023
2067,2067,2079,2094,2159,2060,2053,2031
2074,2081,2085,2089,2176,2062,2057,2047
2067,2066,2081,2075,2128,2052,2042,2042
2042,2051,2073,2050,2056,2032,2036,2041
2040,2047,2072,2044,1996,2036,2044,2048
2041,2051,2078,2048,1996,2040,2063,2067
2040,2061,2086,2042,1994,2044,2059,2074
2036,2067,2088,2046,1978,2037,2065,2082
2050,2066,2099,2045,1940,2013,2065,2092
2052,2066,2098,2049,1913,1998,2038,2092
2048,2049,2089,2054,1927,1979,2027,2094
2041,2036,2077,2055,1997,1998,2030,2102
2040,2043,2083,2064,2095,2005,2011,2089
2036,2037,2060,2059,2160,2018,1998,2084
2031,2033,2059,2079,2269,2043,2034,2080
2044,2042,2058,2101,2298,2068,2042,2087
2044,2052,2059,2092,2244,2065,2039,2065
2044,2055,2049,2053,2166,2053,2052,2058
2046,2046,2038,2030,2109,2045,2058,2046
2042,2044,2028,2032,2077,2041,2033,2039
2042,2043,2028,2024,1988,2038,2043,2023
2045,2051,2022,2005,1928,2031,2048,2027
2039,2045,2006,1989,1979,2046,2042,2027
2043,2040,2008,2003,2027,2065,2049,2023
2039,2038,2011,2023,2049,2081,2055,2014
2056,2054,2024,2037,2066,2093,2050,2014
2054,2050,2020,2036,2088,2100,2048,2014
2049,2044,2010,2039,2100,2097,2074,2007
2046,2045,2011,2053,2082,2083,2048,2008
2047,2043,2013,2047,2052,2068,2058,2009
2038,2043,2019,2069,2056,2068,2070,2015
2046,2042,2022,2085,2042,2071,2074,2017
2041,2037,2029,2081,2030,2053,2079,2016
2046,2034,2022,2077,1993,2008,2048,2013
2030,2013,2029,2085,2014,2003,2049,2009
2027,2016,2032,2079,2033,2008,2047,2024
2031,2027,2040,2073,2055,2028,2054,2024
2028,2028,2043,2068,2094,2049,2051,2035
2033,2036,2060,2077,2131,2069,2066,2063
2035,2040,2063,2070,2122,2066,2058,2075
2046,2051,2070,2062,2093,2056,2059,2088
2059,2059,2072,2054,2084,2053,2044,2091
2049,2057,2064,2049,2123,2056,2052,2087
2032,2037,2045,2039,2119,2052,2057,2088
2031,2031,2032,2013,2043,2037,2049,2095
2033,2029,2026,1983,1998,2018,2053,2080
2030,2024,2026,1980,1959,2012,2035,2068
2025,2033,2032,2010,2008,2042,2023,2070
2024,2026,2019,2022,2067,2052,2054,2062
2035,2030,2018,2015,2074,2058,2063,2052
2051,2045,2032,2043,2073,2061,2062,2052
2060,2055,2044,2053,2056,2046,2045,2046
2061,2059,2047,2067,2028,2043,2036,2037
2055,2057,2053,2072,2029,2049,2046,2042
2052,2056,2043,2070,2024,2050,2067,2034
2045,2049,2039,2062,1995,2018,2061,2018
2046,2045,2039,2049,1932,2016,2074,2016
2042,2047,2043,2052,1909,2025,2069,1993
2048,2047,2049,2063,1933,2043,2066,1999
2046,2028,2033,2058,1954,2047,2066,2003
2045,2036,2050,2066,1988,2068,2069,2009
2049,2052,2072,2078,1977,2076,2084,2007
2060,2055,2073,2077,1925,2077,2079,2014
2064,2052,2064,2063,1901,2095,2081,2017
2062,2047,2060,2055,1911,2090,2072,2021
2058,2053,2063,2041,1903,2091,2063,2025
2049,2054,2055,2022,1884,2096,2044,2019
2035,2040,2038,2008,1920,2080,2039,2027
2038,2039,2036,2037,2035,2059,2043,2046
2047,2058,2066,2076,2078,2030,2053,2065
2061,2080,2098,2106,2118,1993,2059,2072
2060,2086,2112,2123,2198,2018,2063,2075
2053,2069,2096,2078,2237,2057,2061,2074
2042,2066,2087,2058,2238,2060,2061,2088
2058,2074,2098,2047,2152,2035,2064,2095
2059,2070,2084,2016,1999,2000,2052,2096
2055,2054,2068,1988,1948,2000,2042,2104
2065,2063,2051,1990,1956,2021,2052,2113
2066,2063,2056,2019,2038,2038,2051,2108
2058,2063,2055,2035,2101,2074,2058,2098
2057,2057,2060,2045,2097,2110,2061,2080
2050,2058,2058,2036,2008,2103,2059,2057
2050,2049,2046,1987,1930,2087,2045,2046
2040,2040,2038,1979,1940,2059,2034,2041
2051,2045,2039,1976,1981,2021,2048,2031
2057,2047,2052,2019,2192,2052,2073,2039
2062,2057,2065,2059,2253,2080,2072,2043
2060,2051,2063,2057,2181,2059,2066,2033
2056,2052,2050,2039,2026,2018,2041,2016
2054,2042,2048,2015,1956,2012,2047,2005
2054,2051,2053,2021,1947,2022,2040,2006
2057,2054,2046,2008,1919,2018,2030,1995
2049,2047,2050,2009,1915,2002,2035,2008
2063,2061,2063,2035,1976,2010,2051,2021
2071,2067,2072,2074,2072,2069,2061,2009
2069,2061,2076,2099,2166,2150,2075,2013
2060,2061,2071,2121,2267,2197,2084,2023
2054,2051,2056,2134,2282,2190,2066,2016
2045,2042,2050,2140,2251,2149,2056,2013
2041,2044,2049,2125,2181,2059,2056,2020
2042,2044,2053,2120,2149,1994,2045,2028
2040,2049,2052,2098,2091,1992,2051,2036
2048,2054,2049,2091,2051,2001,2040,2043
2056,2058,2051,2071,2018,2010,2052,2064
2057,2062,2061,2076,2044,2025,2045,2083
2061,2063,2066,2085,2022,2044,2053,2090
2056,2058,2063,2094,2072,2064,2067,2089
2048,2044,2061,2078,2073,2085,2058,2085
2040,2032,2052,2051,2012,2067,2063,2090
2040,2030,2056,2022,1931,2046,2052,2096
2044,2040,2054,1990,1793,2025,2042,2090
2045,2036,2040,1952,1732,1975,2052,2082
2038,2026,2028,1961,1862,1938,2017,2070
2034,2025,2022,2007,2133,1992,2042,2061
2033,2017,2024,2058,2296,2051,2050,2054
2032,2016,2021,2066,2173,2046,2046,2035
2043,2024,2027,2032,1977,2022,2045,2033
2048,2033,2040,2038,2000,2001,2024,2018
2051,2035,2042,2035,2017,1985,2022,2013
2044,2038,2040,2025,2045,1987,2036,2011
2039,2036,2041,2029,2063,2002,2036,2011
2036,2048,2040,2022,2076,2014,2039,2010
2044,2053,2031,2016,2072,2023,2021,2008
2045,2044,2026,2013,2062,2035,2050,1996
2047,2028,2022,2014,2064,2059,2039,1990
2044,2016,2017,2021,2062,2069,2041,1996
2040,2019,2015,2020,2076,2091,2062,2005
2045,2018,2021,2029,2082,2089,2070,2007
2045,2019,2018,2040,2071,2086,2053,1997
2037,2028,2031,2048,2059,2071,2060,1991
2033,2029,2027,2051,2062,2071,2053,1998
2029,2028,2023,2055,2075,2067,2055,2015
2034,2034,2023,2054,2075,2052,2054,2016
2034,2026,2019,2055,2075,2038,2043,2025
2036,2036,2018,2047,2068,2020,2026,2033
2041,2037,2026,2044,2057,1994,2032,2045
2044,2045,2035,2057,2062,2004,2033,2062
2045,2047,2045,2062,2067,2008,2032,2065
2040,2046,2051,2060,2059,2015,2047,2070
2033,2035,2038,2049,2052,2034,2031,2076
2020,2023,2032,2042,2039,2064,2031,2080
2016,2016,2034,2030,2022,2068,2014,2082
2022,2023,2052,2045,2029,2049,2013,2085
2044,2058,2081,2053,2024,2043,2027,2090
2045,2065,2090,2063,2023,2052,2046,2091
2054,2069,2078,2059,2034,2049,2063,2093
2055,2068,2072,2064,2060,2023,2072,2086
2060,2067,2058,2059,2073,2030,2064,2070
2055,2062,2056,2060,2068,2051,2054,2051
2051,2059,2068,2066,2069,2053,2065,2037
2048,2056,2056,2068,2060,2051,2056,2030
2047,2045,2044,2061,2050,2031,2045,2018
2039,2035,2024,2049,2044,2031,2037,2016
2046,2039,2025,2047,2056,2045,2051,2026
2056,2054,2038,2062,2068,2057,2055,2011
2062,2052,2035,2059,2064,2046,2050,2006
2058,2043,2013,2046,2054,2036,2047,2000
2044,2025,1987,2030,2053,2038,2042,1998
2048,2030,1986,2028,2052,2048,2040,2005
2054,2053,2000,2044,2065,2056,2050,2015
2057,2056,2008,2048,2070,2064,2038,2021
2056,2058,2004,2045,2066,2058,2035,2011
2049,2051,1994,2035,2062,2053,2026,2004
2046,2044,1992,2027,2058,2053,2043,2014
2043,2043,1992,2013,2061,2050,2042,2015
2038,2039,2002,2016,2058,2040,2048,2028
2046,2039,2022,2029,2062,2044,2036,2037
2051,2041,2044,2041,2069,2058,2046,2053
2054,2050,2059,2051,2065,2060,2047,2067
2057,2065,2090,2068,2070,2057,2057,2080
2057,2072,2103,2087,2074,2057,2052,2097
2062,2079,2123,2089,2077,2057,2056,2102
2066,2074,2124,2085,2071,2049,2033,2090
2052,2060,2121,2076,2058,2044,2042,2088
2035,2054,2113,2065,2059,2033,2046,2092
2050,2069,2099,2059,2043,2027,2039,2079
2049,2061,2081,2059,2041,2023,2046,2078
2044,2049,2064,2045,2036,2026,2041,2069
2046,2041,2056,2043,2046,2030,2029,2073
2053,2038,2054,2034,2044,2036,2015,2065
2048,2033,2051,2025,2034,2030,2028,2048
2042,2033,2043,2017,2040,2033,2032,2041
2052,2038,2040,2018,2036,2044,2027,2037
2059,2052,2060,2032,2048,2058,2070,2029
2057,2055,2064,2038,2050,2061,2058,2014
2049,2047,2065,2043,2040,2049,2051,2009
2040,2052,2065,2045,2042,2046,2047,2015
2046,2075,2076,2064,2050,2055,2058,2032
2057,2081,2083,2066,2056,2054,2050,2033
2055,2071,2069,2061,2052,2040,2050,2023
2055,2070,2048,2057,2054,2040,2047,2018
2066,2070,2052,2056,2062,2038,2057,2023
2067,2076,2046,2066,2062,2039,2051,2026
2064,2064,2053,2065,2059,2042,2050,2026
2053,2065,2056,2064,2063,2038,2049,2025
2048,2056,2050,2062,2055,2042,2048,2027
2053,2058,2056,2065,2054,2046,2045,2035
2052,2062,2054,2070,2055,2050,2060,2041
2055,2064,2057,2067,2059,2057,2055,2049
2059,2065,2056,2062,2053,2054,2064,2057
2064,2059,2051,2054,2039,2052,2058,2070
2062,2053,2052,2055,2031,2042,2052,2079
2054,2050,2054,2052,2029,2036,2057,2083
2052,2052,2064,2052,2008,2024,2049,2085
2053,2058,2066,2051,2005,2013,2048,2092
2051,2058,2061,2043,2023,2009,2038,2097
2047,2048,2061,2045,2035,2020,2034,2097
2038,2040,2064,2048,2030,2042,2054,2095
2049,2045,2072,2065,2040,2064,2070,2100
2055,2049,2078,2092,2095,2079,2068,2097
2064,2050,2066,2089,2067,2070,2062,2087
2057,2057,2075,2087,2048,2062,2056,2074
2048,2060,2068,2084,2000,2041,2037,2054
2055,2061,2077,2082,1988,2048,2053,2046
2063,2062,2072,2079,2023,2047,2040,2037
2064,2061,2073,2078,2030,2037,2008,2027
2050,2052,2065,2061,2026,2039,2028,2024
2052,2052,2075,2068,2069,2070,2056,2031
2054,2067,2077,2084,2092,2085,2058,2029
2054,2064,2078,2081,2093,2085,2033,2019
2054,2060,2072,2078,2118,2092,2044,2016
2053,2050,2059,2057,2104,2072,2041,2009
2047,2043,2043,2045,2077,2057,2047,2015
2056,2048,2042,2050,2059,2054,2054,2020
2055,2056,2050,2059,2048,2042,2046,2009
2060,2053,2060,2066,2039,2035,2036,2021
2069,2059,2061,2059,2041,2034,2033,2026
2064,2056,2057,2053,2037,2046,2057,2020
2066,2056,2060,2068,2057,2043,2066,2029
2060,2055,2054,2067,2054,2039,2064,2028
2054,2053,2050,2057,2021,2047,2063,2031
2053,2046,2044,2060,2034,2058,2068,2028
2051,2040,2038,2075,2083,2075,2075,2051
2052,2042,2048,2094,2114,2081,2068,2067
2045,2048,2058,2081,2040,2060,2054,2077
2048,2056,2062,2061,1978,2045,2058,2085
2056,2060,2058,2054,2004,2052,2060,2086
2056,2059,2051,2036,2004,2060,2044,2088
2048,2046,2036,2032,2085,2058,2036,2086
2045,2046,2039,2040,2158,2045,2034,2085
2051,2047,2032,2034,2113,2022,2035,2088
2054,2045,2035,2031,2029,2005,2040,2076
2055,2047,2039,2039,2014,2010,2036,2063
2052,2054,2045,2059,2033,2020,2038,2046
2040,2045,2047,2056,2036,2016,2037,2033
2032,2032,2028,2039,2062,2022,2035,2027
2038,2036,2036,2054,2118,2051,2046,2027
2047,2055,2048,2074,2174,2057,2061,2026
2051,2044,2047,2064,2142,2047,2047,2024
2056,2046,2043,2057,2080,2051,2048,2022
2059,2048,2048,2056,2056,2042,2041,2016
2060,2046,2044,2053,2049,2041,2045,2009
2062,2042,2041,2050,2064,2046,2040,2000
2054,2024,2034,2037,2045,2030,2046,1986
2049,2021,2037,2028,2035,2021,2032,1980
2039,2030,2047,2034,2043,2032,2021,1983
2045,2039,2050,2055,2058,2037,2024,1991
2037,2033,2050,2065,2094,2049,2042,1996
2033,2033,2048,2075,2124,2072,2042,2000
2042,2048,2057,2084,2126,2083,2051,2008
2058,2049,2065,2092,2120,2068,2051,2015
2049,2045,2066,2082,2119,2061,2047,2017
2045,2046,2065,2076,2090,2063,2034,2021
2048,2042,2072,2085,2110,2077,2044,2039
2046,2046,2072,2091,2099,2076,2049,2047
2059,2048,2073,2080,2006,2042,2045,2065
2064,2050,2064,2075,1966,2004,2028,2075
2059,2056,2057,2088,2016,2019,2021,2080
2054,2051,2055,2090,2036,2031,2032,2081
2044,2050,2043,2080,2030,2028,2022,2080
2036,2046,2034,2073,2041,2032,2027,2080
2036,2037,2031,2062,2037,2038,2031,2080
2038,2031,2021,2043,2036,2046,2032,2068
2034,2032,2023,2041,2039,2053,2037,2067
2042,2046,2028,2040,2052,2056,2044,2067
2052,2055,2024,2032,2047,2065,2041,2057
2052,2052,2019,2017,2050,2059,2041,2048
2052,2048,2014,2024,2040,2066,2029,2034
2054,2058,2023,2040,2039,2066,2043,2026
2054,2056,2030,2040,2035,2071,2039,2029
2063,2056,2028,2045,2037,2067,2050,2034
2072,2065,2039,2047,2033,2072,2048,2027
2067,2056,2035,2045,2020,2090,2052,2013
2055,2051,2034,2040,1982,2097,2010,1993
2047,2044,2028,2024,1958,2113,2006,1987
2048,2043,2026,2021,1956,2103,2021,1980
2042,2024,2031,2024,1976,2049,2031,1994
2045,2033,2040,2043,2018,1991,2032,2003
2058,2051,2058,2057,2047,1982,2046,1996
2045,2051,2059,2052,2039,2019,2046,2000
2052,2058,2056,2059,2027,2041,2036,1998
2051,2057,2064,2056,2031,2041,2029,2003
2048,2054,2061,2064,2044,2034,2035,2007
2048,2046,2060,2088,2144,2033,2043,2016
2053,2048,2066,2122,2228,2041,2036,2024
2056,2055,2073,2106,2163,2049,2049,2042
2056,2058,2076,2073,2092,2078,2049,2057
2056,2064,2092,2079,2088,2096,2070,2064
2059,2072,2088,2082,2098,2107,2071,2070
2056,2075,2090,2086,2091,2106,2069,2077
2055,2082,2091,2091,2092,2097,2048,2078
2055,2070,2087,2087,2072,2068,2032,2083
2052,2059,2073,2059,2026,2012,2033,2084
2041,2053,2062,2045,2013,1982,2020,2077
2048,2056,2065,2060,2026,2001,2030,2072
2052,2056,2061,2052,2034,2013,2030,2071
2052,2061,2059,2045,2034,2011,1998,2070
2049,2061,2060,2052,2066,2025,2033,2065
2050,2057,2052,2058,2078,2029,2034,2061
2054,2054,2042,2053,2041,2030,2043,2055
2058,2050,2039,2058,2058,2033,2048,2054
2050,2048,2035,2059,2060,2044,2048,2039
2041,2045,2023,2051,2053,2049,2043,2023
2034,2036,2013,2046,2023,2041,2018,2018
2043,2040,2018,2042,2034,2042,2026,2027
2057,2041,2018,2021,2051,2061,2026,2028
2058,2050,2012,2012,2023,2069,2012,2017
2053,2045,2008,2006,2037,2060,2011,2007
2044,2041,2012,2014,2035,2054,2028,1995
2036,2032,1999,2020,1995,2023,2042,2000
2036,2035,2021,2059,2084,1982,2023,2012
2058,2050,2030,2064,2146,2009,2037,2006
2054,2050,2032,2047,2067,2039,2027,2005
2043,2040,2018,2025,1991,2071,2050,2006
2039,2031,2024,2057,2097,2109,2062,2005
2043,2033,2028,2059,2094,2095,2062,2010
2046,2039,2038,2062,2119,2093,2064,2016
2051,2052,2062,2080,2139,2061,2067,2036
2057,2063,2075,2078,2145,2062,2061,2040
2057,2065,2068,2078,2129,2056,2060,2051
2059,2059,2066,2071,2104,2044,2044,2059
2056,2059,2074,2070,2068,2026,2060,2068
2055,2053,2067,2065,2045,2020,2055,2071
2048,2050,2059,2056,2061,2022,2039,2076
2045,2044,2057,2064,2116,2039,2039,2076
2033,2026,2050,2064,2116,2063,2028,2071
2028,2026,2049,2053,2024,2070,2026,2074
2030,2033,2057,2041,1969,2072,2034,2077
2040,2046,2058,2046,1993,2079,2013,2076
2043,2042,2057,2054,1995,2041,2022,2079
2055,2043,2056,2063,1985,1987,2001,2076
2050,2036,2052,2052,1959,1982,1998,2058
2039,2035,2040,2024,1927,1975,1980,2043
2036,2032,2036,2026,1997,1969,2006,2040
2048,2034,2040,2068,2120,2003,2005,2036
2039,2038,2058,2093,2163,2033,2024,2025
2030,2038,2068,2099,2178,2055,2044,2028
2033,2032,2066,2090,2172,2068,2037,2024
2036,2034,2060,2078,2100,2061,2023,2018
2036,2036,2053,2055,2038,2010,2020,2004
2040,2035,2047,2038,1996,2006,2037,2002
2043,2048,2051,2047,1989,2021,2041,2005
2050,2050,2049,2039,1976,2019,2053,2010
2060,2056,2048,2038,2000,2034,2061,2016
2065,2060,2042,2041,2013,2048,2072,2019
2065,2058,2044,2048,2012,2047,2047,2021
2057,2056,2041,2043,2023,2045,2029,2024
2054,2050,2037,2040,2039,2042,2044,2027
2053,2042,2026,2040,2090,2049,2060,2026
2051,2038,2016,2045,2151,2061,2058,2022
2052,2031,2020,2041,2141,2037,2055,2021
2044,2030,2030,2041,2150,2031,2043,2025
2038,2030,2024,2046,2149,2035,2040,2026
2030,2026,2014,2042,2185,2046,2035,2032
2034,2015,2000,2019,2159,2047,2046,2047
2035,2008,2009,2024,2102,2044,2057,2069
2052,2029,2036,2049,1996,2044,2046,2077
2058,2045,2050,2047,1956,2042,2061,2082
2061,2064,2063,2055,1999,2044,2044,2081
2050,2054,2060,2058,2014,2029,2031,2085
2050,2052,2068,2061,2049,2037,2038,2083
2044,2058,2072,2073,2072,2069,2029,2081
2044,2057,2080,2071,2070,2093,2024,2075
2046,2056,2078,2062,2041,2113,2018,2072
2044,2056,2080,2044,1962,2112,2024,2064
2058,2064,2086,2039,1936,2083,2067,2070
2062,2070,2086,2045,1992,2057,2056,2068
2062,2066,2080,2053,2019,2065,2054,2059
2060,2074,2088,2068,2024,2070,2059,2040
2062,2070,2088,2072,2018,2056,2052,2037
2055,2062,2076,2068,2001,2025,2048,2029
2056,2061,2060,2058,2010,2004,2039,2028
2055,2057,2055,2060,2012,1993,2047,2022
2052,2053,2053,2056,2010,1985,2034,2022
2056,2060,2054,2057,2035,1979,2029,2013
2054,2062,2052,2052,2039,1970,2043,2002
2038,2047,2034,2042,2046,1978,2028,2000
2037,2040,2033,2052,2050,1998,2031,2000
2040,2045,2028,2049,2033,2010,2001,1999
2034,2046,2041,2045,2047,2048,2029,2012
2044,2061,2035,2051,2078,2068,2026,2019
2058,2065,2028,2038,2050,2078,2045,2018
2056,2057,2023,2032,2022,2073,2038,2019
2054,2050,2026,2030,2041,2070,2046,2032
2052,2054,2029,2051,2059,2037,2030,2046
2057,2059,2037,2066,2066,2027,2056,2065
2064,2060,2056,2075,2069,2038,2050,2064
2056,2058,2064,2088,2093,2060,2053,2069
2047,2051,2066,2088,2125,2065,2051,2075
2042,2045,2064,2075,2107,2055,2040,2073
2039,2039,2055,2083,2103,2051,2055,2074
2044,2037,2048,2104,2159,2063,2052,2089
2041,2025,2043,2100,2132,2046,2050,2090
2037,2029,2037,2087,2092,2038,2043,2093
2047,2034,2035,2077,2051,2024,2036,2096
2049,2040,2022,2078,2063,2039,2047,2091
2053,2040,2018,2081,2081,2046,2040,2089
2054,2036,2018,2076,2059,2049,2049,2074
2044,2032,2020,2065,2060,2050,2038,2063
2036,2036,2021,2051,2051,2058,2038,2050
2033,2040,2020,2029,2007,2061,2038,2039
2042,2032,2003,2017,1995,2057,2038,2030
2037,2028,1984,2006,1975,2041,2034,2026
2042,2026,1989,2000,1968,2009,2028,2034
2046,2038,1999,2010,2005,1995,2035,2028
2048,2047,2003,2001,2010,1998,2043,2034
2049,2051,2007,1998,2029,2012,2039,2030
2054,2053,2004,2008,2058,2033,2052,2038
2060,2053,2016,2025,2071,2044,2050,2025
2066,2062,2038,2023,2068,2048,2052,2024
2066,2073,2073,2029,2084,2069,2052,2021
2067,2078,2092,2033,2076,2058,2042,2018
2060,2070,2088,2021,2027,2033,2034,2017
2053,2069,2083,2021,2004,2023,2037,2015
2052,2054,2081,2027,1991,2022,2043,2017
2047,2046,2076,2035,2019,2029,2041,2025
2058,2051,2082,2059,2071,2052,2053,2036
2059,2049,2084,2073,2096,2056,2060,2035
2052,2048,2096,2077,2096,2061,2032,2040
2049,2050,2098,2077,2079,2064,2035,2048
2052,2048,2097,2073,2059,2059,2043,2063
2050,2046,2096,2070,2062,2067,2047,2078
2045,2055,2092,2074,2046,2068,2049,2080
2043,2056,2085,2069,2060,2060,2039,2078
2041,2048,2087,2073,2068,2045,2022,2078
2044,2045,2087,2071,2043,2028,2028,2084
2037,2040,2076,2067,2027,2014,2046,2093
2045,2052,2060,2066,2054,1997,2057,2102
2060,2053,2048,2071,2074,2011,2037,2100
2057,2050,2035,2082,2112,2038,2038,2093
2058,2041,2018,2064,2108,2049,2020,2084
2050,2029,2000,2035,2073,2064,2029,2058
2041,2021,2002,2011,2012,2049,2043,2041
2038,2034,2012,2008,1992,2038,2028,2034
2044,2036,2014,2018,2063,2031,2041,2035
2049,2040,2019,2021,2122,2044,2052,2037
2052,2050,2026,2035,2137,2043,2052,2034
2054,2050,2028,2043,2117,2040,2054,2023
2043,2042,2024,2038,2100,2028,2042,2013
2037,2037,2028,2028,2093,2030,2029,2005
2037,2048,2037,2034,2098,2047,2045,2006
2048,2056,2053,2037,2106,2067,2050,2009
2047,2048,2035,2017,2032,2063,2047,1997
2038,2034,2017,1981,1925,2059,2047,2002
2045,2037,2022,1992,1976,2074,2064,2019
2054,2037,2025,2014,2006,2074,2071,2026
2060,2037,2025,2018,2020,2066,2064,2021
2042,2029,2026,2013,1999,2033,2047,2021
2037,2029,2036,2020,1978,2022,2049,2019
2047,2064,2071,2034,1980,2031,2053,2038
2066,2074,2082,2044,1982,2027,2043,2043
2065,2068,2069,2045,1998,2039,2043,2046
2060,2055,2053,2038,2018,2054,2063,2064
2064,2055,2052,2049,2056,2073,2059,2079
2067,2057,2051,2060,2064,2063,2045,2080
2059,2052,2037,2052,2071,2058,2052,2101
2062,2048,2035,2066,2149,2085,2072,2121
2067,2051,2040,2083,2228,2098,2085,2129
2070,2048,2029,2076,2245,2096,2070,2116
2061,2036,2024,2076,2274,2101,2071,2115
2054,2031,2024,2105,2332,2122,2066,2112
2053,2036,2025,2115,2338,2128,2049,2096
2047,2033,2034,2105,2275,2113,2055,2085
2047,2044,2045,2083,2153,2088,2025,2071
2053,2042,2059,2051,1959,2059,2029,2065
2052,2047,2062,2033,1793,2040,2050,2047
2050,2040,2064,2022,1804,2016,2035,2040
2049,2046,2056,2029,1887,2008,2026,2038
2049,2054,2056,2042,1944,1998,2037,2032
2048,2053,2049,2038,1941,1996,2027,2032
2050,2050,2033,2031,1930,1991,2015,2027
2052,2049,2034,2008,1884,1973,2029,2023
2042,2047,2042,2006,1893,1978,1995,2018
2041,2045,2048,2006,1919,1994,2005,2010
2032,2049,2053,2019,1989,2017,2012,2012
2043,2046,2065,2041,2072,2044,2029,2011
2043,2042,2074,2059,2118,2067,2060,2015
2051,2052,2071,2060,2111,2086,2056,2014
2042,2038,2056,2044,2107,2092,2060,2016
2041,2031,2049,2045,2099,2102,2070,2021
2045,2039,2053,2038,2095,2115,2073,2015
2056,2044,2061,2025,2069,2101,2057,2015
2053,2054,2059,2012,1983,2040,2054,2044
2054,2056,2068,2023,1922,2009,2042,2049
2054,2060,2075,2040,1930,2015,2033,2058
2058,2068,2082,2056,1979,2051,2044,2061
2052,2062,2073,2056,2022,2109,2047,2053
2044,2052,2057,2045,2034,2106,2053,2062
2048,2045,2058,2045,2038,2029,2051,2073
2047,2053,2058,2058,2075,1939,2054,2097
2061,2062,2061,2082,2118,1934,2063,2108
2054,2054,2059,2080,2131,2007,2043,2096
2045,2047,2043,2073,2124,2082,2064,2097
2048,2046,2042,2077,2114,2126,2039,2091
2046,2041,2034,2071,2097,2105,2024,2078
2040,2035,2033,2067,2065,2040,2021,2084
2052,2040,2036,2068,2061,1999,2018,2074
2057,2043,2038,2067,2047,2006,2040,2072
2061,2040,2030,2060,2039,2023,2035,2058
2053,2032,2024,2053,2026,2028,2043,2043
2047,2030,2018,2037,2010,2016,2040,2036
2035,2028,2018,2034,1994,2005,2036,2027
2043,2038,2019,2036,1989,2000,2032,2016
2045,2039,2018,2038,1992,2011,2026,2008
2049,2034,2021,2038,2018,2026,2035,2013
2056,2033,2032,2063,2071,2046,2053,2010
2053,2036,2043,2069,2083,2069,2054,2006
2043,2044,2044,2068,2047,2075,2060,1998
2031,2035,2037,2044,2016,2068,2050,2004
2033,2033,2029,2042,2005,2060,2059,2009
2040,2042,2037,2040,2006,2062,2065,2004
2041,2046,2044,2039,2007,2055,2051,1996
2040,2051,2049,2037,2006,2049,2055,2007
2046,2051,2043,2042,1988,2056,2069,2024
2058,2060,2042,2041,1979,2044,2065,2026
2053,2047,2043,2042,2020,2040,2059,2035
2048,2055,2060,2058,2062,2054,2061,2036
2046,2053,2066,2061,2104,2069,2066,2052
2044,2046,2070,2070,2089,2076,2063,2053
2055,2059,2086,2078,2087,2088,2055,2067
2069,2074,2089,2086,2082,2090,2064,2082
2072,2067,2081,2073,2057,2080,2045,2096
2064,2053,2071,2058,2036,2057,2031,2088
2054,2052,2064,2050,2036,2041,2036,2080
2043,2048,2063,2037,2019,2033,2024,2088
2031,2042,2051,2047,2035,2029,2025,2101
2036,2036,2054,2033,2031,2016,2024,2097
2038,2040,2053,2037,2056,2029,2058,2100
2042,2040,2052,2043,2091,2039,2059,2091
2043,2037,2043,2042,2087,2037,2029,2084
2043,2033,2036,2031,2073,2039,2019,2069
2037,2038,2030,2036,2071,2035,2038,2056
2033,2043,2037,2054,2108,2053,2048,2049
2043,2043,2046,2065,2120,2056,2054,2036
2044,2045,2051,2056,2053,2055,2046,2016
2040,2038,2042,2044,2005,2061,2052,2015
2037,2039,2041,2039,2003,2078,2053,2012
2040,2038,2033,2041,2005,2071,2044,2014
2043,2045,2035,2038,2018,2039,2066,2019
2037,2042,2038,2045,2042,2031,2067,2021
2043,2051,2041,2061,2086,2051,2061,2012
2044,2044,2040,2068,2099,2057,2064,2010
2048,2042,2038,2063,2092,2060,2073,2008
2053,2053,2044,2061,2088,2070,2067,2017
2053,2059,2039,2062,2090,2074,2078,2025
2058,2057,2043,2065,2089,2078,2072,2019
2060,2058,2048,2062,2089,2070,2079,2022
2053,2052,2041,2060,2092,2062,2084,2027
2055,2055,2050,2060,2088,2057,2080,2035
2062,2048,2049,2063,2096,2058,2063,2041
2056,2052,2049,2051,2072,2040,2046,2053
2057,2054,2053,2044,2033,2020,2066,2059
2054,2052,2056,2046,2043,2037,2063,2064
2057,2063,2061,2053,2065,2053,2073,2078
2054,2061,2063,2061,2071,2051,2075,2085
2050,2053,2059,2058,2062,2050,2053,2085
2045,2049,2055,2053,2059,2060,2050,2090
2049,2050,2052,2052,2072,2063,2047,2096
2047,2048,2045,2052,2082,2062,2052,2099
2049,2050,2045,2050,2075,2071,2082,2111
2059,2045,2046,2048,2057,2071,2071,2105
2052,2040,2034,2041,2056,2062,2083,2098
2051,2038,2038,2044,2032,2052,2056,2082
2051,2031,2046,2049,2010,2047,2042,2060
2040,2030,2057,2049,1973,2028,2038,2050
2033,2033,2061,2043,1948,2013,2046,2033
2023,2031,2052,2034,1981,2020,2036,2020
2022,2031,2055,2061,2037,2012,2048,2025
2034,2037,2077,2090,2076,2032,2071,2026
2047,2052,2071,2091,2076,2048,2067,2031
2049,2051,2066,2084,2060,2054,2047,2020
2050,2058,2064,2090,2050,2049,2039,2016
2040,2057,2062,2090,2036,2041,2050,2003
2026,2047,2053,2083,2023,2030,2040,1983
2016,2032,2033,2075,2030,2034,2051,1994
2032,2037,2034,2084,2065,2046,2058,2010
2052,2056,2035,2077,2071,2046,2052,2012
2055,2052,2029,2061,2058,2028,2027,2012
2047,2043,2029,2060,2047,2029,2037,2018
2054,2043,2039,2055,2062,2037,2071,2030
2049,2042,2035,2049,2061,2055,2063,2029
2051,2047,2029,2040,2064,2053,2049,2027
2056,2041,2024,2046,2064,2046,2054,2036
2044,2038,2026,2060,2058,2040,2060,2049
2050,2041,2041,2068,2086,2043,2059,2057
2046,2046,2048,2060,2066,2044,2052,2069
2044,2034,2035,2046,2057,2024,2046,2074
2046,2034,2017,2025,2052,2024,2045,2071
2043,2029,2016,2018,2016,2011,2037,2082
2042,2024,2016,2027,2034,1977,2036,2087
2039,2028,2017,2035,2080,1980,2059,2101
2033,2033,2014,2036,2122,2039,2062,2107
2043,2051,2032,2028,2097,2082,2078,2096
2048,2056,2038,2008,1998,2086,2058,2097
2048,2058,2043,1994,1915,2064,2063,2089
2059,2068,2053,1998,1974,2056,2054,2074
2050,2068,2055,2006,2024,2047,2062,2068
2054,2063,2061,2013,2034,2044,2056,2051
2055,2065,2071,2027,2016,2053,2049,2049
2056,2063,2072,2036,2019,2055,2052,2043
2054,2058,2070,2042,2020,2060,2056,2040
2051,2056,2065,2039,2016,2073,2066,2041
2053,2056,2058,2042,2017,2074,2058,2027
2059,2059,2059,2040,2017,2064,2045,2019
2052,2049,2047,2033,2010,2040,2060,2010
2046,2045,2052,2038,2024,2050,2057,2004
2039,2042,2047,2038,2041,2053,2044,2007
2033,2048,2048,2047,2047,2058,2058,2002
2048,2053,2056,2051,2070,2068,2072,2009
2049,2045,2056,2053,2078,2068,2058,2019
2048,2046,2054,2058,2076,2073,2052,2018
2048,2046,2052,2049,2052,2072,2059,2017
2037,2049,2044,2047,2043,2066,2067,2020
2048,2050,2053,2051,2049,2057,2060,2032
2052,2051,2052,2054,2054,2056,2074,2043
2054,2051,2048,2052,2045,2054,2070,2050
2053,2052,2048,2053,2054,2054,2060,2056
2046,2051,2045,2050,2052,2054,2060,2064
2036,2048,2052,2057,2049,2054,2056,2077
2030,2047,2046,2051,2053,2055,2045,2079
2037,2045,2050,2055,2059,2057,2052,2092
2042,2043,2047,2058,2053,2060,2043,2091
2036,2040,2043,2051,2047,2052,2037,2090
2028,2037,2043,2050,2039,2059,2028,2101
2032,2040,2045,2055,2042,2063,2046,2100
2037,2038,2041,2052,2045,2063,2059,2094
2042,2048,2045,2053,2044,2061,2053,2096
2042,2050,2044,2053,2044,2045,2061,2091
2044,2047,2044,2051,2047,2029,2044,2081
2052,2049,2044,2050,2042,2035,2062,2071
2051,2052,2045,2043,2034,2040,2060,2058
2054,2050,2045,2051,2036,2064,2061,2050
2054,2052,2049,2053,2043,2074,2072,2039
2058,2047,2045,2052,2048,2081,2082,2033
2054,2054,2046,2053,2045,2084,2065,2027
2049,2044,2047,2048,2049,2082,2054,2019
2054,2045,2044,2046,2043,2079,2036,2008
2053,2045,2048,2052,2049,2082,2039,1996
2047,2051,2055,2058,2057,2072,2052,2001
2044,2041,2047,2061,2038,2052,2024,1992
2042,2043,2042,2052,2034,2037,2016,1994
2050,2046,2053,2060,2050,2035,2023,1992
2053,2047,2051,2056,2051,2024,2017,2000
2055,2051,2055,2059,2056,2024,2033,2006
2055,2045,2050,2052,2063,2012,2023,2005
2058,2041,2046,2056,2060,2013,2038,2014
2049,2034,2045,2056,2055,2020,2057,2016
2034,2036,2043,2053,2049,2028,2036,2021
2036,2035,2041,2053,2050,2039,2036,2038
2041,2034,2044,2059,2047,2050,2032,2058
2048,2041,2051,2060,2046,2042,2035,2070
2040,2042,2047,2058,2054,2032,2030,2076
2044,2031,2042,2056,2049,2020,2044,2087
2040,2030,2038,2055,2046,2022,2022,2090
2046,2036,2035,2056,2038,2029,2023,2090
2033,2023,2029,2046,2029,2035,2052,2081
2015,2011,2019,2037,2026,2047,2042,2078
2023,2010,2025,2044,2030,2058,2052,2090
2019,2020,2035,2051,2028,2051,2057,2087
2020,2034,2043,2055,2026,2038,2039,2087
2033,2044,2050,2057,2027,2029,2030,2081
2040,2043,2052,2054,2025,2033,2042,2074
2041,2042,2050,2055,2026,2038,2025,2058
2041,2042,2050,2051,2027,2046,2046,2051
2045,2043,2044,2056,2041,2035,2048,2038
2041,2043,2046,2053,2036,2038,2023,2039
2043,2041,2050,2052,2046,2038,2033,2038
2043,2048,2050,2054,2045,2045,2050,2034
2037,2045,2044,2057,2033,2039,2044,2022
2039,2045,2045,2058,2037,2053,2048,2008
2037,2041,2044,2058,2036,2066,2049,2002
2032,2031,2038,2047,2038,2082,2047,1999
2029,2026,2035,2046,2028,2099,2056,2008
2040,2038,2041,2054,2042,2120,2072,2016
2047,2053,2053,2064,2044,2110,2066,2021
2051,2056,2053,2058,2047,2051,2055,2027
2056,2059,2053,2063,2042,2024,2039,2025
2057,2056,2054,2063,2047,2032,2068,2037
2053,2056,2052,2068,2047,2051,2057,2043
2049,2054,2054,2069,2050,2056,2048,2041
2048,2052,2054,2062,2061,2063,2063,2052
2046,2046,2052,2066,2060,2062,2047,2058
2049,2047,2055,2064,2052,2058,2072,2073
2052,2042,2050,2068,2057,2056,2081,2092
2054,2044,2052,2065,2049,2055,2082,2102
2054,2049,2058,2067,2057,2042,2085,2119
2059,2055,2064,2064,2044,2034,2075,2120
2053,2056,2054,2059,2041,2031,2064,2120
2056,2045,2052,2061,2044,2038,2069,2121
2061,2051,2057,2064,2044,2050,2073,2117
2058,2053,2054,2059,2052,2068,2080,2113
2053,2052,2047,2054,2037,2064,2087,2102
2063,2050,2049,2047,2017,2041,2060,2093
2056,2054,2054,2046,2008,2025,2063,2080
2052,2050,2055,2062,2001,1980,2051,2064
2050,2054,2058,2062,2002,1981,2055,2050
2056,2055,2060,2058,1998,2013,2047,2019
2047,2052,2053,2057,2006,2032,2022,2006
2044,2047,2047,2051,2020,2038,2038,1997
2038,2043,2040,2051,2010,2046,2044,2000
2036,2044,2038,2038,2018,2043,2053,2014
2048,2049,2047,2050,2049,2020,2047,2014
2051,2054,2057,2062,2068,2037,2026,2005
2041,2042,2046,2052,2050,2043,2025,1994
2036,2035,2044,2052,2044,2052,2036,1991
2047,2047,2048,2055,2055,2053,2039,2004
2046,2045,2047,2056,2061,2056,2037,1998
2056,2048,2047,2051,2052,2057,2057,2005
2045,2044,2051,2053,2051,2052,2051,2012
2040,2043,2050,2051,2044,2048,2041,2019
2040,2044,2040,2046,2045,2040,2030,2023
2039,2041,2041,2046,2034,2038,2035,2033
2044,2043,2043,2050,2048,2051,2044,2039
2046,2046,2047,2058,2052,2058,2036,2050
2046,2043,2047,2057,2050,2060,2049,2067
2043,2045,2045,2054,2050,2054,2047,2073
2041,2044,2046,2047,2051,2049,2050,2091
2045,2044,2050,2053,2046,2050,2052,2092
2050,2041,2048,2055,2048,2035,2048,2091
2040,2030,2042,2048,2044,2027,2041,2083
2041,2033,2037,2043,2042,2028,2042,2083
2037,2042,2044,2052,2039,2038,2053,2084
2049,2043,2047,2051,2041,2023,2058,2086
2053,2045,2048,2048,2038,2020,2021,2075
2054,2055,2052,2054,2045,2017,2026,2070
2048,2054,2050,2048,2049,2021,2036,2062
2050,2052,2045,2049,2041,2029,2014,2055
2050,2055,2049,2050,2035,2030,2011,2046
2053,2052,2049,2046,2029,2036,2018,2039
2046,2048,2048,2043,2038,2049,2024,2031
2047,2050,2057,2041,2042,2065,2036,2024
2047,2048,2050,2039,2020,2076,2018,2016
2045,2046,2041,2032,1988,2076,2010,2005
2036,2038,2038,2029,1957,2070,1999,1998
2031,2031,2037,2020,1958,2067,1996,1996
2026,2022,2027,2008,1941,2040,1979,1997
2029,2018,2030,2022,1972,2007,1994,2022
2039,2032,2046,2042,2037,2044,2029,2044
2056,2040,2054,2043,2045,2058,2022,2037
2066,2041,2058,2046,2048,2053,2017,2048
2066,2052,2057,2052,2061,2009,2048,2059
2067,2051,2058,2061,2079,2036,2066,2058
2066,2055,2065,2070,2097,2082,2072,2057
2054,2054,2063,2063,2089,2084,2075,2068
2062,2053,2060,2061,2090,2084,2075,2063
2055,2043,2056,2063,2083,2075,2075,2068
2053,2043,2057,2066,2082,2073,2078,2071
2045,2044,2059,2065,2081,2089,2060,2083
2050,2050,2061,2068,2090,2103,2069,2088
2048,2042,2053,2061,2080,2079,2061,2085
2043,2039,2052,2059,2072,2055,2051,2091
2039,2033,2048,2053,2070,2057,2052,2093
2034,2027,2043,2051,2070,2066,2052,2094
2032,2028,2039,2051,2044,2072,2061,2110
2040,2039,2043,2046,2034,2068,2071,2112
2046,2042,2050,2046,2020,2067,2065,2106
2051,2048,2052,2053,2012,2066,2055,2093
2054,2047,2046,2046,2014,2074,2046,2083
2052,2043,2037,2035,2009,2064,2033,2065
2043,2038,2034,2020,1969,2043,2018,2057
2038,2039,2035,2021,1955,2024,2022,2046
2044,2041,2041,2019,1960,2000,2030,2041
2047,2040,2036,2015,1982,1994,2023,2038
2042,2046,2042,2038,2061,2021,2030,2046
2043,2060,2065,2075,2106,2044,2055,2052
2054,2067,2062,2080,2102,2036,2048,2048
2062,2061,2064,2079,2107,2039,2032,2046
2063,2057,2058,2069,2102,2065,2031,2035
2054,2050,2046,2055,2090,2095,2046,2034
2035,2034,2037,2051,2078,2086,2047,2024
2036,2028,2038,2058,2082,2068,2055,2029
2047,2041,2042,2060,2079,1986,2044,2030
2039,2049,2050,2059,2076,1999,2052,2037
2040,2049,2047,2056,2073,2005,2074,2042
2041,2048,2049,2058,2060,1997,2066,2042
2039,2046,2050,2059,2065,1982,2077,2040
2036,2046,2050,2060,2075,1978,2058,2051
2041,2050,2056,2055,2074,1986,2056,2062
2077,2063,2058,2057,2075,1996,2049,2062
2094,2061,2062,2062,2072,2023,2034,2058
2069,2058,2056,2059,2070,2073,2038,2066
2061,2053,2054,2065,2078,2113,2055,2080
2048,2052,2053,2066,2076,2098,2035,2081
2045,2042,2052,2050,2059,2067,2025,2100
2050,2049,2046,2057,2058,2081,2036,2099
2039,2033,2037,2045,2055,2073,2021,2087
2040,2027,2037,2045,2049,2080,2036,2091
2038,2038,2042,2051,2056,2094,2031,2097
2042,2045,2049,2050,2047,2012,2021,2093
2046,2052,2050,2045,2046,1963,2033,2084
2047,2051,2043,2045,2048,1961,2034,2064
2043,2043,2040,2039,2029,1982,2065,2057
2039,2035,2034,2033,2024,2007,2063,2039
2040,2034,2032,2025,2025,2032,2067,2036
2051,2034,2027,2029,2014,2040,2060,2049
2059,2039,2034,2032,2018,2078,2084,2054
2066,2045,2035,2029,2015,2096,2085,2062
2054,2042,2034,2025,2011,2103,2077,2047
2049,2038,2037,2032,2035,2092,2068,2044
2054,2049,2043,2046,2069,2114,2056,2049
2063,2052,2051,2060,2086,2110,2058,2055
2072,2057,2051,2059,2098,2100,2047,2041
2060,2048,2048,2055,2084,2099,2040,2034
2056,2044,2049,2055,2076,2100,2067,2048
2065,2050,2053,2054,2087,2080,2088,2057
2067,2056,2056,2067,2093,2064,2108,2060
2071,2056,2057,2062,2089,2022,2115,2069
2075,2056,2062,2063,2089,2010,2131,2081
2077,2059,2056,2064,2085,2004,2138,2080
2079,2052,2059,2059,2076,2049,2143,2083
2070,2050,2051,2062,2083,2110,2167,2088
2075,2054,2056,2067,2087,2167,2159,2090
2069,2057,2068,2066,2088,2181,2152,2092
2066,2058,2059,2065,2093,2098,2112,2098
2052,2052,2056,2058,2083,2106,2071,2096
2050,2055,2054,2060,2055,2108,2012,2102
2063,2055,2061,2058,2049,2071,1993,2096
2069,2066,2065,2058,2060,1992,1894,2088
2064,2067,2065,2067,2060,2078,1951,2100
2068,2068,2062,2074,2085,2210,2031,2119
2076,2076,2074,2086,2120,2272,2039,2126
2073,2074,2073,2089,2112,2213,2024,2115
2056,2060,2071,2075,2081,2075,1984,2109
2057,2057,2060,2064,2054,1870,1965,2113
2058,2054,2052,2056,2045,1866,1965,2126
2068,2053,2057,2053,2041,1881,1948,2126
2074,2052,2052,2045,2042,1909,2038,2148
2082,2059,2049,2048,2022,1901,2054,2180
2095,2064,2047,2050,2018,1934,2091,2191
2111,2072,2064,2049,2015,1961,2118,2184
2106,2074,2058,2043,2018,1954,2128,2171
2103,2069,2052,2035,2003,1907,2100,2149
2103,2070,2052,2027,1984,1857,2068,2121
2090,2068,2047,2027,1987,1898,2088,2086
2084,2074,2051,2041,2008,1931,2085,2062
2076,2065,2051,2040,2023,1957,2101,2041
2061,2060,2057,2051,2043,2011,2101,2018
2047,2059,2056,2045,2051,2060,2168,2011
2035,2053,2051,2034,2035,2110,2139,2006
2010,2034,2036,2021,2017,2210,2037,1967
1992,2023,2023,2001,1994,2325,1970,1915
1978,2013,2020,1995,1975,2327,1897,1899
1964,2012,2019,2000,1982,2314,1970,1901
1973,2006,2019,2011,1999,2242,2091,1905
1981,2013,2034,2035,2052,2178,2184,1964
2000,2024,2044,2049,2087,2170,2196,2014
2004,2032,2044,2058,2102,2150,2181,2017
2010,2026,2033,2049,2099,2111,2090,2021
2019,2029,2030,2048,2084,2073,2006,2022
2036,2043,2043,2045,2067,2013,1946,2003
2037,2047,2046,2046,2056,1960,1904,1984
2025,2037,2042,2049,2056,1979,1916,2000
2026,2045,2049,2067,2078,2008,1963,2016
2030,2049,2048,2067,2067,2004,1987,2038
2039,2045,2054,2067,2065,2033,1995,2073
2049,2039,2048,2066,2071,2077,2051,2112
2060,2044,2049,2065,2080,2122,2072,2137
2068,2041,2048,2065,2078,2146,2072,2128
2063,2038,2043,2061,2076,2164,2074,2079
2055,2026,2034,2052,2058,2142,2085,2060
2051,2028,2025,2044,2047,2093,2086,2059
2053,2028,2026,2043,2050,2058,2068,2054
2057,2026,2032,2051,2051,2034,2055,2031
2066,2037,2028,2041,2029,2014,2043,2010
2072,2054,2037,2038,2019,1949,2016,1983
2060,2049,2037,2037,2031,1976,2029,1967
2056,2051,2041,2042,2043,2044,2030,1964
2050,2043,2035,2039,2060,2099,2030,1972
2040,2034,2030,2040,2058,2081,2009,1979
2052,2038,2040,2037,2045,2017,2014,1984
2060,2041,2041,2044,2044,1994,1972,1988
2060,2037,2043,2034,2041,2009,1949,2003
2060,2037,2042,2037,2044,2019,1968,1998
2058,2026,2033,2028,2037,2008,1961,1991
2055,2027,2034,2027,2032,2030,2009,2001
2057,2032,2042,2020,2031,2067,2015,2002
2053,2045,2047,2018,2018,2094,2023,1993
2037,2038,2048,2016,2016,2102,1999,1996
2026,2037,2042,2016,2016,2133,2007,2012
2035,2040,2043,2024,2033,2179,2043,2026
2042,2047,2045,2033,2044,2177,2057,2031
2048,2060,2051,2035,2051,2098,2058,2051
2052,2072,2058,2034,2044,2039,2047,2056
2053,2057,2049,2028,2037,2064,2050,2050
2044,2049,2042,2025,2047,2115,2061,2061
2050,2054,2044,2037,2049,2116,2064,2068
2054,2050,2048,2040,2055,2118,2054,2067
2053,2054,2049,2035,2045,2063,2026,2092
2041,2049,2049,2025,2028,1967,2027,2094
2035,2048,2049,2022,2028,1954,2041,2069
2025,2045,2045,2024,2018,1995,2038,2038
2014,2036,2037,2012,2002,1992,2024,2020
2008,2038,2037,2005,1998,1997,1997,2014
2026,2046,2039,2013,1994,2018,1999,2022
2041,2061,2053,2015,2013,2050,1995,2013
2056,2071,2060,2028,2050,2107,2032,2014
2049,2078,2069,2040,2077,2137,2047,2015
2059,2073,2074,2039,2068,2123,2058,2021
2049,2069,2064,2034,2055,2007,2050,2020
2042,2056,2056,2025,2037,1919,2040,2022
2042,2048,2056,2030,2034,1954,2051,2036
2063,2057,2059,2033,2052,1998,2070,2056
2073,2065,2062,2030,2040,2024,2082,2067
2074,2070,2061,2027,2034,2030,2089,2073
2081,2066,2061,2024,2030,2027,2071,2068
2074,2061,2047,2024,2029,2026,2073,2056
2064,2052,2051,2022,2026,2014,2064,2055
2063,2053,2053,2028,2030,1970,2054,2052
2070,2061,2057,2033,2042,1956,2033,2057
2064,2050,2044,2029,2050,1965,2023,2055
2064,2042,2042,2035,2054,1994,2020,2043
2052,2039,2036,2034,2066,2005,1999,2051
2050,2033,2036,2036,2068,2020,2002,2070
2054,2036,2041,2040,2074,2064,2024,2079
2049,2038,2033,2037,2060,2081,2036,2086
2052,2039,2024,2027,2052,2024,2037,2099
2040,2034,2029,2021,2021,1955,2014,2095
2032,2044,2037,2023,2022,1961,2031,2095
2045,2045,2045,2034,2029,2013,2056,2093
2044,2043,2042,2023,2028,2072,2051,2082
2050,2045,2050,2018,2040,2110,2085,2085
2059,2055,2055,2026,2042,2130,2096,2076
2060,2065,2067,2029,2048,2082,2057,2073
2075,2071,2081,2038,2045,2063,2040,2066
2066,2073,2073,2045,2060,2112,2072,2050
2070,2069,2075,2044,2070,2126,2054,2033
2063,2072,2070,2037,2072,2115,2046,2005
2053,2061,2063,2030,2063,2102,2043,2002
2046,2063,2057,2034,2083,2143,2024,1981
2038,2057,2056,2034,2074,2082,2021,1976
2025,2045,2046,2026,2064,2047,2033,1964
2018,2042,2045,2026,2038,2023,1998,1959
2008,2027,2042,2020,2033,2000,1985,1961
2015,2035,2048,2026,2027,2024,1981,1969
2034,2059,2059,2016,2015,2026,1969,1972
2038,2056,2055,2021,2025,2043,1990,1991
2038,2055,2053,2023,2036,2064,2006,1988
2034,2053,2047,2024,2032,2068,2029,1985
2031,2044,2040,2025,2037,2080,2022,2001
2030,2049,2046,2025,2045,2070,2045,2026
2042,2047,2048,2027,2048,2053,2049,2037
2041,2050,2052,2039,2049,2050,2041,2038
2044,2060,2053,2041,2056,2057,2040,2050
2040,2057,2058,2040,2060,2048,2032,2054
2046,2053,2052,2037,2054,2061,2005,2052
2029,2037,2045,2014,2021,2059,2014,2037
2020,2033,2038,2010,2001,2058,2015,2043
2013,2027,2034,1996,1973,2034,2020,2046
2011,2016,2023,1999,1958,1990,2052,2076
2016,2030,2045,2021,1967,1928,2066,2104
2041,2058,2067,2033,1980,1922,2047,2110
2058,2070,2075,2036,2010,1955,2074,2100
2055,2065,2071,2036,2033,2000,2032,2085
2044,2060,2062,2041,2069,2061,2072,2085
2053,2058,2061,2046,2093,2124,2065,2064
2050,2054,2053,2046,2104,2154,2070,2062
2044,2055,2055,2047,2108,2152,2034,2051
2047,2061,2059,2053,2101,2114,2028,2041
2046,2064,2063,2054,2091,2082,2036,2028
2052,2064,2065,2046,2060,2059,2030,2017
2046,2064,2063,2045,2054,2050,2036,2013
2053,2063,2064,2058,2092,2057,2033,2008
2057,2069,2064,2060,2095,2042,2021,2005
2051,2060,2057,2055,2084,2015,2003,1996
2046,2053,2053,2046,2070,1991,2008,1992
2053,2054,2047,2051,2043,1978,2022,2003
2065,2058,2051,2042,2033,1990,2017,2005
2062,2065,2058,2037,2046,2035,2030,1997
2059,2057,2051,2026,2039,2082,2030,1996
2055,2049,2043,2011,1993,2103,2054,1993
2045,2042,2040,2011,2022,2118,2043,2006
2034,2048,2039,2021,2055,2141,2057,2015
2036,2050,2043,2033,2064,2142,2069,2038
2050,2055,2045,2039,2076,2125,2085,2049
2044,2050,2044,2044,2078,2112,2091,2057
2046,2046,2046,2047,2086,2073,2063,2060
2041,2043,2036,2042,2087,2045,2054,2066
2038,2042,2039,2039,2076,2058,2064,2078
2044,2039,2040,2028,2072,2070,2054,2083
2043,2037,2033,2031,2062,2068,2047,2078
2032,2023,2023,2026,2049,2032,2037,2081
2032,2016,2024,2020,2025,2016,2046,2078
2037,2028,2026,2010,1988,1985,2020,2070
2027,2022,2028,2009,1970,1969,2006,2064
2035,2027,2028,2010,1967,1979,2008,2054
2036,2029,2022,2000,1980,2009,2013,2040
2031,2023,2025,2010,2020,2045,2028,2046
2039,2045,2043,2046,2067,2063,2053,2045
2052,2053,2052,2050,2069,2059,2042,2038
2051,2050,2053,2040,2048,2057,2052,2030
2050,2056,2054,2038,2037,2039,2052,2023
2060,2051,2046,2033,2023,2033,2024,2017
2056,2042,2037,2022,2011,2023,2026,2007
2042,2028,2024,2011,2010,2020,2027,2001
2043,2028,2028,2015,2033,2024,2020,1991
2043,2038,2031,2031,2052,2019,2009,1988
2040,2032,2026,2029,2041,2022,2025,1987
2055,2039,2027,2030,2039,2040,2032,1985
2046,2047,2037,2036,2032,2044,2021,1977
2040,2038,2036,2031,2035,2033,2020,1983
2038,2047,2041,2028,2030,2054,2043,1994
2042,2052,2045,2020,2004,2062,2038,2011
2051,2057,2040,2021,1992,2065,2021,2020
2053,2052,2047,2022,1986,2068,2036,2024
2049,2047,2038,2020,1994,2043,2057,2030
2047,2052,2047,2055,2077,2008,2065,2052
2057,2058,2055,2065,2135,2050,2072,2057
2049,2051,2060,2055,2121,2108,2073,2050
2032,2045,2052,2045,2105,2166,2064,2052
2027,2047,2053,2050,2106,2159,2068,2065
2034,2054,2057,2057,2109,2109,2041,2067
2032,2053,2053,2050,2099,2082,2030,2062
2044,2046,2043,2038,2080,2060,2008,2065
2045,2041,2039,2036,2066,2082,2024,2071
2050,2051,2039,2036,2064,2119,2039,2069
2046,2047,2036,2040,2060,2098,2040,2066
2049,2043,2032,2033,2051,2077,2054,2060
2051,2036,2038,2031,2036,2100,2040,2051
2047,2039,2038,2033,2039,2148,2050,2041
2053,2043,2042,2030,2036,2152,2053,2030
2060,2050,2054,2037,2028,2067,2030,2018
2058,2059,2053,2029,2020,1928,2006,2011
2059,2050,2046,2033,2016,1927,2024,2006
2049,2049,2046,2037,2027,1976,2014,2014
2046,2045,2043,2032,2037,1997,2031,2016
2049,2037,2035,2027,2040,2006,2027,2010
2045,2043,2036,2036,2060,2013,2017,2013
2049,2042,2039,2037,2060,2040,2036,2013
2048,2036,2041,2038,2051,2048,2043,2018
2049,2041,2047,2038,2057,2062,2056,2015
2053,2056,2070,2050,2069,2093,2063,2025
2055,2060,2064,2050,2074,2134,2078,2015
2056,2056,2058,2039,2062,2141,2049,2007
2043,2040,2040,2022,2037,2092,2025,2001
2039,2038,2039,2020,2024,1993,2001,2004
2038,2039,2044,2026,2046,1983,2028,2017
2053,2052,2051,2039,2067,2045,2047,2035
2062,2058,2061,2048,2073,2062,2046,2045
2062,2063,2066,2056,2084,2040,2020,2056
2061,2061,2060,2054,2075,1991,2054,2059
2058,2053,2057,2041,2053,2003,2016,2068
2043,2052,2047,2029,2035,2008,2005,2084
2042,2045,2050,2031,2030,2030,2016,2084
2030,2041,2043,2026,2025,2057,2012,2075
2030,2036,2038,2023,2046,2076,2040,2074
2037,2037,2046,2040,2072,2090,2050,2078
2038,2044,2056,2047,2079,2102,2079,2086
2031,2042,2053,2050,2079,2114,2073,2092
2027,2038,2049,2041,2076,2121,2067,2088
2024,2034,2044,2031,2056,2117,2069,2084
2032,2036,2037,2036,2052,2115,2071,2071
2029,2039,2044,2037,2063,2117,2068,2057
2027,2041,2047,2043,2071,2057,2054,2042
2024,2037,2047,2036,2052,1991,2034,2039
2067,2041,2046,2038,2036,1988,2029,2037
2086,2051,2045,2030,2028,1963,2028,2019
2061,2047,2041,2020,2023,1973,2017,2001
2047,2041,2036,2026,2024,1998,2026,1995
2040,2047,2043,2032,2030,2022,2032,1995
2043,2044,2046,2037,2036,2034,2056,1988
2034,2041,2045,2036,2038,2025,2050,1985
2037,2041,2050,2034,2045,2027,2042,1998
2043,2057,2055,2037,2051,2050,2049,2014
2045,2056,2052,2036,2047,2054,2061,2014
2046,2054,2039,2035,2050,2052,2066,2013
2040,2053,2040,2035,2037,2046,2049,2012
2042,2049,2037,2031,2037,2042,2059,2021
2044,2046,2040,2039,2055,2050,2062,2034
2048,2046,2043,2042,2052,2058,2052,2041
2051,2051,2040,2039,2053,2051,2028,2052
2058,2046,2043,2033,2052,2043,2039,2060
2058,2044,2040,2039,2064,2046,2038,2060
2057,2048,2041,2041,2062,2045,2039,2066
2053,2046,2039,2046,2070,2046,2018,2063
2048,2043,2044,2045,2068,2071,2017,2068
2046,2045,2046,2038,2062,2069,2030,2077
2035,2033,2036,2027,2046,2031,2015,2074
2028,2030,2021,2025,2034,2003,1972,2080
2036,2030,2024,2023,2039,2018,2012,2080
2041,2029,2029,2026,2038,2029,2005,2075
2048,2037,2036,2022,2039,2028,2019,2070
2039,2036,2039,2027,2038,2014,2024,2075
2052,2040,2044,2032,2048,2016,2050,2078
2060,2047,2050,2035,2044,2019,2051,2069
2065,2049,2051,2037,2045,2007,2043,2054
2064,2052,2051,2037,2048,2005,2035,2056
2066,2055,2054,2038,2055,2010,2024,2040
2062,2055,2054,2049,2070,2020,2023,2032
2059,2058,2056,2056,2074,2017,2033,2006
2052,2060,2053,2045,2070,2035,2054,2011
2055,2059,2048,2042,2061,2096,2045,2024
2067,2060,2051,2035,2058,2136,2035,2021
2063,2056,2046,2028,2042,2120,2013,1998
2045,2047,2036,2018,2032,2084,2029,1986
2043,2055,2044,2023,2031,2073,2044,1993
2059,2059,2042,2024,2031,2052,2041,1997
2051,2048,2040,2027,2027,2039,2054,1998
2048,2047,2037,2026,2042,2020,2057,2002
2038,2046,2044,2033,2058,2010,2056,2019
2039,2056,2050,2047,2076,2006,2053,2027
2042,2054,2055,2051,2078,2025,2068,2030
2034,2056,2053,2059,2082,2052,2079,2041
2031,2056,2055,2055,2083,2110,2070,2051
2042,2058,2049,2053,2074,2125,2085,2076
2050,2046,2061,2055,2076,2059,2065,2085
2055,2050,2061,2050,2062,2010,2049,2087
2053,2053,2060,2048,2053,2008,2039,2080
2044,2048,2056,2052,2055,2020,2047,2082
2052,2039,2049,2046,2056,2019,2043,2089
2040,2035,2048,2042,2050,2028,2029,2090
2049,2043,2049,2050,2057,2055,2066,2090
2044,2048,2046,2048,2057,2076,2057,2079
2047,2051,2047,2044,2058,2081,2044,2073
2040,2046,2037,2039,2059,2082,2046,2068
2043,2046,2038,2030,2056,2078,2039,2061
2037,2044,2032,2030,2046,2071,2041,2041
2037,2031,2029,2026,2045,2060,2037,2033
2037,2029,2032,2031,2043,2055,2035,2029
2032,2033,2037,2032,2045,2042,2026,2026
2039,2040,2042,2035,2040,2036,2020,2023
2041,2051,2045,2036,2041,2044,2014,2024
2051,2062,2050,2046,2051,2052,2032,2021
2057,2058,2047,2043,2054,2056,2048,2012
2062,2062,2043,2042,2041,2045,2054,2009
2052,2052,2033,2031,2034,2026,2039,1994
2041,2037,2030,2029,2034,2030,2043,1998
2045,2039,2042,2032,2047,2043,2059,2007
2046,2046,2034,2032,2049,2048,2070,2010
2050,2044,2040,2036,2053,2049,2068,2008
2048,2048,2039,2040,2055,2044,2064,2015
2055,2047,2047,2047,2061,2056,2072,2024
2052,2048,2043,2044,2064,2056,2072,2021
2046,2054,2044,2045,2058,2054,2075,2024
2049,2051,2041,2041,2061,2045,2057,2040
2044,2043,2041,2042,2058,2020,2056,2053
2049,2042,2039,2041,2061,2010,2075,2064
2047,2041,2037,2042,2069,2013,2065,2074
2053,2045,2040,2045,2068,2018,2093,2090
2063,2053,2042,2045,2071,2038,2089,2096
2056,2060,2046,2052,2076,2063,2078,2105
2059,2056,2054,2046,2065,2071,2091,2105
2054,2046,2040,2027,2034,2068,2069,2101
2044,2037,2034,2029,2035,2094,2062,2099
2053,2043,2039,2035,2039,2148,2074,2091
2054,2047,2043,2034,2032,2176,2075,2082
2052,2048,2038,2028,2030,2146,2037,2073
2045,2039,2028,2025,2021,2040,2026,2049
2040,2034,2034,2027,2017,2017,2048,2049
2041,2039,2035,2022,2016,2038,2039,2059
2055,2055,2044,2028,2028,2026,2060,2051
2048,2051,2041,2026,2035,2035,2041,2039
2044,2045,2037,2027,2031,2030,2037,2031
2042,2037,2042,2021,2023,2025,2026,2022
2039,2027,2032,2019,2012,2030,2045,2018
2038,2032,2030,2011,2026,2036,2048,2006
2049,2040,2037,2016,2045,2055,2059,2011
2051,2042,2035,2028,2081,2085,2069,2016
2054,2046,2044,2043,2087,2050,2054,2023
2053,2049,2047,2050,2077,2021,2038,2016
2053,2057,2054,2053,2068,1995,2011,2012
2054,2059,2050,2050,2066,2012,2034,2010
2044,2056,2045,2050,2068,2011,2034,2020
2041,2046,2048,2051,2082,2046,2048,2016
2044,2048,2042,2051,2081,2067,2053,2011
2044,2042,2047,2048,2074,2068,2045,2023
2039,2042,2037,2041,2065,2047,2051,2028
2046,2039,2038,2039,2063,2057,2044,2032
2051,2035,2039,2040,2062,2094,2043,2038
2053,2038,2035,2041,2073,2120,2088,2048
2058,2044,2051,2048,2080,2116,2069,2065
2067,2043,2053,2052,2091,2085,2062,2074
2057,2039,2048,2055,2081,2067,2050,2079
2052,2037,2042,2049,2087,2099,2053,2096
2045,2039,2039,2043,2071,2101,2071,2097
2038,2033,2032,2036,2063,2080,2053,2091
2033,2031,2035,2034,2059,2060,2052,2091
2032,2040,2038,2033,2051,2039,2032,2082
2034,2044,2037,2038,2044,1998,2035,2078
2041,2041,2037,2038,2042,1987,2011,2077
2048,2050,2037,2040,2048,1976,2018,2083
2065,2055,2036,2047,2067,2012,2052,2086
2064,2060,2037,2053,2070,2037,2050,2078
2066,2061,2038,2055,2065,2044,2076,2070
2067,2061,2043,2059,2046,2064,2086,2054
2068,2053,2047,2061,2085,2070,2071,2043
2057,2046,2046,2058,2092,2046,2047,2041
2051,2049,2040,2051,2065,2025,2049,2034
2052,2042,2038,2051,2055,2025,2053,2024
2046,2044,2037,2048,2022,2032,2048,2014
2050,2041,2040,2046,2024,2050,2032,2012
2043,2037,2035,2043,2031,2054,2030,2003
2033,2030,2032,2039,2038,2063,2027,1990
2026,2036,2032,2038,2022,2048,2022,1985
2026,2034,2031,2029,2026,2059,2041,1985
2035,2037,2043,2045,2063,2087,2059,1996
2043,2045,2043,2045,2063,2057,2070,2004
2043,2041,2042,2044,2055,2041,2045,2019
2055,2048,2040,2047,2066,2043,2045,2036
2054,2047,2042,2049,2068,2055,2065,2045
2049,2046,2034,2044,2074,2048,2065,2049
2050,2036,2032,2041,2072,2040,2088,2053
2035,2025,2028,2045,2081,2047,2066,2051
2024,2021,2031,2049,2082,2053,2065,2066
2028,2032,2035,2046,2067,2030,2061,2082
2034,2040,2034,2049,2066,2011,2073,2099
2045,2051,2041,2049,2063,2020,2081,2113
2055,2052,2042,2052,2053,2025,2058,2107
2054,2044,2034,2039,2026,2010,2057,2104
2045,2036,2029,2035,2015,2002,2054,2086
2046,2044,2032,2033,2016,2011,2044,2076
2050,2054,2035,2026,2021,2034,2052,2071
2042,2046,2033,2028,2001,2056,2039,2064
2042,2040,2035,2019,1978,2093,2051,2057
2044,2039,2026,2016,1959,2080,2047,2039
2042,2039,2031,2021,1971,2029,2026,2041
2034,2034,2037,2030,2005,2021,2031,2042
2038,2038,2038,2041,2040,2047,2044,2046
2047,2044,2046,2059,2084,2081,2061,2045
2054,2048,2056,2071,2108,2107,2082,2045
2058,2055,2053,2070,2120,2143,2085,2047
2057,2052,2052,2062,2114,2167,2086,2048
2055,2046,2051,2056,2101,2183,2072,2031
2054,2050,2053,2054,2081,2199,2061,2017
2048,2042,2045,2051,2073,2146,2050,2002
2045,2036,2045,2044,2058,2075,2061,2002
2041,2035,2042,2046,2051,1974,2051,2012
2049,2038,2039,2037,2035,1911,2046,2014
2051,2041,2038,2034,2042,1966,2044,2018
2036,2031,2032,2040,2046,2011,2053,2004
2032,2032,2044,2056,2066,2034,2056,2003
2042,2049,2072,2067,2074,2047,2064,2021
2043,2058,2069,2067,2079,2052,2059,2034
2047,2059,2059,2059,2073,2052,2084,2052
2050,2053,2055,2053,2070,2041,2066,2057
2049,2053,2052,2051,2054,2022,2050,2056
2049,2055,2058,2045,2055,2018,2035,2068
2040,2062,2058,2051,2059,2030,2036,2077
2039,2058,2057,2060,2074,2046,2057,2091
2043,2066,2064,2058,2085,2061,2033,2087
2051,2066,2059,2057,2069,2073,2024,2085
2039,2051,2044,2042,2044,2050,2002,2083
2046,2049,2047,2037,2044,2036,2021,2107
2053,2068,2055,2044,2036,2021,2037,2105
2060,2062,2059,2041,2030,2033,2036,2103
2057,2061,2054,2043,2025,2041,2040,2092
2057,2066,2055,2046,2031,2042,2052,2072
2062,2065,2054,2050,2033,2033,2041,2069
2063,2067,2051,2050,2022,1998,2020,2053
2063,2068,2057,2048,2015,1968,2016,2038
2056,2064,2052,2047,2007,1966,2043,2028
2051,2070,2057,2039,2006,1973,2049,2031
2047,2062,2052,2043,2025,1972,2042,2012
2045,2063,2053,2044,2053,1977,2059,2008
2045,2063,2050,2056,2076,2007,2072,2014
2045,2060,2054,2054,2084,2052,2079,2012
2044,2055,2047,2045,2088,2109,2059,2011
2044,2042,2038,2046,2078,2116,2059,2013
2052,2049,2045,2048,2067,2093,2086,2015
2060,2066,2052,2053,2064,2082,2096,2011
2055,2056,2045,2042,2056,2065,2084,2014
2051,2053,2041,2045,2060,2077,2100,2013
2055,2055,2045,2044,2061,2085,2084,2019
2053,2052,2040,2043,2054,2087,2086,2013
2041,2057,2041,2053,2048,2083,2075,2022
2040,2049,2041,2045,2030,2062,2084,2025
2040,2047,2037,2041,2032,2054,2077,2034
2045,2050,2047,2047,2037,2062,2063,2055
2044,2050,2051,2047,2049,2052,2055,2062
2049,2048,2048,2051,2061,2055,2066,2078
2043,2047,2050,2047,2059,2052,2066,2089
2044,2047,2049,2052,2058,2059,2060,2094
2045,2049,2050,2053,2059,2062,2063,2108
2048,2055,2047,2052,2061,2055,2064,2098
2050,2047,2042,2045,2064,2053,2064,2100
2041,2042,2035,2038,2078,2062,2056,2103
2044,2054,2042,2044,2083,2077,2049,2093
2051,2049,2045,2053,2094,2066,2028,2095
2048,2041,2046,2047,2081,2037,2054,2094
2046,2033,2042,2051,2060,2024,2046,2084
2049,2037,2038,2047,2060,2027,2051,2076
2050,2048,2037,2048,2050,2030,2062,2071
2047,2040,2035,2047,2056,2044,2069,2062
2044,2042,2040,2047,2055,2045,2058,2064
2052,2040,2042,2046,2050,2062,2056,2053
2043,2046,2043,2048,2057,2075,2058,2042
2043,2052,2044,2052,2061,2103,2061,2039
2048,2056,2043,2051,2059,2119,2062,2034
2042,2052,2048,2051,2061,2123,2058,2029
2038,2048,2041,2053,2059,2108,2048,2020
2040,2041,2035,2054,2063,2090,2052,2009
2039,2032,2035,2051,2066,2076,2047,2012
2040,2042,2045,2065,2077,2064,2066,2015
2050,2058,2051,2067,2082,2063,2074,2022
2062,2063,2051,2070,2082,2065,2072,2030
2056,2058,2057,2068,2081,2077,2076,2030
2060,2048,2049,2061,2071,2076,2056,2029
2056,2052,2043,2066,2058,2096,2071,2033
2057,2048,2047,2062,2061,2150,2041,2038
2050,2044,2042,2055,2052,2121,2042,2036
2044,2040,2045,2052,2045,1989,2016,2034
2032,2044,2046,2048,2039,1897,2015,2041
2026,2039,2042,2044,2035,1948,2008,2052
2028,2039,2042,2050,2050,2011,2021,2068
2040,2039,2043,2052,2063,2050,2061,2094
2047,2046,2047,2054,2069,2063,2059,2099
2049,2046,2051,2059,2068,2068,2067,2104
2046,2040,2042,2056,2059,2064,2058,2106
2046,2038,2041,2049,2051,2061,2067,2108
2039,2051,2044,2048,2050,2054,2068,2094
2044,2050,2046,2047,2046,2053,2060,2092
2043,2049,2050,2046,2045,2052,2071,2088
2046,2051,2052,2046,2051,2067,2088,2086
2049,2044,2048,2049,2045,2078,2062,2080
2048,2046,2046,2049,2044,2072,2063,2063
2046,2048,2047,2049,2050,2076,2069,2055
2052,2052,2045,2052,2055,2070,2058,2056
2052,2053,2036,2049,2051,2051,2062,2045
2046,2050,2043,2044,2048,2041,2064,2039
2046,2052,2038,2051,2047,2043,2062,2035
2052,2049,2034,2049,2045,2038,2084,2036
2059,2053,2032,2049,2053,2037,2070,2031
2058,2049,2035,2056,2056,2014,2042,2014
2060,2052,2039,2054,2051,1989,2029,2008
2049,2041,2034,2046,2049,2006,2038,2004
2050,2040,2034,2044,2054,2024,2046,2019
2067,2050,2046,2059,2053,1984,2033,2018
2062,2056,2043,2056,2044,1965,2020,2025
2061,2057,2046,2054,2039,1983,2029,2017
2065,2051,2049,2055,2055,2010,2031,2020
2063,2055,2047,2054,2055,2039,2052,2023
2057,2052,2046,2056,2051,2045,2033,2021
2043,2042,2042,2050,2045,2023,2012,2022
2032,2031,2039,2050,2047,2025,2022,2034
2028,2034,2043,2047,2049,2041,2026,2064
2043,2045,2051,2055,2058,2060,2074,2088
2064,2049,2053,2069,2063,2070,2074,2102
2062,2054,2053,2069,2068,2077,2060,2100
2055,2049,2050,2064,2062,2083,2050,2095
2042,2042,2035,2059,2060,2070,2045,2089
2036,2038,2030,2046,2055,2058,2050,2081
2026,2024,2027,2050,2054,2070,2052,2089
2015,2022,2026,2049,2047,2080,2045,2088
2026,2035,2032,2049,2053,2075,2052,2083
2041,2039,2036,2053,2043,2062,2056,2076
2037,2046,2038,2050,2038,2061,2050,2076
2032,2036,2038,2042,2041,2064,2031,2065
2027,2040,2037,2043,2041,2064,2059,2055
2029,2038,2035,2041,2036,2058,2057,2047
2029,2036,2036,2044,2034,2057,2061,2040
2033,2039,2043,2046,2026,2052,2069,2037
2037,2039,2041,2051,2022,2040,2073,2031
2045,2039,2039,2050,2026,2033,2067,2023
2044,2038,2042,2043,2023,2030,2067,2026
2051,2045,2045,2041,2005,2030,2054,2023
2046,2046,2040,2044,1997,2041,2042,2020
2045,2040,2040,2042,1990,2034,2059,2018
2038,2034,2029,2033,1997,2031,2053,1996
2029,2026,2026,2028,2016,2048,2050,1996
2036,2044,2043,2055,2062,2082,2082,2023
2051,2055,2051,2069,2084,2088,2073,2030
2055,2062,2052,2065,2080,2065,2067,2027
2053,2054,2052,2078,2088,2064,2070,2032
2061,2061,2054,2077,2091,2067,2075,2037
2062,2053,2048,2068,2080,2059,2068,2050
2055,2052,2046,2068,2066,2069,2066,2056
2057,2051,2047,2061,2054,2066,2068,2061
2060,2046,2040,2054,2048,2020,2035,2068
2050,2042,2039,2044,2055,2008,2041,2065
2045,2043,2043,2046,2054,1997,2040,2085
2055,2043,2044,2047,2058,2022,2048,2102
2056,2048,2044,2054,2060,2030,2063,2112
2055,2038,2042,2060,2067,2051,2062,2113
2048,2045,2052,2068,2074,2074,2077,2108
2032,2042,2051,2067,2070,2069,2032,2102
2035,2041,2048,2065,2061,2056,2027,2099
2045,2050,2061,2064,2061,2014,2023,2092
2046,2048,2057,2061,2061,2030,2036,2084
2046,2039,2043,2056,2060,2078,2024,2076
2037,2037,2039,2042,2045,2101,2046,2082
2037,2042,2042,2040,2043,2094,2045,2068
2036,2046,2046,2046,2040,2065,2038,2062
2045,2048,2047,2050,2039,2043,2048,2055
2047,2045,2050,2056,2037,2037,2046,2048
2041,2051,2057,2056,2044,2040,2047,2042
2037,2055,2056,2061,2032,2035,2030,2030
2036,2055,2055,2054,2024,2033,2023,2029
2042,2054,2052,2056,2036,2040,2026,2031
2048,2045,2049,2056,2059,2059,2038,2025
2045,2039,2044,2055,2053,2072,2045,2019
2044,2035,2039,2053,2046,2068,2033,2020
2040,2030,2035,2050,2038,2067,2046,2034
2040,2041,2044,2057,2043,2073,2047,2023
2061,2054,2060,2066,2045,2079,2047,2021
2048,2050,2061,2067,2044,2087,2050,2024
2045,2051,2058,2058,2036,2051,2046,2018
2041,2048,2054,2056,2036,2029,2037,2029
2040,2041,2051,2059,2049,2015,2037,2024
2045,2050,2058,2055,2045,2004,2035,2039
2050,2058,2058,2059,2055,2015,2044,2055
2056,2057,2055,2059,2065,2034,2068,2054
2053,2056,2052,2062,2069,2067,2083,2064
2043,2057,2054,2058,2081,2105,2099,2075
2050,2043,2057,2063,2086,2153,2102,2086
2058,2045,2056,2063,2103,2180,2101,2090
2061,2046,2053,2067,2104,2187,2070,2096
2059,2056,2052,2064,2094,2139,2053,2096
2047,2047,2052,2050,2058,2012,2026,2089
2046,2043,2050,2051,2043,2005,2058,2100
2041,2048,2051,2053,2044,2024,2041,2085
2035,2041,2041,2053,2044,1991,2027,2080
2020,2037,2040,2047,2031,1972,2021,2079
2026,2040,2045,2045,2021,1972,2043,2076
2037,2042,2043,2043,2035,1979,2027,2072
2039,2041,2039,2047,2032,1988,2044,2072
2041,2043,2044,2054,2029,2002,2054,2065
2046,2043,2045,2056,2035,2029,2055,2064
2052,2036,2039,2053,2039,2073,2060,2052
2040,2029,2036,2053,2053,2129,2058,2029
2038,2022,2035,2046,2056,2121,2041,2021
2032,2027,2034,2051,2045,2089,2053,2009
2035,2027,2032,2045,2045,2068,2048,2003
2034,2028,2036,2041,2043,2056,2044,1998
2037,2034,2033,2041,2036,2045,2052,1996
2040,2024,2028,2042,2036,2046,2055,2000
2037,2025,2034,2042,2034,2060,2053,2011
2052,2051,2056,2066,2046,2078,2071,2026
2062,2058,2061,2062,2043,2082,2067,2032
2057,2054,2054,2062,2061,2093,2057,2021
2051,2047,2052,2056,2056,2096,2056,2030
2047,2045,2049,2052,2054,2094,2051,2041
2044,2045,2054,2056,2039,2100,2036,2044
2040,2046,2049,2053,2045,2141,2054,2055
2035,2045,2054,2055,2047,2124,2075,2065
2041,2052,2050,2050,2046,2030,2035,2069
2043,2049,2054,2047,2045,1936,2043,2079
2047,2052,2050,2047,2052,1977,2064,2100
2050,2051,2057,2055,2057,2029,2064,2108
2052,2056,2057,2053,2053,2032,2055,2104
2044,2049,2052,2050,2054,2029,2051,2103
2041,2047,2049,2047,2039,2026,2034,2101
2024,2029,2040,2040,2033,2032,2024,2088
2021,2024,2036,2041,2040,2045,2034,2100
2039,2041,2046,2047,2042,2061,2056,2096
2043,2045,2051,2050,2033,2031,2034,2101
2050,2051,2045,2052,2024,2025,2030,2096
2047,2056,2048,2049,2019,2039,2046,2086
2048,2062,2049,2046,2017,2041,2038,2076
2046,2067,2060,2046,2013,2019,2028,2062
2047,2062,2058,2044,2013,2006,2021,2058
2047,2056,2053,2041,2009,2034,2028,2052
2047,2054,2047,2038,2019,2056,2033,2046
2050,2054,2051,2040,2019,2051,2044,2038
2046,2056,2043,2042,2021,2042,2058,2033
2051,2056,2044,2041,2028,2031,2043,2031
2054,2050,2044,2043,2033,2016,2035,2033
2064,2065,2046,2052,2039,2010,2051,2036
2070,2072,2060,2058,2036,2018,2029,2025
2065,2064,2056,2057,2040,2020,2004,2014
2064,2060,2053,2056,2044,2024,2032,2021
2065,2066,2055,2065,2044,2032,2039,2026
2062,2068,2060,2064,2046,2038,2057,2020
2066,2064,2069,2058,2042,2036,2058,2032
2062,2055,2059,2061,2039,2029,2065,2034
2059,2055,2061,2063,2043,2039,2070,2044
2050,2051,2059,2060,2044,2036,2063,2041
2046,2051,2058,2058,2043,2031,2068,2041
2053,2049,2061,2059,2046,2037,2067,2057
2049,2057,2060,2056,2045,2038,2067,2071
2052,2059,2058,2056,2041,2061,2082,2083
2060,2055,2054,2062,2047,2068,2072,2095
2061,2056,2048,2061,2047,2066,2060,2091
2051,2049,2043,2056,2039,2070,2057,2091
2038,2037,2037,2055,2032,2058,2054,2088
2035,2026,2030,2048,2034,2054,2038,2090
2030,2031,2036,2051,2036,2055,2049,2098
2043,2035,2036,2058,2037,2050,2060,2113
2052,2043,2040,2058,2045,2034,2085,2112
2054,2045,2036,2050,2037,2020,2063,2100
2050,2038,2035,2052,2029,1997,2069,2092
2058,2029,2028,2052,2027,1988,2053,2084
2058,2026,2027,2050,2028,1995,2035,2076
2055,2027,2034,2053,2034,2024,2063,2058
2057,2024,2037,2052,2037,2037,2043,2046
2046,2019,2037,2051,2038,2058,2033,2029
2040,2023,2037,2050,2028,2036,2011,2023
2043,2032,2039,2045,2011,2008,2005,2014
2046,2039,2041,2043,2009,1998,2001,2010
2039,2052,2044,2046,2013,2029,2003,2008
2047,2056,2046,2057,2034,2076,2036,2004
2053,2061,2053,2055,2048,2096,2034,1995
2043,2050,2049,2057,2050,2077,2036,1988
2046,2044,2047,2050,2050,2016,2039,1992
2054,2060,2055,2053,2041,2004,2048,2001
2047,2052,2056,2049,2032,2027,2059,2008
2045,2054,2057,2060,2043,2046,2041,2011
2044,2053,2063,2062,2051,2054,2059,2014
2052,2063,2067,2068,2050,2062,2042,2026
2056,2064,2073,2068,2049,2057,2039,2030
2059,2060,2079,2066,2050,2054,2057,2039
2060,2056,2074,2070,2052,2056,2060,2052
2067,2052,2072,2069,2053,2053,2048,2066
2062,2053,2076,2072,2058,2052,2059,2068
2059,2062,2076,2070,2064,2046,2076,2073
2046,2054,2066,2069,2064,2044,2059,2080
2032,2045,2061,2073,2063,2038,2055,2081
2021,2042,2061,2071,2056,2051,2051,2081
2037,2044,2055,2066,2048,2062,2039,2089
2038,2037,2049,2052,2042,2044,2036,2093
2035,2039,2047,2050,2030,2031,2046,2105
2047,2059,2051,2049,2026,2022,2045,2100
2050,2054,2050,2047,2024,2013,2050,2094
2045,2055,2048,2044,2015,2000,2026,2092
2041,2049,2045,2042,2017,1977,2036,2077
2036,2050,2050,2051,2023,1972,2040,2084
2044,2055,2050,2045,2028,1963,2033,2080
2050,2054,2051,2056,2039,1961,2034,2072
2052,2055,2050,2053,2036,1953,2044,2064
2053,2046,2048,2059,2035,1955,2029,2045
2051,2050,2049,2060,2034,1959,2040,2033
2042,2045,2049,2051,2029,1969,2045,2022
2047,2046,2050,2053,2030,2015,2046,2021
2053,2048,2049,2058,2031,2077,2048,2019
2059,2046,2055,2057,2041,2116,2038,2015
2056,2045,2053,2053,2041,2110,2047,2016
2050,2045,2050,2051,2043,2093,2062,2014
2046,2037,2056,2056,2051,2076,2061,2021
2051,2043,2058,2056,2043,2060,2063,2010
2042,2044,2059,2063,2052,2066,2048,2008
2037,2039,2056,2058,2051,2077,2052,2009
2034,2039,2059,2055,2049,2093,2083,2021
2046,2043,2063,2058,2052,2093,2062,2037
2049,2048,2063,2059,2055,2097,2080,2041
2052,2056,2062,2062,2056,2094,2078,2051
2054,2056,2063,2067,2058,2094,2072,2058
2058,2051,2066,2063,2061,2081,2069,2073
2058,2052,2061,2058,2044,2065,2057,2073
2051,2049,2060,2058,2033,2060,2065,2090
2041,2047,2056,2060,2036,2069,2056,2089
2044,2049,2058,2054,2037,2075,2046,2091
2033,2036,2051,2052,2038,2087,2035,2091
2026,2035,2045,2047,2040,2081,2035,2103
2031,2034,2044,2052,2039,2076,2036,2113
2044,2045,2054,2053,2038,2064,2034,2106
2047,2054,2062,2056,2036,2055,2025,2106
2051,2056,2057,2057,2036,2033,2019,2094
2054,2050,2053,2054,2024,1980,1990,2073
2042,2046,2054,2045,2018,1950,2013,2064
2043,2044,2047,2050,2019,1977,2047,2057
2042,2044,2051,2050,2027,2012,2060,2051
2051,2050,2054,2058,2040,2031,2082,2054
2051,2051,2050,2056,2050,2036,2060,2045
2054,2047,2047,2054,2046,2036,2061,2036
2061,2046,2052,2058,2052,2057,2089,2041
2061,2048,2056,2060,2054,2078,2077,2037
2047,2044,2050,2064,2057,2075,2079,2025
2048,2039,2049,2060,2058,2056,2066,2014
2040,2040,2040,2056,2059,2047,2069,2014
2037,2027,2028,2052,2056,2047,2060,2000
2031,2022,2025,2048,2050,2061,2076,2011
2038,2032,2036,2052,2056,2046,2075,2018
2042,2033,2034,2045,2042,2036,2067,2012
2052,2032,2039,2044,2040,2037,2062,2020
2048,2029,2032,2043,2037,2034,2056,2022
2044,2022,2027,2039,2046,2048,2072,2035
2036,2026,2024,2045,2054,2064,2086,2041
2044,2022,2024,2048,2057,2061,2081,2053
2048,2025,2021,2046,2054,2045,2065,2055
2045,2031,2022,2050,2058,2038,2061,2056
2046,2027,2028,2047,2061,2040,2071,2062
2034,2028,2035,2053,2060,2046,2068,2066
2038,2035,2044,2054,2062,2057,2086,2078
2039,2041,2049,2057,2069,2076,2076,2078
2032,2048,2048,2060,2069,2091,2055,2076
2035,2046,2042,2051,2052,2081,2037,2075
2029,2041,2048,2051,2053,2101,2026,2084
2033,2055,2055,2052,2064,2164,2059,2086
2047,2065,2050,2048,2046,2165,2037,2093
2052,2065,2059,2044,2043,2107,2035,2096
2050,2072,2068,2050,2038,1987,2019,2083
2052,2074,2078,2059,2043,1906,2028,2071
2050,2073,2083,2058,2044,1968,2036,2059
2048,2071,2081,2053,2029,2010,2024,2053
2050,2071,2083,2058,2032,2030,2048,2051
2053,2070,2079,2058,2039,2037,2045,2045
2049,2058,2069,2054,2046,2031,2036,2050
2060,2057,2068,2055,2049,2041,2030,2051
2056,2058,2070,2057,2050,2044,2034,2046
2053,2060,2068,2054,2047,2044,2043,2043
2051,2059,2068,2051,2036,2044,2048,2028
2047,2054,2061,2054,2034,2042,2054,2021
2042,2045,2050,2052,2034,2039,2042,2017
2041,2037,2045,2047,2047,2065,2039,2016
2044,2046,2055,2056,2058,2078,2050,2018
2046,2057,2064,2057,2060,2064,2063,2023
2050,2056,2059,2059,2058,2056,2058,2031
2056,2053,2063,2056,2053,2052,2043,2033
2055,2055,2055,2057,2052,2052,2046,2037
2052,2053,2058,2059,2056,2051,2064,2037
2046,2048,2060,2054,2051,2023,2045,2042
2048,2050,2061,2056,2066,2011,2054,2045
2050,2043,2066,2053,2067,2016,2056,2062
2051,2047,2059,2056,2064,2018,2060,2072
2048,2046,2055,2063,2068,2035,2067,2080
2053,2044,2055,2059,2062,2036,2075,2086
2055,2041,2059,2056,2063,2037,2047,2093
2048,2048,2060,2054,2056,2041,2047,2100
2042,2047,2057,2052,2045,2042,2060,2100
2042,2037,2050,2044,2044,2039,2051,2103
2045,2039,2053,2047,2040,2042,2048,2101
2048,2047,2058,2053,2046,2051,2049,2095
2041,2045,2052,2047,2047,2033,2049,2093
2042,2039,2051,2042,2046,2023,2068,2089
2044,2043,2051,2049,2036,2017,2074,2079
2045,2048,2053,2047,2047,2020,2065,2073
2043,2039,2049,2048,2033,2018,2068,2061
2034,2039,2038,2044,2040,2003,2073,2051
2035,2040,2044,2050,2045,2001,2064,2054
2038,2033,2045,2051,2051,2017,2076,2054
2044,2031,2048,2051,2049,2013,2072,2049
2048,2033,2045,2054,2050,2020,2053,2038
2039,2033,2045,2051,2058,2043,2046,2026
2032,2020,2038,2047,2045,2095,2049,2017
2033,2019,2036,2048,2039,2139,2070,2018
2036,2023,2033,2042,2022,2099,2036,1999
2025,2015,2021,2035,2015,1998,2010,1993
2022,2012,2028,2028,2000,1989,2032,2007
2027,2026,2034,2024,2004,2063,2057,2012
2026,2017,2035,2032,2035,2097,2040,2010
2030,2026,2038,2033,2052,2090,2046,2020
2033,2027,2043,2036,2044,2041,2053,2030
2047,2033,2042,2043,2044,2024,2058,2037
2059,2043,2052,2043,2040,2034,2066,2059
2073,2052,2049,2035,2026,2061,2079,2055
2059,2041,2038,2029,2018,2031,2053,2045
2046,2040,2039,2026,1998,2010,2069,2053
2038,2045,2039,2021,1969,2001,2052,2066
2043,2049,2049,2026,1946,1988,2049,2077
2054,2045,2054,2034,1944,1950,2066,2088
2053,2047,2058,2025,1943,1962,2050,2088
2052,2046,2056,2023,1969,1994,2027,2088
2051,2052,2062,2042,2010,2029,2019,2093
2042,2052,2060,2056,2033,2038,2030,2101
2045,2046,2065,2057,2076,2056,2056,2103
2052,2045,2054,2064,2103,2076,2065,2104
2051,2041,2049,2066,2093,2072,2064,2103
2047,2045,2054,2061,2082,2059,2054,2090
2056,2047,2054,2062,2065,2049,2055,2081
2051,2048,2055,2056,2062,2042,2060,2077
2057,2053,2061,2059,2077,2044,2072,2075
2068,2062,2062,2060,2093,2052,2068,2060
2063,2061,2059,2062,2082,2056,2060,2048
2058,2060,2062,2058,2072,2071,2072,2049
2058,2063,2059,2059,2069,2076,2092,2047
2058,2061,2065,2063,2055,2060,2074,2042
2058,2056,2058,2059,2047,2039,2069,2035
2061,2052,2058,2061,2049,2038,2072,2027
2057,2058,2055,2061,2055,2033,2055,2025
2052,2044,2052,2056,2056,2022,2068,2026
2052,2045,2052,2046,2041,2009,2050,2024
2056,2047,2049,2049,2040,2011,2067,2018
2046,2044,2043,2047,2046,2005,2045,2016
2046,2043,2052,2051,2044,2004,2063,2022
2063,2052,2064,2053,2047,2010,2069,2025
2066,2057,2067,2062,2062,2010,2049,2033
2066,2058,2069,2065,2067,2020,2045,2036
2060,2056,2066,2062,2069,2046,2064,2047
2055,2051,2058,2053,2074,2091,2062,2064
2054,2046,2056,2050,2067,2127,2073,2066
2048,2040,2045,2045,2063,2132,2062,2063
2045,2040,2047,2045,2067,2119,2080,2069
2048,2039,2043,2047,2061,2096,2053,2083
2047,2032,2036,2044,2057,2067,2041,2093
2052,2046,2053,2044,2063,2041,2038,2100
2046,2046,2061,2051,2062,2040,2038,2097
2042,2036,2046,2048,2061,2057,2039,2105
2045,2034,2042,2039,2054,2069,2044,2114
2049,2046,2050,2037,2046,2067,2050,2109
2055,2043,2051,2039,2045,2054,2049,2102
2056,2044,2051,2045,2050,2052,2018,2097
