CH1,CH2,CH3,CH4,CH5,CH6,CH7,CH8
2069,2067,2067,2063,2181,2070,2050,2034
2063,2062,2053,2038,2117,2011,2036,2024
2058,2045,2036,2027,2081,1990,2024,2013
2052,2036,2030,2044,2097,2005,2016,2021
2054,2038,2039,2040,2115,2046,2032,2037
2055,2053,2053,2028,2086,2069,2043,2047
2059,2069,2056,2005,2057,2061,2040,2041
2047,2061,2058,2006,2080,2060,2045,2050
2058,2070,2063,2008,2045,2057,2042,2052
2059,2050,2043,1996,2061,2045,2030,2043
2038,2029,2031,2024,2068,2044,2021,2047
2036,2029,2038,2004,1921,2015,2010,2039
2025,2038,2040,2026,1988,2020,2045,2057
2041,2048,2053,2058,2041,2040,2042,2077
2046,2041,2054,2051,2021,2033,2031,2074
2039,2038,2051,2040,2024,2032,2036,2079
2062,2053,2055,2033,2023,2025,2031,2083
2052,2042,2048,2037,2045,2032,2059,2065
2046,2033,2041,2042,2058,2041,2046,2053
2040,2024,2039,2042,2068,2048,2051,2053
2040,2029,2039,2052,2076,2049,2056,2054
2042,2037,2043,2051,2056,2034,2055,2042
2037,2035,2037,2051,2050,2030,2031,2032
2029,2035,2033,2053,2048,2032,2040,2024
2038,2039,2037,2055,2059,2049,2037,2035
2058,2049,2034,2057,2062,2058,2043,2049
2077,2046,2023,2055,2060,2064,2051,2050
2072,2032,2012,2045,2046,2045,2039,2024
2045,2032,2005,2027,2041,2041,2028,2013
2029,2032,2020,2028,2036,2049,2035,2018
2045,2038,2037,2030,2029,2049,2047,2021
2041,2038,2045,2027,2034,2044,2054,2028
2051,2049,2039,2022,2034,2047,2053,2038
2058,2045,2026,2012,2025,2041,2043,2031
2046,2039,2021,2002,2033,2038,2038,2023
2048,2037,2024,1999,2032,2043,2039,2027
2046,2036,2028,2006,2042,2051,2037,2031
2053,2038,2028,2021,2044,2060,2060,2042
2058,2044,2043,2034,2051,2068,2059,2054
2065,2061,2064,2060,2065,2073,2055,2062
2061,2076,2075,2063,2073,2070,2025,2065
2044,2064,2061,2063,2060,2059,2039,2062
2040,2052,2038,2068,2067,2061,2053,2070
2044,2038,2031,2064,2063,2061,2040,2078
2040,2030,2018,2055,2052,2057,2032,2090
2043,2025,2008,2053,2049,2056,2025,2094
2046,2027,2012,2042,2041,2043,2018,2103
2038,2015,2005,2028,2035,2019,2009,2089
2029,2008,2015,2024,2031,2015,2026,2067
2027,2037,2051,2040,2045,2040,2033,2075
2042,2061,2074,2050,2052,2052,2033,2086
2054,2061,2073,2049,2053,2049,2040,2077
2057,2058,2080,2049,2054,2050,2043,2071
2059,2065,2093,2049,2045,2054,2044,2059
2053,2061,2106,2046,2051,2056,2040,2046
2053,2067,2109,2048,2049,2057,2057,2042
2061,2062,2093,2038,2050,2053,2060,2048
2057,2061,2085,2040,2058,2055,2073,2047
2066,2070,2079,2043,2065,2060,2048,2044
2068,2062,2074,2052,2060,2055,2054,2036
2064,2057,2072,2052,2049,2052,2041,2035
2060,2047,2076,2058,2051,2049,2040,2037
2060,2050,2077,2057,2037,2042,2038,2023
2044,2042,2080,2063,2044,2038,2036,2022
2044,2047,2082,2062,2042,2044,2039,2026
2047,2037,2074,2054,1999,2046,2050,2030
2057,2038,2062,2055,2012,2046,2036,2038
2076,2053,2062,2060,2016,2053,2054,2046
2072,2052,2065,2061,2018,2054,2039,2037
2053,2041,2069,2060,2021,2049,2051,2038
2038,2038,2084,2071,2052,2051,2040,2037
2030,2051,2098,2075,2068,2059,2034,2050
2041,2064,2106,2071,2066,2059,2049,2054
2062,2068,2101,2054,2082,2056,2039,2063
2060,2068,2088,2051,2112,2067,2043,2083
2049,2043,2066,2039,2096,2063,2046,2089
2044,2040,2051,2028,2062,2056,2047,2089
2040,2041,2056,2030,2043,2052,2048,2089
2043,2036,2039,2031,2026,2033,2032,2084
2039,2019,2023,2021,2012,2019,2022,2089
2039,2016,2021,2019,2018,2025,2036,2098
2051,2040,2041,2030,2021,2034,2030,2094
2052,2041,2048,2033,2033,2044,2038,2078
2040,2048,2051,2044,2035,2049,2040,2058
2028,2047,2062,2045,2040,2047,2037,2057
2041,2037,2054,2043,2036,2053,2026,2059
2052,2026,2039,2047,2052,2051,2017,2059
2050,2026,2039,2053,2058,2043,2019,2049
2047,2033,2047,2064,2042,2034,2027,2040
2047,2044,2054,2069,2018,2030,2035,2042
2052,2051,2056,2074,2005,2020,2034,2034
2043,2044,2036,2067,1997,2012,2028,2026
2038,2040,2034,2051,2000,2028,2026,2021
2047,2052,2045,2060,2033,2048,2040,2034
2066,2051,2041,2059,2048,2046,2025,2036
2047,2022,2032,2047,2043,2036,2013,2024
2047,2019,2038,2050,2057,2045,2055,2029
2055,2033,2058,2045,2089,2042,2031,2045
2065,2023,2053,2030,2082,2030,2019,2050
2071,2038,2054,2021,2085,2027,2034,2047
2071,2045,2062,2032,2104,2046,2039,2031
2072,2065,2086,2056,2116,2050,2050,2028
2082,2079,2099,2054,2103,2047,2032,2032
2074,2069,2094,2053,2096,2058,2041,2042
2072,2063,2085,2052,2058,2063,2042,2059
2066,2038,2071,2013,1906,2046,2043,2066
2043,2036,2068,2012,1916,2054,2045,2068
2035,2038,2071,2027,1967,2061,2050,2078
2037,2039,2071,2032,1969,2050,2045,2086
2028,2043,2060,2016,1970,2047,2042,2084
2011,2039,2044,2007,1992,2042,2045,2095
2023,2044,2015,2001,1985,2037,2033,2092
2028,2039,2007,1991,1982,2044,2046,2103
2046,2068,2021,2001,1999,2064,2056,2104
2054,2072,2032,2012,2021,2067,2064,2095
2054,2066,2044,2026,2069,2070,2062,2083
2061,2070,2063,2056,2141,2081,2060,2081
2062,2062,2063,2062,2159,2078,2046,2078
2051,2050,2061,2060,2136,2079,2048,2070
2058,2050,2062,2057,2099,2094,2044,2052
2048,2044,2048,2049,2073,2086,2040,2037
2043,2036,2042,2034,2080,2071,2037,2040
2052,2037,2042,2037,2119,2056,2040,2048
2049,2045,2044,2044,2147,2064,2055,2060
2065,2059,2041,2049,2163,2052,2065,2062
2066,2059,2041,2060,2186,2056,2056,2052
2068,2047,2035,2058,2197,2071,2062,2044
2060,2035,2029,2058,2185,2080,2054,2027
2047,2024,2016,2041,2111,2056,2046,2020
2044,2005,1996,2014,1944,2002,2033,2020
2039,2023,2024,2025,1950,1978,2033,2028
2039,2048,2045,2060,2013,2012,2042,2035
2044,2056,2061,2065,2020,2031,2049,2036
2051,2049,2043,2054,2030,2043,2048,2045
2054,2039,2034,2059,2100,2085,2058,2058
2060,2043,2045,2083,2171,2126,2076,2052
2055,2045,2048,2087,2203,2142,2055,2037
2030,2036,2030,2069,2161,2136,2057,2028
2022,2025,2021,2028,2004,2110,2029,2040
2024,2021,2023,2011,1965,2079,2020,2060
2033,2043,2049,2020,1989,2038,2026,2069
2043,2052,2057,2028,2000,1995,2041,2086
2062,2061,2058,2042,2028,2000,2039,2085
2060,2051,2055,2047,2030,2021,2033,2092
2057,2039,2041,2026,1979,2019,2047,2092
2050,2028,2029,2009,1962,2029,2044,2092
2059,2024,2028,2018,1991,2037,2042,2085
2046,2028,2033,2029,2021,2043,2038,2065
2034,2034,2045,2038,2019,2036,2030,2060
2048,2048,2057,2052,2014,2034,2025,2068
2068,2056,2065,2060,2017,2042,2039,2059
2066,2058,2064,2063,2020,2052,2041,2049
2059,2060,2074,2067,2032,2064,2044,2043
2047,2061,2069,2063,2057,2067,2035,2049
2045,2063,2065,2064,2083,2068,2045,2053
2049,2066,2071,2062,2093,2065,2049,2047
2054,2059,2064,2059,2113,2059,2042,2036
2053,2051,2060,2045,2064,2034,2033,2027
2052,2035,2044,2035,1986,2015,2031,2026
2049,2040,2046,2049,1966,2023,2031,2026
2057,2042,2047,2052,1963,2025,2040,2016
2048,2035,2039,2040,1973,2022,2021,2019
2050,2042,2037,2041,1993,2037,2041,2021
2056,2046,2035,2040,2017,2043,2049,2022
2046,2044,2029,2027,2025,2040,2043,2022
2042,2033,2022,2020,2026,2045,2036,2021
2043,2032,2029,2015,2027,2048,2030,2024
2052,2041,2049,2027,2055,2057,2057,2042
2060,2066,2078,2041,2074,2071,2053,2049
2054,2067,2073,2041,2063,2058,2056,2059
2049,2054,2056,2028,2037,2060,2056,2068
2063,2061,2047,2022,2025,2049,2031,2064
2063,2054,2039,2029,2013,2070,2035,2071
2050,2050,2039,2030,1998,2087,2028,2080
2052,2050,2042,2027,1989,2095,2037,2086
2050,2045,2041,2031,1956,2098,2043,2083
2045,2043,2045,2034,1961,2081,2034,2077
2035,2036,2040,2032,1953,2034,2033,2081
2047,2036,2045,2049,1962,2007,2045,2101
2068,2056,2060,2071,2005,2033,2042,2102
2057,2058,2062,2064,2033,2042,2058,2094
2058,2056,2060,2054,2035,2048,2058,2089
2056,2061,2057,2039,2006,2043,2043,2082
2062,2054,2041,1998,1903,2022,2052,2074
2063,2044,2030,2000,1939,2023,2048,2061
2054,2043,2026,2019,1983,2035,2046,2056
2046,2039,2023,2026,2039,2043,2036,2040
2049,2035,2026,2046,2096,2055,2056,2040
2049,2038,2029,2046,2114,2043,2034,2036
2046,2049,2037,2044,2083,2041,2026,2037
2053,2050,2039,2045,2084,2045,2044,2036
2056,2051,2032,2037,2069,2049,2032,2036
2064,2050,2013,2028,2027,2037,2014,2029
2062,2034,1983,2010,2021,2021,2011,2020
2033,2012,1968,2000,2043,2021,1998,2007
2019,2015,1974,2019,2049,2035,2026,2019
2037,2035,1999,2052,2088,2054,2037,2028
2055,2036,2015,2079,2138,2072,2040,2032
2061,2041,2027,2086,2130,2076,2060,2030
2054,2049,2034,2070,2088,2066,2056,2035
2041,2046,2041,2060,2063,2074,2022,2032
2039,2038,2040,2054,2047,2097,2038,2037
2034,2036,2035,2044,2046,2083,2033,2038
2038,2037,2032,2048,2034,2072,2024,2039
2036,2042,2034,2043,2026,2061,2029,2050
2043,2044,2048,2044,2037,2044,2037,2067
2052,2045,2051,2058,2060,2003,2033,2080
2056,2050,2052,2072,2076,2012,2048,2089
2066,2062,2061,2088,2083,2038,2058,2090
2071,2054,2067,2086,2074,2045,2038,2091
2057,2040,2056,2071,2057,2046,2040,2069
2032,2018,2050,2062,2039,2040,2008,2055
2025,2033,2061,2048,2017,2042,2031,2059
2026,2025,2064,2041,2009,2040,2047,2070
2015,2034,2076,2039,2023,2048,2040,2071
2030,2055,2087,2039,2041,2065,2064,2080
2052,2062,2084,2045,2049,2068,2072,2081
2064,2065,2070,2046,2042,2061,2065,2072
2060,2056,2074,2048,2037,2057,2057,2049
2050,2062,2091,2054,2037,2060,2033,2040
2046,2057,2101,2059,2036,2055,2020,2030
2045,2059,2102,2054,2040,2047,2040,2029
2044,2049,2088,2050,2028,2043,2037,2028
2044,2038,2076,2042,2023,2045,2024,2026
2041,2038,2077,2047,2036,2047,2048,2029
2050,2038,2075,2042,2031,2054,2041,2029
2048,2038,2065,2034,2026,2049,2038,2031
2042,2030,2046,2032,2029,2052,2041,2024
2039,2023,2035,2034,2033,2056,2055,2019
2034,2031,2029,2043,2032,2058,2049,2027
2049,2045,2026,2042,2026,2055,2057,2035
2056,2053,2017,2032,2020,2043,2056,2046
2056,2050,2020,2026,2019,2044,2024,2047
2048,2047,2016,2019,2017,2041,2031,2046
2045,2039,2020,2012,2016,2043,2059,2045
2039,2031,2022,2008,2029,2040,2054,2044
2038,2034,2019,2005,2037,2038,2031,2034
2030,2037,2023,2019,2047,2043,2039,2053
2042,2039,2041,2038,2063,2048,2035,2060
2042,2038,2035,2037,2064,2039,2029,2072
2050,2042,2044,2029,2047,2040,2044,2082
2062,2046,2054,2040,2047,2044,2036,2100
2061,2044,2056,2037,2037,2049,2059,2108
2070,2027,2046,2028,2002,2042,2057,2091
2052,1998,2032,2016,1960,2016,2031,2058
2009,1991,2035,2023,1950,2011,2048,2053
2019,2019,2050,2031,1947,2012,2028,2059
2013,2025,2049,2032,1940,2013,2030,2065
2024,2036,2054,2038,1966,2029,2030,2074
2045,2058,2076,2058,2011,2052,2042,2078
2060,2084,2090,2082,2068,2068,2060,2080
2046,2085,2092,2090,2112,2084,2038,2077
2046,2087,2088,2089,2094,2080,2055,2058
2044,2091,2086,2082,2056,2059,2040,2051
2037,2073,2075,2084,2054,2056,2046,2031
2040,2063,2072,2082,2074,2049,2052,2030
2040,2058,2064,2066,2076,2051,2044,2029
2047,2058,2064,2057,2073,2043,2042,2030
2045,2055,2060,2057,2054,2026,2051,2026
2041,2052,2065,2053,2040,2029,2058,2015
2046,2049,2061,2040,2045,2033,2058,2022
2042,2039,2048,2033,2042,2034,2053,2023
2049,2042,2054,2031,2045,2038,2064,2026
2046,2046,2053,2038,2061,2041,2047,2019
2031,2050,2053,2044,2025,2046,2050,2036
2049,2038,2045,2035,2015,2046,2066,2047
2062,2030,2032,2033,2020,2043,2058,2043
2043,2032,2028,2027,2014,2029,2049,2040
2043,2023,2015,2014,1994,2018,2039,2035
2036,2021,2028,2032,2010,2024,2044,2033
2042,2036,2061,2061,2034,2036,2064,2034
2044,2044,2089,2072,2032,2052,2056,2040
2042,2039,2086,2072,2034,2080,2059,2056
2046,2034,2088,2092,2055,2089,2052,2055
2031,2044,2086,2089,2048,2078,2057,2053
2017,2038,2066,2083,2026,2058,2033,2058
2021,2029,2059,2076,2027,2059,2048,2061
2028,2030,2052,2079,2034,2031,2042,2069
2050,2029,2046,2079,2064,2023,2057,2084
2062,2038,2039,2085,2083,2054,2080,2086
2069,2052,2055,2102,2101,2080,2077,2085
2071,2049,2043,2094,2092,2092,2088,2076
2057,2036,2032,2077,2077,2089,2081,2065
2036,2030,2020,2070,2070,2085,2069,2064
2034,2030,2013,2053,2058,2075,2069,2054
2039,2035,2006,2030,2049,2067,2068,2054
2042,2046,1994,2014,2047,2062,2065,2048
2051,2040,1988,2011,2044,2061,2070,2033
2044,2031,1994,2004,2034,2058,2063,2019
2044,2028,1995,1999,2025,2050,2056,2023
2044,2026,2005,2005,2015,2037,2043,2024
2035,2027,2033,2025,2022,2040,2062,2026
2053,2045,2059,2044,2015,2043,2057,2034
2062,2044,2055,2040,2002,2039,2028,2025
2041,2021,2028,2022,1977,2029,2018,2006
2026,2008,2028,2019,1967,2027,2048,2009
2059,2045,2054,2032,1975,2031,2038,2032
2074,2061,2074,2035,1977,2034,2069,2045
2072,2069,2096,2039,1991,2038,2061,2048
2055,2075,2092,2032,2018,2040,2051,2038
2029,2078,2085,2029,2031,2041,2040,2043
2045,2087,2088,2027,2036,2045,2056,2059
2053,2082,2079,2028,2040,2051,2051,2063
2064,2085,2071,2033,2052,2056,2072,2068
2070,2082,2068,2033,2063,2056,2066,2064
2062,2073,2062,2027,2065,2054,2070,2068
2060,2065,2045,2022,2060,2051,2055,2075
2059,2055,2044,2023,2079,2056,2059,2082
2059,2047,2047,2026,2098,2052,2061,2089
2059,2043,2050,2038,2083,2049,2076,2083
2046,2040,2047,2043,2107,2053,2058,2073
2043,2030,2042,2051,2128,2056,2055,2080
2053,2046,2057,2055,2137,2064,2048,2105
2077,2054,2060,2050,2135,2060,2059,2097
2054,2056,2057,2052,2141,2057,2054,2082
2042,2061,2062,2051,2118,2060,2058,2064
2047,2057,2057,2046,2097,2054,2040,2063
2048,2051,2061,2053,2060,2054,2050,2056
2037,2054,2064,2053,1931,2041,2058,2046
2037,2057,2060,2037,1878,2032,2053,2048
2041,2061,2045,2043,1934,2039,2036,2043
2040,2054,2042,2044,1961,2056,2043,2038
2041,2054,2038,2036,1968,2055,2063,2043
2033,2042,2026,2037,1970,2051,2051,2041
2045,2054,2038,2047,1996,2046,2054,2031
2052,2053,2038,2046,2026,2045,2047,2022
2046,2042,2034,2039,2029,2031,2036,2006
2022,2025,2016,2044,2073,2033,2033,2007
2021,2030,2030,2067,2108,2054,2053,2019
2042,2053,2046,2074,2095,2063,2035,2028
2051,2047,2037,2070,2071,2062,2051,2031
2050,2034,2026,2056,2066,2045,2049,2032
2042,2032,2033,2056,2083,2053,2065,2032
2042,2044,2032,2064,2112,2063,2050,2032
2038,2043,2042,2075,2142,2080,2062,2032
2036,2045,2051,2072,2116,2084,2024,2035
2040,2035,2050,2064,2079,2095,2035,2052
2040,2028,2059,2069,2072,2095,2057,2062
2039,2036,2056,2061,2064,2088,2051,2060
2034,2035,2058,2055,2055,2072,2058,2068
2034,2032,2052,2052,2046,2015,2046,2075
2027,2035,2053,2048,2025,1989,2045,2077
2030,2044,2067,2047,2029,2010,2034,2081
2039,2065,2086,2049,1984,2029,2045,2081
2044,2067,2092,2040,1979,2029,2026,2086
2049,2082,2112,2049,2017,2030,2031,2096
2059,2090,2107,2053,2028,2042,2034,2092
2059,2088,2090,2047,2026,2044,2062,2084
2062,2076,2070,2043,2027,2046,2053,2075
2057,2075,2060,2037,2028,2054,2057,2073
2055,2071,2066,2036,2031,2054,2049,2065
2057,2066,2058,2032,2027,2053,2039,2056
2056,2060,2047,2027,2026,2057,2047,2046
2054,2054,2043,2024,2025,2057,2050,2044
2047,2054,2047,2024,2032,2055,2052,2037
2049,2056,2044,2026,2032,2053,2037,2035
2042,2051,2038,2021,2026,2045,2059,2023
2046,2051,2048,2029,2022,2043,2055,2023
2043,2042,2042,2029,2028,2042,2048,2020
2041,2037,2036,2033,2041,2041,2041,2022
2057,2048,2046,2043,2047,2051,2054,2027
2057,2050,2042,2042,2052,2046,2064,2021
2052,2038,2032,2039,2051,2052,2056,2019
2056,2049,2043,2040,2049,2047,2052,2022
2055,2060,2051,2041,2049,2049,2048,2024
2061,2061,2050,2042,2055,2050,2043,2028
2064,2062,2051,2032,2050,2046,2055,2030
2060,2056,2043,2030,2059,2052,2052,2032
2057,2050,2034,2036,2064,2056,2055,2032
2051,2054,2028,2043,2062,2055,2053,2041
2056,2045,2026,2054,2064,2048,2069,2045
2056,2036,2030,2053,2066,2049,2045,2047
2057,2039,2028,2059,2066,2053,2038,2054
2056,2039,2027,2054,2066,2052,2032,2064
2054,2038,2028,2049,2053,2050,2048,2072
2055,2039,2036,2057,2052,2045,2047,2075
2057,2043,2043,2055,2051,2058,2058,2075
2052,2029,2040,2049,2047,2050,2024,2058
2033,2020,2026,2042,2039,2042,2026,2056
2025,2020,2028,2047,2039,2047,2029,2065
2034,2031,2025,2046,2047,2051,2037,2072
2039,2036,2022,2043,2046,2048,2021,2073
2053,2045,2030,2037,2035,2052,2041,2072
2048,2045,2038,2042,2028,2048,2043,2059
2045,2034,2030,2031,2011,2036,2028,2036
2037,2023,2010,2013,2004,2018,2009,2031
2041,2024,2009,1999,1995,2016,2047,2045
2045,2032,2023,2001,2012,2016,2038,2041
2055,2039,2039,2009,2032,2023,2014,2030
2047,2052,2060,2025,2042,2019,2035,2016
2030,2057,2071,2029,2042,2024,2038,2024
2040,2065,2082,2047,2077,2058,2051,2046
2056,2066,2089,2059,2083,2068,2054,2038
2059,2065,2083,2059,2068,2056,2050,2032
2061,2056,2066,2047,2055,2048,2047,2027
2054,2057,2065,2039,2053,2054,2061,2040
2056,2063,2076,2048,2055,2059,2073,2037
2053,2059,2086,2050,2052,2053,2069,2039
2056,2069,2096,2057,2054,2046,2063,2048
2050,2073,2093,2054,2053,2052,2074,2049
2057,2066,2083,2046,2055,2057,2056,2037
2053,2057,2076,2045,2052,2054,2051,2037
2049,2053,2073,2049,2050,2052,2054,2043
2049,2054,2074,2049,2051,2055,2066,2055
2047,2060,2073,2048,2053,2061,2043,2059
2053,2057,2060,2046,2056,2059,2039,2064
2046,2053,2061,2045,2062,2065,2047,2077
2040,2050,2060,2043,2049,2068,2039,2078
2034,2050,2055,2045,2045,2067,2042,2073
2031,2050,2057,2043,2050,2070,2053,2077
2040,2056,2065,2046,2053,2072,2057,2076
2038,2059,2065,2049,2049,2069,2051,2077
2042,2057,2051,2046,2051,2068,2041,2077
2040,2061,2047,2043,2036,2066,2049,2068
2045,2058,2039,2040,2026,2070,2045,2059
2042,2052,2036,2042,2012,2064,2020,2062
2039,2053,2041,2044,1999,2060,2019,2056
2039,2046,2037,2044,2011,2058,2017,2042
2037,2051,2038,2045,2018,2043,2043,2043
2042,2040,2039,2067,2048,2033,2065,2045
2054,2040,2050,2079,2083,2042,2056,2049
2052,2034,2046,2073,2078,2056,2042,2043
2049,2035,2044,2075,2075,2064,2045,2037
2067,2041,2044,2072,2062,2062,2031,2047
2079,2047,2042,2067,2059,2056,2033,2042
2074,2045,2038,2062,2052,2047,2025,2017
2062,2044,2043,2061,2048,2054,2043,1994
2039,2040,2038,2067,2059,2043,2038,2002
2035,2031,2035,2068,2055,2037,2026,2007
2016,2026,2038,2052,2036,2032,2029,2002
2006,2032,2051,2037,2029,2034,2043,2019
2020,2039,2057,2037,2041,2045,2060,2026
2038,2051,2067,2037,2046,2048,2061,2039
2059,2064,2074,2042,2048,2052,2054,2039
2058,2058,2065,2042,2043,2050,2068,2034
2046,2044,2056,2042,2024,2047,2061,2032
2043,2039,2054,2044,2021,2045,2045,2035
2045,2041,2056,2045,2020,2045,2036,2042
2044,2044,2060,2052,2026,2052,2064,2052
2043,2055,2067,2057,2057,2062,2068,2060
2038,2058,2066,2068,2072,2074,2065,2070
2043,2055,2062,2059,2064,2069,2045,2067
2044,2048,2054,2055,2058,2068,2051,2067
2035,2040,2042,2052,2066,2061,2048,2054
2024,2034,2027,2040,2061,2048,2050,2057
2031,2037,2031,2039,2090,2056,2035,2067
2047,2054,2045,2054,2129,2057,2052,2082
2058,2060,2043,2064,2126,2041,2052,2080
2050,2051,2034,2046,2081,2038,2048,2060
2044,2048,2039,2039,2041,2047,2047,2049
2045,2043,2037,2033,2010,2040,2034,2039
2045,2046,2044,2022,2002,2038,2037,2038
2047,2057,2049,2027,1997,2059,2059,2041
2056,2060,2054,2032,2011,2084,2060,2041
2053,2049,2055,2039,2035,2083,2052,2027
2050,2031,2046,2037,2012,2081,2049,2019
2039,2035,2054,2035,1999,2077,2080,2024
2049,2023,2050,2034,2011,2054,2053,2014
2027,2008,2033,2030,2030,1999,2031,1996
2014,2023,2039,2036,2041,2011,2022,2003
2021,2034,2043,2034,2036,2029,2050,2004
2036,2031,2054,2052,2040,2041,2052,2006
2047,2050,2076,2066,2066,2057,2066,2021
2056,2050,2072,2063,2077,2061,2071,2033
2071,2044,2065,2064,2064,2059,2070,2045
2077,2035,2052,2056,2053,2050,2075,2040
2066,2026,2049,2054,2047,2041,2062,2032
2045,2030,2049,2060,2046,2028,2053,2011
2029,2039,2056,2073,2051,2021,2045,2007
2031,2048,2053,2075,2047,2013,2030,2024
2036,2046,2046,2069,2027,2011,2047,2028
2028,2038,2033,2057,1984,1998,2038,2048
2042,2054,2031,2052,1964,1991,2050,2077
2059,2061,2028,2039,1943,1973,2036,2066
2045,2045,2024,2029,1942,1977,2033,2060
2029,2035,2016,2015,1952,2003,2031,2066
2041,2043,2024,2016,1992,2036,2036,2077
2045,2051,2033,2035,2049,2061,2047,2080
2045,2052,2028,2043,2072,2075,2061,2076
2042,2049,2023,2020,2092,2078,2068,2083
2037,2051,2033,2020,2054,2071,2069,2077
2048,2058,2042,2020,2014,2062,2075,2072
2048,2063,2052,2021,2010,2057,2066,2064
2051,2064,2054,2016,1995,2052,2057,2057
2046,2065,2065,2015,1998,2052,2056,2048
2044,2051,2056,2030,2044,2061,2060,2032
2050,2060,2054,2043,2093,2061,2054,2038
2046,2057,2051,2049,2130,2061,2060,2038
2042,2049,2050,2047,2128,2053,2043,2029
2033,2059,2063,2038,2115,2042,2056,2026
2042,2064,2067,2043,2147,2050,2061,2028
2050,2066,2067,2050,2146,2057,2060,2019
2057,2067,2059,2052,2129,2059,2063,2026
2052,2052,2044,2039,2107,2044,2058,2021
2045,2046,2039,2038,2087,2045,2053,2025
2048,2055,2045,2047,2040,2056,2060,2028
2041,2046,2046,2033,1951,2040,2051,2023
2047,2048,2048,2040,1980,2048,2055,2028
2056,2059,2062,2050,2019,2055,2071,2028
2050,2057,2058,2049,2028,2051,2057,2033
2044,2057,2055,2052,2040,2056,2076,2042
2042,2057,2054,2047,2038,2051,2071,2050
2043,2055,2053,2047,2046,2056,2064,2056
2046,2056,2052,2044,2046,2055,2067,2060
2047,2050,2047,2046,2051,2057,2059,2070
2051,2042,2043,2046,2058,2059,2052,2078
2051,2039,2044,2053,2054,2060,2049,2083
2047,2042,2046,2047,2058,2055,2051,2084
2052,2046,2046,2047,2050,2059,2059,2088
2046,2045,2042,2045,2044,2052,2042,2089
2046,2036,2045,2040,2040,2050,2047,2091
2042,2039,2043,2045,2040,2048,2038,2091
2050,2046,2045,2043,2043,2049,2045,2086
2056,2046,2048,2042,2039,2050,2033,2086
2053,2046,2040,2042,2032,2052,2049,2085
2052,2049,2038,2047,2033,2048,2060,2069
2045,2050,2040,2043,2035,2048,2050,2065
2042,2046,2042,2042,2036,2049,2046,2058
2046,2050,2044,2038,2044,2058,2044,2046
2051,2051,2046,2048,2050,2064,2043,2045
2049,2049,2045,2048,2051,2067,2040,2032
2048,2048,2045,2053,2041,2064,2044,2035
2042,2051,2045,2049,2051,2060,2025,2029
2052,2052,2046,2047,2053,2063,2041,2028
2050,2051,2047,2054,2053,2064,2052,2032
2052,2057,2044,2048,2055,2055,2030,2027
2044,2044,2044,2042,2047,2045,2032,2021
2038,2047,2046,2039,2046,2040,2037,2033
2051,2058,2052,2046,2050,2043,2033,2033
2054,2056,2056,2044,2049,2043,2048,2042
2052,2060,2054,2052,2050,2044,2061,2036
2049,2061,2053,2048,2052,2046,2047,2035
2042,2062,2049,2053,2048,2042,2023,2033
2045,2058,2046,2057,2045,2039,2039,2041
2038,2046,2047,2055,2041,2032,2048,2036
2040,2050,2053,2057,2041,2037,2059,2051
2039,2048,2050,2060,2042,2047,2060,2071
2049,2049,2059,2060,2049,2051,2049,2072
2054,2049,2058,2058,2049,2043,2050,2078
2053,2047,2053,2055,2044,2044,2063,2085
2054,2044,2050,2054,2040,2042,2048,2076
2044,2045,2045,2045,2043,2049,2067,2078
2038,2034,2048,2041,2040,2047,2038,2067
2034,2035,2050,2047,2034,2045,2037,2071
2034,2044,2046,2054,2036,2052,2049,2073
2040,2043,2049,2050,2036,2048,2043,2070
2048,2047,2044,2046,2036,2043,2039,2067
2051,2051,2049,2043,2036,2039,2059,2064
2049,2051,2043,2035,2018,2047,2044,2063
2041,2042,2037,2032,2022,2052,2036,2053
2051,2040,2035,2032,2014,2049,2037,2047
2049,2042,2037,2038,2020,2045,2058,2043
2057,2052,2042,2044,2028,2054,2066,2044
2057,2054,2047,2044,2034,2067,2055,2043
2051,2048,2043,2043,2030,2068,2061,2035
2054,2045,2042,2038,2032,2070,2062,2028
2051,2047,2038,2038,2030,2065,2052,2027
2049,2047,2041,2037,2028,2068,2033,2032
2053,2044,2042,2037,2032,2054,2029,2018
2045,2040,2036,2032,2028,2051,2036,2017
2045,2036,2039,2041,2035,2054,2056,2029
2055,2039,2043,2040,2037,2060,2064,2036
2056,2042,2039,2041,2039,2061,2068,2035
2054,2041,2040,2038,2044,2062,2068,2032
2054,2039,2037,2035,2038,2057,2060,2037
2050,2038,2031,2037,2035,2050,2056,2037
2042,2038,2034,2034,2030,2054,2047,2044
2041,2038,2035,2043,2037,2056,2055,2046
2043,2049,2055,2051,2047,2064,2040,2058
2050,2058,2065,2056,2042,2063,2035,2064
2045,2060,2066,2057,2050,2052,2046,2068
2054,2061,2061,2066,2052,2053,2040,2072
2042,2064,2061,2063,2054,2053,2045,2075
2051,2049,2050,2057,2058,2050,2051,2084
2046,2044,2043,2044,2051,2045,2038,2081
2044,2032,2020,2039,2039,2032,2045,2075
2041,2024,2019,2043,2041,2029,2021,2076
2049,2038,2022,2041,2040,2041,2043,2085
2052,2036,2020,2048,2040,2038,2041,2080
2056,2034,2021,2051,2041,2044,2058,2075
2052,2040,2027,2049,2044,2042,2058,2070
2048,2039,2027,2044,2042,2042,2038,2063
2045,2043,2030,2046,2034,2036,2037,2059
2047,2044,2028,2045,2040,2034,2027,2049
2045,2037,2020,2041,2046,2029,2057,2039
2047,2033,2019,2038,2037,2027,2039,2044
2044,2032,2019,2035,2037,2025,2051,2032
2041,2028,2019,2034,2035,2028,2050,2029
2048,2038,2020,2033,2034,2029,2048,2026
2044,2029,2014,2029,2031,2017,2040,2023
2033,2018,2013,2025,2031,2015,2044,2020
2039,2019,2026,2020,2025,2019,2046,2015
2043,2038,2044,2038,2032,2036,2052,2011
2046,2060,2069,2057,2057,2066,2074,2025
2055,2070,2072,2058,2057,2084,2078,2036
2059,2068,2071,2053,2061,2103,2081,2037
2063,2065,2066,2050,2058,2107,2080,2036
2064,2060,2060,2041,2055,2089,2078,2040
2068,2059,2055,2048,2045,2070,2038,2044
2068,2052,2044,2045,2044,2055,2041,2043
2062,2054,2056,2047,2046,2049,2034,2043
2063,2057,2051,2047,2047,2047,2041,2037
2055,2048,2051,2040,2053,2052,2038,2041
2043,2051,2053,2048,2064,2056,2050,2059
2048,2050,2059,2046,2067,2052,2059,2076
2047,2051,2058,2045,2060,2055,2058,2084
2048,2045,2052,2044,2054,2052,2066,2088
2058,2042,2046,2036,2056,2050,2053,2083
2049,2040,2041,2030,2034,2039,2025,2064
2035,2024,2030,2021,2029,2035,2024,2058
2037,2029,2034,2028,2031,2041,2038,2076
2041,2035,2045,2039,2036,2048,2049,2076
2047,2039,2053,2046,2041,2051,2069,2076
2054,2038,2052,2046,2033,2052,2061,2079
2058,2038,2041,2043,2029,2043,2050,2073
2053,2031,2041,2035,2030,2031,2053,2064
2064,2032,2036,2036,2033,2032,2043,2061
2069,2041,2036,2041,2034,2042,2044,2046
2072,2038,2035,2041,2038,2057,2046,2035
2060,2036,2038,2046,2037,2070,2060,2025
2050,2027,2029,2042,2038,2073,2056,2018
2032,2014,2016,2032,2029,2067,2069,2003
2018,2017,2013,2034,2018,2064,2038,1999
2005,2012,2016,2027,2003,2056,2039,2026
2018,2027,2021,2035,2011,2048,2053,2036
2047,2034,2017,2032,2004,2038,2033,2034
2052,2041,2015,2025,2000,2023,2018,2034
2065,2043,2007,2016,1994,2019,2014,2033
2061,2028,2001,2010,1999,2026,2008,2004
2040,2037,2036,2027,2030,2038,2028,2000
2036,2057,2053,2039,2050,2055,2022,2025
2054,2064,2064,2052,2076,2059,2054,2044
2063,2065,2052,2059,2092,2069,2052,2052
2067,2055,2048,2054,2084,2080,2049,2059
2060,2056,2046,2050,2073,2092,2061,2040
2054,2054,2053,2047,2062,2086,2059,2036
2045,2055,2062,2033,2053,2081,2057,2040
2039,2055,2068,2033,2053,2073,2053,2050
2044,2067,2076,2040,2068,2047,2056,2076
2052,2070,2076,2039,2081,2040,2049,2087
2062,2071,2072,2043,2086,2046,2050,2089
2059,2072,2070,2039,2074,2053,2037,2083
2052,2060,2061,2031,2054,2049,2051,2078
2045,2056,2060,2036,2043,2051,2058,2076
2056,2059,2072,2038,2036,2042,2061,2073
2052,2053,2069,2041,2037,2043,2055,2079
2053,2059,2062,2040,2035,2047,2059,2069
2047,2058,2058,2040,2033,2043,2056,2064
2054,2061,2060,2044,2042,2048,2048,2060
2058,2061,2063,2046,2049,2055,2049,2050
2058,2058,2056,2048,2057,2057,2045,2046
2050,2049,2047,2050,2049,2052,2039,2036
2039,2051,2045,2045,2048,2047,2038,2035
2042,2046,2041,2043,2048,2050,2040,2040
2046,2042,2044,2043,2045,2058,2061,2037
2053,2044,2043,2044,2052,2055,2050,2036
2059,2051,2042,2039,2041,2057,2033,2030
2048,2049,2040,2037,2040,2047,2048,2027
2050,2045,2036,2031,2030,2042,2038,2022
2040,2029,2035,2034,2029,2048,2041,2011
2035,2033,2042,2042,2039,2054,2038,2013
2042,2041,2046,2039,2047,2053,2043,2011
2045,2036,2046,2039,2047,2054,2050,2020
2036,2030,2043,2039,2038,2051,2052,2018
2042,2030,2042,2033,2040,2052,2058,2022
2035,2032,2039,2039,2040,2059,2059,2026
2032,2032,2039,2036,2044,2050,2065,2037
2036,2037,2041,2038,2040,2036,2067,2038
2033,2036,2037,2036,2039,2038,2059,2049
2031,2028,2038,2041,2038,2039,2051,2053
2037,2031,2040,2039,2034,2036,2040,2055
2034,2035,2043,2036,2030,2041,2036,2064
2035,2036,2044,2037,2032,2039,2055,2072
2042,2047,2055,2047,2034,2048,2059,2088
2057,2064,2059,2052,2040,2050,2070,2089
2061,2063,2053,2047,2036,2054,2067,2093
2052,2059,2058,2044,2041,2060,2070,2097
2052,2076,2061,2046,2040,2063,2087,2096
2050,2072,2057,2046,2046,2065,2078,2094
2051,2069,2055,2041,2042,2060,2067,2082
2049,2063,2055,2047,2038,2057,2080,2074
2055,2053,2059,2047,2040,2058,2078,2067
2050,2055,2057,2043,2037,2056,2070,2061
2050,2055,2056,2048,2035,2066,2080,2048
2049,2058,2056,2044,2033,2069,2052,2046
2047,2051,2046,2054,2038,2067,2081,2047
2049,2054,2055,2047,2036,2064,2070,2045
2055,2052,2048,2045,2034,2070,2069,2043
2051,2049,2049,2044,2032,2077,2077,2035
2044,2045,2044,2039,2034,2083,2072,2033
2046,2048,2042,2040,2033,2090,2072,2034
2047,2048,2039,2042,2035,2090,2051,2028
2043,2041,2039,2046,2034,2087,2056,2026
2049,2039,2040,2043,2046,2077,2071,2031
2052,2048,2044,2046,2039,2034,2067,2025
2044,2046,2049,2047,2037,2015,2058,2029
2039,2047,2050,2046,2042,2032,2065,2029
2036,2041,2047,2043,2041,2042,2062,2032
2044,2047,2049,2047,2044,2052,2044,2036
2044,2051,2052,2047,2042,2050,2063,2043
2056,2057,2053,2050,2039,2047,2057,2052
2051,2050,2055,2050,2045,2050,2056,2058
2050,2053,2052,2050,2053,2048,2061,2073
2045,2052,2048,2046,2046,2051,2056,2078
2046,2050,2049,2050,2048,2045,2067,2088
2054,2057,2050,2049,2056,2063,2056,2093
2056,2064,2049,2049,2057,2071,2064,2094
2053,2056,2054,2047,2056,2078,2049,2088
2053,2051,2048,2041,2046,2075,2044,2090
2041,2047,2044,2043,2036,2071,2075,2099
2047,2051,2051,2050,2038,2078,2067,2095
2049,2055,2050,2045,2037,2085,2073,2098
2045,2057,2048,2043,2037,2075,2071,2099
2044,2052,2047,2045,2034,2065,2084,2086
2045,2054,2050,2037,2027,2050,2065,2077
2046,2050,2043,2042,2024,2034,2061,2070
2047,2052,2046,2033,2012,2034,2050,2067
2053,2054,2042,2028,1996,2031,2068,2057
2051,2047,2037,2021,1990,2029,2057,2045
2046,2037,2038,2022,1992,2027,2047,2035
2050,2043,2033,2024,1995,2018,2042,2030
2053,2047,2033,2021,2003,2002,2064,2030
2049,2044,2031,2023,2031,1997,2049,2040
2049,2044,2035,2036,2048,2023,2044,2026
2047,2040,2037,2037,2050,2048,2038,2009
2035,2018,2031,2030,2055,2042,2025,2000
2021,2018,2028,2024,2056,2039,2052,2006
2034,2029,2041,2039,2064,2044,2053,2015
2040,2040,2052,2042,2062,2036,2045,2020
2038,2042,2049,2039,2058,2038,2054,2018
2037,2036,2039,2039,2065,2034,2065,2026
2041,2044,2037,2041,2072,2034,2051,2043
2059,2045,2043,2040,2076,2035,2068,2050
2062,2038,2045,2043,2078,2031,2075,2057
2050,2037,2050,2046,2079,2032,2077,2058
2042,2040,2048,2046,2075,2025,2070,2069
2034,2046,2045,2044,2067,2009,2061,2070
2034,2047,2048,2049,2054,1993,2034,2080
2044,2037,2047,2037,2049,1998,2054,2089
2054,2039,2046,2039,2047,2009,2067,2105
2066,2040,2045,2042,2051,2008,2077,2099
2049,2024,2037,2035,2049,2012,2066,2085
2028,2011,2022,2031,2041,2021,2047,2084
2019,2014,2020,2031,2034,2044,2038,2091
2038,2039,2040,2039,2036,2078,2055,2095
2055,2065,2053,2044,2046,2105,2085,2091
2050,2073,2058,2047,2044,2110,2091,2082
2051,2066,2051,2038,2047,2097,2084,2069
2050,2044,2042,2032,2033,2068,2069,2060
2042,2036,2038,2031,2027,2084,2089,2056
2041,2030,2032,2024,2026,2093,2069,2055
2041,2024,2025,2014,1991,2061,2051,2039
2034,2018,2021,2011,1986,2033,2041,2037
2029,2026,2033,2018,2000,2042,2033,2028
2029,2033,2035,2020,2013,2058,2031,2032
2033,2042,2043,2040,2026,2066,2023,2018
2029,2052,2055,2039,2039,2052,2032,2022
2045,2054,2048,2036,2036,2019,2024,2027
2056,2024,2027,2023,2013,2008,2010,2032
2051,2010,2022,2020,2012,2001,2041,2036
2057,2033,2042,2034,2026,2020,2062,2037
2060,2054,2050,2034,2030,2030,2054,2043
2062,2051,2053,2041,2041,2040,2064,2043
2049,2045,2052,2047,2040,2041,2075,2046
2036,2043,2054,2045,2039,2032,2062,2050
2037,2053,2050,2044,2040,2034,2058,2048
2048,2062,2056,2045,2047,2043,2073,2047
2048,2061,2056,2045,2045,2066,2054,2054
2044,2054,2055,2042,2047,2098,2057,2066
2045,2055,2057,2043,2057,2106,2052,2073
2053,2059,2060,2048,2054,2097,2046,2080
2056,2057,2052,2042,2044,2083,2024,2065
2052,2052,2052,2043,2040,2084,2021,2070
2045,2049,2055,2041,2038,2091,2040,2072
2035,2047,2053,2040,2030,2083,2018,2074
2024,2039,2045,2033,2016,2080,2021,2086
2029,2034,2040,2026,1994,2088,2025,2084
2036,2041,2045,2023,1962,2091,2029,2080
2035,2047,2039,2015,1936,2092,2040,2065
2039,2039,2039,2006,1926,2016,2024,2050
2030,2030,2029,1988,1915,1956,1999,2040
2025,2032,2028,1999,1954,1990,2016,2042
2033,2043,2046,2031,2027,2047,2052,2046
2046,2053,2053,2055,2059,2050,2060,2055
2052,2058,2058,2064,2091,2048,2081,2054
2053,2059,2053,2068,2108,2061,2075,2054
2050,2056,2053,2055,2085,2063,2072,2041
2047,2046,2052,2049,2058,2058,2074,2029
2047,2042,2050,2042,2041,2053,2068,2030
2045,2046,2038,2037,2043,2044,2045,2026
2040,2045,2032,2034,2041,2050,2031,2026
2044,2031,2031,2031,2030,2056,2045,2012
2034,2024,2040,2032,2027,2053,2038,2022
2039,2034,2047,2036,2039,2062,2025,2029
2047,2043,2046,2044,2041,2058,2008,2024
2037,2039,2041,2043,2044,2054,2045,2027
2038,2045,2046,2042,2054,2050,2047,2028
2047,2052,2054,2049,2055,2059,2030,2035
2045,2049,2052,2053,2054,2041,2029,2043
2044,2037,2046,2052,2051,2036,2040,2043
2049,2036,2046,2048,2048,2038,2047,2054
2043,2030,2041,2044,2043,2040,2056,2065
2048,2039,2048,2039,2038,2046,2048,2066
2051,2040,2044,2042,2047,2062,2047,2070
2045,2043,2047,2039,2042,2091,2056,2076
2047,2039,2037,2037,2040,2083,2056,2077
2044,2036,2039,2042,2034,2066,2045,2081
2052,2030,2031,2037,2023,2043,2035,2084
2050,2015,2022,2025,2017,2021,2027,2084
2049,2016,2020,2025,2021,2028,2039,2093
2056,2032,2025,2033,2039,2042,2033,2085
2040,2022,2025,2032,2042,2043,2044,2068
2028,2018,2032,2034,2044,2055,2042,2061
2038,2020,2036,2032,2036,2050,2047,2060
2044,2029,2040,2035,2028,2041,2065,2048
2035,2034,2047,2035,2049,2033,2036,2045
2032,2038,2047,2038,2088,2040,2042,2040
2045,2046,2050,2045,2112,2042,2044,2043
2053,2061,2058,2047,2114,2053,2052,2045
2058,2070,2063,2052,2123,2057,2055,2039
2047,2057,2057,2044,2121,2054,2057,2038
2048,2055,2050,2048,2108,2050,2050,2026
2046,2053,2058,2042,2092,2044,2033,2022
2048,2054,2056,2040,2069,2029,2009,2011
2050,2047,2050,2036,2023,2022,2006,2002
2033,2028,2035,2025,1940,2010,2001,2013
2034,2024,2028,2011,1910,2009,2020,2026
2053,2042,2043,2025,1960,2029,2021,2021
2051,2049,2047,2035,1993,2044,2037,2016
2041,2053,2049,2041,2015,2054,2036,2031
2044,2053,2048,2037,2019,2052,2048,2034
2050,2058,2047,2040,2026,2066,2057,2052
2067,2063,2058,2046,2050,2078,2078,2062
2067,2062,2055,2049,2044,2069,2061,2056
2069,2050,2045,2039,2021,2049,2047,2052
2068,2053,2048,2040,1993,2052,2036,2047
2053,2050,2052,2045,2023,2049,2061,2056
2052,2048,2050,2050,2058,2056,2041,2062
2035,2042,2046,2052,2052,2054,2043,2063
2015,2048,2050,2054,2057,2061,2054,2076
2024,2051,2050,2045,2043,2061,2055,2077
2023,2043,2035,2028,1998,2062,2048,2069
2019,2029,2024,2020,1971,2056,2043,2059
2020,2029,2031,2018,1961,2055,2040,2063
2024,2034,2040,2013,1938,2038,2047,2062
2030,2034,2026,1999,1914,2013,2003,2057
2036,2023,2028,2008,1968,1989,2008,2060
2044,2032,2034,2035,2033,1995,2037,2054
2044,2038,2039,2044,2063,2062,2023,2048
2041,2040,2043,2046,2069,2113,2042,2037
2047,2036,2041,2036,2059,2137,2054,2029
2049,2033,2029,2028,2059,2146,2064,2015
2030,2025,2026,2026,2043,2108,2024,2021
2030,2032,2038,2043,2056,2034,2062,2040
2049,2045,2054,2060,2085,2014,2058,2046
2050,2042,2048,2062,2090,2049,2041,2040
2043,2043,2041,2059,2074,2073,2067,2026
2039,2042,2042,2048,2050,2074,2055,2017
2034,2031,2030,2023,1995,2045,2033,2008
2040,2027,2024,2008,1961,1998,2043,2017
2037,2050,2035,2023,2015,1995,2044,2028
2047,2054,2039,2030,2042,2008,2046,2023
2043,2051,2035,2036,2057,2032,2062,2043
2054,2052,2038,2043,2054,2042,2061,2046
2049,2047,2034,2034,2061,2047,2062,2051
2056,2050,2035,2032,2053,2049,2054,2049
2057,2045,2035,2030,2048,2043,2045,2048
2059,2050,2048,2040,2042,2057,2074,2049
2066,2062,2061,2041,2041,2061,2075,2062
2068,2062,2059,2041,2035,2056,2071,2075
2070,2067,2057,2034,1999,2039,2065,2068
2057,2065,2049,2021,1957,2017,2065,2079
2068,2058,2044,2015,1948,2012,2064,2085
2064,2051,2038,2014,1948,2013,2058,2068
2047,2031,2026,1998,1944,2017,2041,2052
2017,2009,2008,1997,1985,2036,2046,2069
2017,2006,2009,2020,2054,2048,2054,2090
2036,2027,2026,2036,2068,2041,2049,2095
2045,2044,2038,2036,2054,2042,2055,2080
2058,2064,2059,2042,2049,2044,2025,2069
2068,2064,2055,2045,2060,2046,1999,2056
2055,2051,2049,2033,2073,2055,2014,2044
2041,2043,2044,2043,2098,2076,2027,2043
2037,2041,2048,2057,2111,2065,2038,2034
2039,2040,2035,2056,2090,2039,2031,2026
2033,2024,2027,2040,2079,2039,2027,2022
2018,2012,2018,2034,2063,2038,2033,2019
2015,2005,2011,2033,2031,2030,2026,2020
2036,2029,2042,2053,2048,2054,2041,2022
2046,2056,2062,2066,2081,2052,2022,2018
2048,2060,2056,2055,2061,2029,1998,2021
2043,2044,2049,2036,2030,1993,2001,2012
2045,2025,2038,2026,2017,2004,2007,2015
2038,2034,2045,2037,2053,2041,2021,2008
2041,2041,2042,2038,2036,2054,2023,2005
2038,2038,2038,2025,2013,2044,2026,2015
2042,2031,2035,2019,2021,2063,2045,2025
2057,2042,2042,2035,2037,2055,2046,2038
2067,2049,2055,2046,2062,2046,2055,2052
2059,2054,2052,2053,2085,2047,2065,2047
2042,2059,2064,2069,2097,2053,2049,2037
2045,2075,2077,2076,2100,2067,2058,2061
2061,2064,2073,2071,2085,2072,2057,2079
2062,2056,2068,2066,2067,2068,2060,2094
2062,2051,2058,2051,2047,2061,2055,2096
2051,2054,2049,2047,2033,2063,2044,2094
2047,2032,2033,2030,2011,2044,2033,2084
2042,2024,2022,2017,1965,2020,2015,2076
2045,1994,2010,2002,1961,2002,2010,2080
2035,1993,2013,2005,1992,1982,2025,2074
2025,2003,2022,2014,2022,1994,2032,2072
2011,2016,2037,2034,2093,2024,2027,2064
2013,2035,2044,2047,2125,2052,2066,2064
2026,2052,2053,2061,2141,2072,2067,2059
2037,2073,2052,2071,2132,2069,2072,2065
2047,2080,2057,2059,2106,2067,2055,2058
2060,2077,2047,2042,2071,2056,2061,2050
2063,2072,2045,2037,2058,2062,2072,2052
2064,2063,2044,2027,2075,2087,2056,2040
2057,2055,2037,2035,2121,2095,2049,2033
2053,2061,2054,2058,2193,2102,2060,2030
2044,2058,2055,2075,2246,2100,2039,2021
2036,2062,2051,2067,2237,2086,2035,2015
2026,2052,2034,2046,2132,2055,2006,2006
2017,2035,2021,2031,2095,2029,2009,2004
2018,2030,2019,2034,2124,2024,2009,2017
2054,2054,2042,2053,2117,2032,2031,2039
2072,2068,2046,2042,2096,2017,2014,2049
2079,2075,2053,2033,2050,1994,2008,2034
2070,2068,2058,2028,2047,2009,2016,2028
2063,2059,2061,2020,1977,2020,2041,2032
2061,2051,2054,2016,1922,2032,2028,2047
2060,2059,2064,2028,1976,2058,2059,2061
2059,2065,2075,2046,2037,2080,2072,2062
2057,2072,2097,2071,2066,2091,2056,2061
2049,2077,2094,2080,2092,2081,2059,2061
2045,2070,2080,2079,2105,2079,2058,2071
2037,2058,2066,2068,2110,2099,2042,2075
2031,2043,2056,2060,2102,2108,2047,2077
2037,2057,2061,2047,2084,2097,2036,2074
2047,2071,2064,2038,2069,2097,2051,2077
2041,2055,2056,2038,2121,2113,2051,2082
2058,2047,2057,2055,2186,2115,2051,2087
2065,2043,2051,2050,2170,2080,2038,2083
2042,2036,2052,2039,2102,2025,2044,2067
2030,2037,2053,2031,1985,1995,2031,2060
2012,2041,2056,2018,1918,1982,2038,2051
2015,2045,2048,2010,1903,1982,2029,2051
2035,2063,2054,2019,1910,1999,2031,2042
2035,2061,2044,2014,1870,2014,2048,2040
2042,2066,2044,1999,1821,2031,2052,2037
2045,2063,2049,2019,1846,2040,2073,2031
2043,2069,2059,2041,1886,2082,2077,2035
2053,2074,2075,2052,1953,2107,2083,2039
2055,2068,2059,2044,1986,2121,2076,2028
2051,2050,2046,2043,2003,2155,2050,2021
2040,2040,2042,2058,2047,2192,2037,2006
2042,2040,2044,2068,2074,2183,2037,2004
2053,2051,2053,2062,2057,2124,2033,2006
2048,2048,2048,2022,1952,1995,2009,2002
2034,2044,2045,1993,1905,1978,2008,2012
2036,2042,2035,1990,2030,2011,2024,2024
2052,2030,2030,1988,2091,2013,2034,2031
2049,2023,2021,2017,2155,2048,2059,2043
2037,2019,2030,2055,2185,2080,2064,2031
2004,2031,2040,2065,2164,2095,2070,2030
2014,2048,2046,2058,2129,2101,2069,2042
2036,2043,2038,2039,2074,2089,2045,2046
2042,2037,2038,2027,2036,2065,2030,2044
2049,2035,2035,2015,2006,2057,2023,2052
2056,2030,2024,2004,1981,2020,2015,2071
2053,2017,2014,1994,1977,1942,2012,2088
2034,2010,2005,1993,2017,1911,2025,2096
2024,2011,2012,2025,2094,1959,2040,2082
2022,2035,2032,2047,2132,2039,2052,2077
2035,2049,2037,2047,2130,2092,2063,2086
2049,2046,2034,2030,2110,2106,2063,2071
2064,2047,2027,2009,2076,2082,2038,2059
2056,2037,2010,1990,2034,2049,2020,2034
2023,2017,2010,1996,2030,2032,2027,2030
2022,2036,2036,2022,2057,2053,2036,2038
2019,2053,2049,2037,2067,2052,2041,2046
2026,2052,2041,2035,2071,2061,2058,2063
2056,2055,2035,2043,2069,2082,2046,2066
2074,2058,2034,2038,2059,2079,2025,2063
2080,2058,2034,2033,2059,2092,2044,2040
2069,2058,2046,2051,2081,2097,2039,2017
2052,2058,2046,2061,2129,2072,2031,2011
2037,2046,2034,2065,2142,2017,2011,2005
2031,2033,2030,2062,2113,2002,2000,2003
2039,2031,2033,2059,2093,2012,2004,2025
2047,2040,2042,2050,2086,2028,2014,2019
2029,2033,2024,2037,2040,2022,2023,1994
2017,2030,2017,2029,2019,2015,2031,1998
2019,2029,2020,2026,2022,2028,2020,1990
2015,2029,2022,2020,2015,2029,2017,1993
2019,2038,2026,2018,2017,2043,2022,2040
2048,2043,2045,2044,2049,2024,2046,2077
2076,2054,2057,2053,2063,2032,2053,2088
2070,2056,2063,2069,2103,2068,2080,2091
2074,2061,2076,2079,2118,2101,2081,2094
2072,2052,2075,2071,2105,2106,2082,2088
2052,2037,2062,2073,2169,2128,2067,2093
2047,2036,2057,2072,2202,2146,2065,2067
2029,2040,2059,2069,2183,2136,2062,2051
2025,2051,2065,2066,2171,2107,2029,2052
2036,2058,2070,2064,2132,2052,2019,2061
2033,2069,2071,2063,2125,2015,2026,2067
2033,2058,2065,2058,2109,2012,2035,2088
2038,2050,2054,2031,2049,2005,2049,2087
2046,2050,2049,1999,1882,1977,2040,2070
2051,2037,2044,1991,1893,1958,2022,2048
2049,2037,2040,1993,1960,1980,2014,2031
2042,2033,2039,2010,1957,2008,2014,2025
2043,2035,2041,2031,2002,2021,2024,2028
2036,2026,2048,2048,2078,2052,2011,2011
2030,2040,2053,2059,2090,2099,2036,2002
2026,2042,2054,2059,2097,2125,2023,2021
2038,2041,2041,2046,2102,2112,2040,2024
2054,2034,2033,2040,2106,2076,2032,2033
2059,2021,2024,2032,2106,2039,2016,2023
2047,2005,2025,2019,2073,1951,2016,2020
2056,2001,2026,2034,2027,1946,2033,2013
2047,2002,2031,2041,2024,1979,2047,2014
2043,2006,2031,2037,1990,1999,2054,2028
2039,1998,2025,2026,1943,2008,2058,2030
2030,2011,2037,2025,1956,2011,2064,2029
2033,2051,2051,2029,1970,1990,2051,2032
2038,2075,2055,2028,2008,2005,2053,2038
2064,2085,2066,2036,2057,2032,2057,2047
2082,2097,2063,2034,2068,2037,2054,2040
2060,2080,2065,2036,2090,2053,2058,2031
2047,2062,2056,2022,2062,2047,2043,2055
2059,2054,2064,2026,2038,2058,2056,2064
2071,2067,2070,2037,2046,2085,2083,2076
2074,2080,2072,2038,2019,2101,2080,2075
2086,2091,2079,2041,2003,2126,2057,2076
2076,2076,2071,2035,2001,2105,2042,2058
2041,2037,2044,2017,1962,2065,2046,2052
2030,2028,2030,2020,1977,2061,2040,2052
2026,2033,2044,2026,2015,2088,2069,2074
2024,2034,2045,2028,2003,2058,2048,2087
2037,2039,2044,2022,1986,2035,2010,2089
2055,2062,2058,2019,1959,2030,2022,2066
2060,2082,2071,2016,1957,2012,2019,2063
2068,2080,2061,2009,2020,2030,2017,2048
2061,2061,2058,2021,2097,2069,2040,2025
2060,2048,2047,2044,2165,2086,2059,2029
2061,2056,2036,2054,2185,2068,2047,2046
2051,2050,2030,2042,2150,2071,2045,2037
2021,2048,2045,2050,2107,2087,2049,2037
2039,2070,2055,2057,2107,2085,2029,2025
2044,2068,2051,2061,2078,2077,2043,1998
2045,2072,2060,2060,2070,2075,2036,1984
2026,2037,2028,2014,1987,2049,2026,1967
2001,1982,1996,2016,2018,2055,2025,1976
2014,1987,2011,2056,2059,2074,2054,2001
2022,2008,2014,2050,2107,2055,2039,1995
2002,2009,2007,2002,2074,1995,2039,1987
1997,2023,2011,2024,2126,1957,2051,2007
2025,2045,2050,2101,2227,2002,2066,2022
2040,2067,2085,2144,2234,2064,2091,2041
2056,2073,2087,2137,2154,2087,2090,2038
2036,2065,2067,2086,2059,2090,2057,2014
2010,2060,2055,2042,1918,2092,2058,2024
2019,2064,2058,2027,1925,2121,2066,2050
2042,2070,2062,2036,1979,2153,2074,2066
2056,2062,2054,2037,2029,2118,2073,2068
2045,2052,2058,2029,1985,2051,2067,2074
2054,2051,2049,2021,2007,2036,2066,2076
2045,2030,2030,2032,2141,2030,2047,2075
2036,2025,2029,2064,2306,2053,2064,2075
2049,2041,2041,2083,2353,2050,2060,2065
2037,2040,2043,2081,2272,2023,2020,2026
2010,2029,2038,2042,2120,1986,2020,2032
2032,2024,2025,2008,1950,1969,2005,2046
2052,1997,2015,2018,1946,2000,2042,2060
2065,2016,2027,2040,1983,2038,2056,2066
2066,2035,2046,2068,1980,2068,2076,2076
2074,2040,2057,2058,1887,2059,2056,2066
2080,2056,2069,2048,1899,2056,2063,2054
2092,2067,2064,2038,1976,2053,2059,2038
2085,2058,2050,2011,1957,2011,2041,2030
2067,2047,2039,2001,1901,1984,2021,2020
2060,2050,2034,2024,1897,1973,2009,1996
2063,2040,2028,2009,1914,1940,1986,1975
2052,2045,2034,2015,1999,1959,1985,1971
2016,2046,2043,2021,2062,1968,1983,1978
1986,2030,2048,2025,2100,1992,1991,1992
1990,2029,2053,2047,2141,2042,2017,2012
2014,2037,2061,2063,2153,2086,2046,2029
2048,2042,2064,2069,2136,2101,2058,2030
2036,2029,2048,2051,2085,2080,2057,2025
2022,2010,2028,2026,2054,2053,2038,2014
2011,2014,2025,2034,2082,2043,2044,2028
2034,2038,2042,2052,2139,2062,2048,2057
2060,2044,2037,2066,2180,2083,2062,2048
2054,2033,2053,2089,2240,2116,2090,2057
2050,2033,2052,2085,2241,2129,2089,2069
2044,2025,2036,2069,2207,2118,2041,2057
2014,2022,2021,2054,2156,2078,2008,2055
2003,2014,2020,2034,2080,2025,2012,2042
2004,1997,2009,2013,2014,1992,2023,2044
2024,2019,2023,2033,2015,1995,2013,2053
2028,2008,2018,2044,2079,2032,2013,2069
2044,2008,2021,2042,2124,2085,2038,2072
2061,2021,2029,2036,2108,2086,2024,2034
2035,2040,2041,2046,2092,2086,2023,2030
2039,2047,2043,2054,2072,2066,2016,2028
2039,2037,2039,2035,1960,2040,2017,2027
2039,2038,2037,2024,1883,2016,2027,2035
2043,2042,2044,2042,1957,2019,2041,2047
2063,2054,2045,2060,2016,2022,2018,2039
2058,2030,2023,2062,2043,2021,2031,2026
2045,2000,1992,2057,2067,2052,2034,2016
2040,2005,2014,2088,2118,2088,2060,2014
2062,2052,2065,2116,2135,2106,2081,2025
2077,2075,2076,2113,2131,2110,2055,2028
2051,2071,2061,2110,2137,2109,2062,2004
2025,2052,2054,2111,2135,2129,2058,2002
2016,2040,2063,2122,2136,2147,2072,2000
2019,2046,2067,2108,2103,2123,2061,2019
2038,2062,2063,2089,2041,2046,2035,2012
2041,2051,2042,2065,1988,1939,2033,2029
2059,2046,2025,2053,1982,1979,2036,2026
2043,2037,2017,2035,2016,2052,2031,2009
2037,2041,2027,2033,2027,2087,2027,2005
2029,2037,2016,2027,2010,2095,2021,2031
2029,2014,1998,2010,1986,2106,2036,2048
2052,2030,2010,2021,2026,2114,2050,2054
2057,2031,2005,2024,2049,2110,2044,2050
2044,2025,2002,2016,2039,2075,2034,2024
2027,2015,2002,1981,1980,1995,2026,2028
2018,2031,2018,1972,1921,1965,2026,2010
1976,2041,2054,1972,1855,1969,1984,1995
1995,2065,2080,1970,1786,1956,2012,2045
2043,2057,2079,1967,1826,1952,2015,2090
2073,2041,2067,1976,1912,1986,2012,2076
2061,2041,2051,1978,1955,2052,2018,2064
2028,2034,2043,2021,2080,2128,2047,2066
2041,2054,2070,2067,2165,2169,2068,2049
2027,2068,2077,2072,2129,2151,2052,2027
2010,2057,2066,2049,2098,2102,2050,2033
2032,2059,2064,2046,2068,2003,2041,2046
2047,2054,2060,2053,2049,1979,2053,2063
2063,2066,2062,2051,2036,2003,2043,2032
2034,2054,2058,2058,2055,2036,2020,1989
2018,2035,2059,2072,2145,2084,2023,2004
2028,2039,2057,2082,2143,2088,2067,2002
2049,2051,2065,2080,2124,2092,2077,2008
2047,2070,2077,2082,2100,2099,2067,2016
2032,2062,2056,2051,2112,2115,2055,2004
2012,2027,2026,2034,2128,2107,2064,1993
2020,2032,2029,2022,2064,2045,2035,1991
2034,2035,2027,2006,2009,1942,2017,1995
2055,2024,2035,2034,2017,1904,2014,2005
2078,2037,2058,2056,2074,1922,2048,2045
2098,2040,2070,2080,2142,1969,2037,2056
2082,2016,2058,2086,2187,1986,2014,2056
2063,2002,2042,2071,2102,2013,2018,2023
2056,2013,2056,2056,1998,2048,2025,2004
2062,2015,2064,2022,1918,2050,2031,2040
2089,2045,2081,2034,1965,2080,2050,2066
2054,2040,2064,2040,2016,2096,2051,2065
2019,2040,2053,2043,2058,2081,2060,2052
2008,2055,2050,2045,2097,2044,2037,2049
2018,2059,2047,2067,2106,2036,2045,2072
2028,2056,2062,2096,2113,2080,2061,2087
2036,2057,2067,2116,2097,2106,2058,2068
2047,2081,2088,2125,2155,2105,2043,2070
2052,2086,2089,2116,2174,2081,2049,2072
2052,2071,2072,2090,2173,2065,2054,2064
2051,2064,2057,2063,2169,2058,2011,2045
2040,2049,2033,2016,2111,2037,2001,2038
2037,2038,2026,2000,2064,2024,1998,2027
2038,2042,2051,2015,2014,2043,2024,2027
2046,2053,2080,2060,2027,2093,2054,2032
2045,2064,2102,2096,2087,2110,2066,2025
2034,2052,2106,2113,2096,2099,2059,2026
2043,2050,2093,2099,2039,2068,2065,2017
2029,2035,2069,2076,1962,2028,2031,2001
2008,2011,2047,2059,1970,2037,2056,2009
2037,2008,2039,2062,2053,2061,2070,2019
2057,1995,2029,2067,2097,2075,2064,2009
2050,2016,2046,2118,2213,2118,2091,2013
2060,2016,2059,2136,2232,2120,2097,2030
2088,2004,2037,2116,2179,2114,2098,2050
2096,1995,2016,2083,2139,2094,2074,2050
2098,2000,1992,2061,2100,2068,2060,2072
2107,2009,1977,2021,2033,2039,2046,2040
2062,2026,1992,2023,2046,2025,2027,1954
1982,2035,2024,2031,2021,1983,2006,1965
1993,2036,2008,1995,1871,1953,2027,2001
2039,2058,2044,2041,1955,2021,2059,2019
2030,2085,2060,2067,1978,2063,2074,2040
2019,2064,2038,2060,2014,2068,2064,2056
2030,2060,2034,2059,2092,2066,2051,2043
2029,2052,2023,2048,2110,2053,2042,2058
2033,2049,2025,2043,2112,2078,2057,2078
2051,2058,2038,2044,2149,2104,2062,2096
2057,2059,2037,2031,2091,2057,2041,2092
2056,2045,2028,2004,1998,2035,2032,2080
2053,2056,2041,2019,2031,2056,2040,2053
2038,2053,2039,2022,2008,2018,2019,2048
2014,2039,2037,2028,2012,2006,2021,2050
2005,2058,2039,2052,2091,2011,2025,2033
2022,2069,2048,2048,2038,2025,2032,2024
2026,2072,2056,2053,1989,2052,2049,2021
2018,2064,2042,2046,1955,2074,2033,2018
2028,2055,2044,2049,1907,2083,2043,2024
2025,2045,2046,2032,1898,2069,2024,1999
2018,2039,2040,2014,1890,2062,2024,1990
2015,2035,2031,2013,1936,2049,2050,2000
2022,2029,2035,2045,2052,2058,2075,2037
2067,2052,2057,2073,2133,2066,2074,2047
2077,2056,2060,2085,2193,2066,2061,2033
2077,2045,2039,2069,2205,2059,2052,2023
2078,2035,2021,2052,2198,2059,2036,1980
2041,2033,2024,2045,2164,2073,2035,1957
1992,2019,2034,2033,2120,2056,2018,1959
2005,2028,2051,2027,2088,2058,2021,1985
2036,2040,2061,2021,2044,2035,2009,2012
2058,2044,2074,2041,2016,1970,2010,2006
2038,2050,2077,2070,2032,1985,2016,2019
2025,2044,2071,2111,2126,2037,2063,2025
2030,2032,2062,2131,2184,2080,2078,2043
2024,2025,2048,2134,2192,2103,2085,2041
1998,2007,2026,2118,2163,2101,2068,2043
2039,2029,2044,2111,2054,2100,2090,2052
2082,2045,2046,2078,1980,2084,2046,2056
2077,2022,2015,2042,2007,2072,2040,2075
2065,2016,1999,2038,2019,2078,2037,2041
2036,2029,2002,2033,2005,2074,2049,2038
2048,2011,1991,2030,2006,2072,2041,2069
2058,1993,1993,2026,2004,2063,2042,2060
2046,2002,2014,2021,1989,2059,2055,2071
2078,2040,2043,2026,1991,2039,2042,2065
2058,2049,2057,2016,2042,2023,2036,2037
2023,2046,2059,2014,2107,2014,2008,2013
2007,2041,2069,2019,2121,2009,2026,1976
1974,2036,2095,2043,2108,2021,2037,1989
2003,2053,2123,2058,2097,2035,2042,2027
2011,2037,2103,2054,2084,2031,2026,2031
2003,2040,2102,2043,2021,2034,2045,2027
2031,2072,2111,2049,1997,2049,2048,2039
2058,2084,2106,2071,2066,2054,2049,2032
2067,2095,2127,2102,2135,2067,2059,2021
2057,2109,2140,2129,2186,2096,2083,2000
2021,2084,2125,2123,2119,2094,2055,1983
1987,2058,2100,2119,2082,2094,2046,1984
2018,2060,2103,2116,2070,2110,2074,2001
2026,2074,2103,2118,2046,2098,2058,1998
2017,2068,2088,2086,2033,2083,2055,1992
2028,2069,2066,2067,2022,2047,2042,1994
2029,2060,2048,2059,2039,1995,2056,2014
2026,2052,2025,2029,2034,1989,2058,2029
2008,2040,2007,1993,2046,2029,2044,2010
2003,2046,2003,1984,2103,2074,2055,2016
2019,2060,2029,2024,2160,2107,2067,2039
2031,2085,2061,2039,2145,2110,2094,2058
2045,2095,2082,2050,2134,2113,2107,2081
2071,2092,2063,2051,2114,2071,2097,2097
2070,2067,2041,2042,2066,2052,2089,2101
2073,2043,2028,2020,1949,2021,2049,2105
2070,2031,2026,2016,1892,2015,2043,2091
2065,2021,2040,2029,1979,2067,2071,2080
2066,2020,2058,2054,2073,2091,2060,2067
2066,2002,2036,2044,2125,2034,2050,2069
2071,2006,2034,2063,2150,1995,2048,2055
2062,2032,2064,2093,2144,2014,2056,2006
2025,2043,2077,2111,2135,2024,2049,2019
2029,2036,2061,2091,2081,1988,2043,2048
2026,2034,2054,2092,2089,1982,2019,2026
2034,2062,2072,2105,2128,2032,2032,2033
2056,2087,2091,2131,2150,2062,2051,2020
2038,2063,2082,2138,2189,2056,2036,1994
2034,2029,2055,2121,2169,2055,2047,1984
2004,1995,2037,2082,2051,2023,2068,1992
1990,1992,2031,2070,1977,2045,2081,2022
1999,1983,2017,2038,1908,2077,2068,2041
2015,1981,2001,2022,1934,2098,2060,2013
2018,2001,2040,2051,2031,2111,2050,1982
2049,2068,2099,2089,2095,2099,2076,1978
2081,2092,2112,2087,2117,2088,2064,2027
2111,2090,2086,2071,2108,2088,2080,2045
2108,2096,2083,2058,2085,2087,2061,2017
2084,2104,2076,2047,2081,2082,2045,1996
2050,2081,2054,2030,2057,2044,2046,1989
2019,2066,2040,2003,1966,2005,2052,2026
2042,2078,2044,2020,1977,2000,2064,2053
2052,2071,2039,2020,1997,2013,2057,2045
2041,2063,2025,2009,2002,2020,2053,2047
2037,2039,2009,2011,2051,2035,2066,2067
2021,2021,1983,1997,2086,2046,2061,2072
2002,2016,1986,2008,2110,2061,2063,2069
2009,2034,2016,2014,2091,2059,2058,2076
2031,2054,2025,2009,2042,2055,2051,2075
2041,2048,2028,1998,1991,2061,2042,2067
2052,2053,2032,1992,1941,2064,2053,2061
2060,2047,2032,1970,1884,2055,2051,2076
2072,2039,2025,1981,1949,2053,2048,2085
2070,2027,2028,2021,2039,2052,2034,2090
2085,2027,2045,2061,2131,2026,2032,2077
2086,2037,2046,2068,2179,2038,2056,2048
2063,2014,2040,2064,2170,2057,2052,2023
2047,2028,2054,2065,2166,2086,2056,2017
2050,2054,2064,2072,2130,2092,2039,2029
2042,2073,2073,2075,2082,2078,2074,2018
2033,2089,2086,2096,2066,2101,2090,2022
2033,2078,2069,2074,2001,2100,2080,2022
2020,2062,2049,2064,1995,2099,2071,2026
2022,2064,2053,2070,2022,2074,2067,2023
2024,2054,2054,2086,2046,2010,2047,1999
2008,2041,2065,2120,2104,2012,2049,1980
2011,2049,2073,2136,2148,2049,2061,1956
2013,2056,2069,2119,2116,2056,2022,1964
2038,2074,2068,2102,2074,2044,2024,1999
2071,2083,2059,2105,2070,2041,2042,2040
2101,2085,2063,2111,2028,2023,2035,2067
2092,2084,2063,2117,2044,2008,2049,2029
2036,2072,2062,2120,2107,2017,2037,2025
2050,2076,2077,2123,2112,2044,2051,2042
2072,2066,2066,2111,2138,2065,2073,2040
2039,2053,2068,2094,2136,2060,2054,2038
2011,2064,2074,2081,2086,2050,2045,2056
2018,2064,2083,2061,2032,2055,2082,2075
2026,2074,2086,2030,2010,2067,2077,2083
2038,2061,2041,1994,1958,2060,2069,2105
2040,2011,1993,1963,1884,2047,2050,2083
2049,2009,2036,1991,1969,2050,2018,2049
2056,2049,2096,2037,2033,2056,2043,2049
2054,2057,2099,2075,2131,2064,2041,2066
2064,2044,2087,2115,2158,2055,2044,2050
2054,2071,2067,2122,2118,2033,2022,2041
2044,2083,2034,2117,2080,2029,2034,2050
2050,2065,1996,2099,2076,2047,2037,2046
2053,2055,1957,2108,2146,2056,2014,2017
2018,2026,1927,2086,2114,2044,2010,1988
2021,2009,1907,2069,2092,2053,2048,2014
2034,2017,1923,2086,2118,2064,2064,2022
2053,2059,1948,2079,2068,2050,2049,2009
2046,2052,1940,2050,2048,2037,2050,2017
2030,2030,1921,2012,2041,2009,2016,2000
1996,1999,1930,1979,2028,2002,1978,1956
1981,2022,1993,1984,2023,2005,1998,1959
2007,2012,2007,1972,2038,2004,2007,1989
2019,2014,2030,2000,2123,2043,2057,2013
2031,2070,2078,2042,2161,2078,2090,2046
2057,2118,2108,2068,2150,2116,2091,2067
2065,2126,2109,2070,2138,2149,2078,2057
2060,2109,2100,2058,2108,2168,2073,2052
2044,2100,2094,2054,2102,2143,2052,2032
2038,2095,2104,2064,2132,2038,2042,2028
2047,2093,2102,2050,2107,1974,2037,2034
2061,2087,2098,2042,2071,1998,2045,2022
2055,2082,2100,2045,2064,2027,2035,2033
2048,2083,2094,2061,2085,2032,2018,2042
2027,2061,2073,2055,2080,2027,2005,2053
2025,2047,2058,2040,2075,2031,2006,2076
2052,2050,2068,2044,2078,2047,2041,2086
2048,2060,2068,2036,2049,2048,2045,2071
2033,2046,2072,2035,2016,2029,2026,2060
2026,2038,2074,2039,2005,2035,2025,2064
2040,2059,2088,2050,2002,2026,2027,2050
2030,2064,2098,2065,2032,2000,2038,2058
2027,2096,2117,2100,2098,2005,2056,2081
2052,2094,2113,2115,2144,2032,2066,2075
2058,2085,2095,2106,2153,2051,2070,2075
2066,2061,2066,2085,2142,2047,2038,2035
2041,2047,2068,2076,2130,2047,2033,2000
2052,2055,2088,2079,2120,2047,2034,2006
2057,2043,2071,2076,2119,2057,2029,2021
2061,2042,2060,2066,2111,2059,2059,2023
2032,2043,2038,2044,2046,2042,2055,2006
1991,2041,2018,2016,1993,2031,2052,2002
2009,2049,2014,2004,1999,2048,2032,1992
2020,2056,2009,1999,1991,2068,2024,1984
2019,2028,1981,1990,1973,2065,2025,1979
2022,2030,1972,1983,1969,2062,2016,1986
2023,2038,1971,1987,1983,2047,2014,1969
1998,2036,1971,2014,2040,2018,2031,2007
2031,2047,1998,2057,2090,2053,2084,2049
2053,2056,2017,2069,2107,2097,2088,2043
2051,2070,2014,2068,2109,2110,2055,2053
2064,2074,2008,2069,2120,2089,2047,2057
2059,2052,1998,2067,2111,2070,2060,2045
2045,2043,1999,2073,2100,2056,2058,2044
2042,2024,1997,2069,2078,2031,2042,2057
2035,2009,2007,2066,2072,2008,2045,2063
2043,2020,2033,2080,2072,1992,2068,2073
2052,2034,2061,2097,2087,1998,2056,2080
2070,2041,2098,2118,2088,1996,2063,2093
2087,2039,2122,2132,2082,1999,2054,2098
2089,2025,2133,2141,2086,2002,2057,2084
2089,2027,2138,2152,2079,2018,2058,2071
2098,2052,2154,2166,2082,2022,2035,2064
2060,2043,2135,2154,2063,2022,2025,2049
2001,2037,2121,2149,2057,2025,2020,2040
2002,2061,2124,2138,2059,2043,2018,2043
2025,2076,2113,2125,2068,2063,2043,2034
2019,2073,2099,2117,2077,2074,2051,2025
2017,2067,2094,2125,2079,2080,2045,2029
2023,2084,2089,2123,2084,2084,2055,2022
2043,2091,2087,2124,2081,2075,2045,2019
2051,2086,2075,2119,2088,2065,2031,2008
2033,2064,2058,2106,2084,2059,2036,2004
2019,2057,2045,2086,2062,2049,2036,2017
2027,2062,2034,2062,2045,2058,2053,2030
2035,2070,2028,2037,2035,2054,2048,2036
2044,2064,2026,2006,1993,2044,2041,2013
2035,2053,2033,1984,1971,2049,2038,1997
2024,2051,2054,2000,2010,2080,2049,1992
2022,2062,2071,2013,2014,2065,2024,1995
2023,2066,2072,2017,2014,2071,2046,2006
2038,2068,2062,2026,2047,2096,2064,2037
2062,2053,2056,2038,2076,2079,2064,2040
2059,2041,2046,2038,2088,2019,2053,2040
2039,2035,2040,2046,2089,1986,2031,2043
2036,2034,2026,2038,2068,1986,2028,2054
2043,2049,2034,2041,2058,2024,2049,2061
2054,2063,2057,2050,2064,2028,2078,2075
2065,2061,2074,2066,2067,2046,2078,2094
2075,2054,2082,2086,2074,2055,2064,2085
2062,2047,2090,2100,2074,2055,2060,2066
2056,2045,2097,2117,2081,2047,2049,2047
2043,2045,2092,2125,2078,2060,2051,2036
2041,2046,2078,2116,2092,2072,2044,2056
2046,2060,2083,2127,2086,2072,2062,2063
2043,2076,2090,2132,2066,2061,2048,2073
2055,2065,2056,2111,2061,2023,2034,2064
2058,2036,2005,2087,2035,2005,2018,2052
2044,2001,1964,2068,2024,2006,2014,2031
2019,1989,1953,2063,2029,2014,2022,2026
2025,2014,1984,2085,2042,2046,2041,2035
2057,2056,2008,2092,2062,2064,2068,2035
2063,2054,1995,2058,2046,2042,2058,2013
2036,2029,1961,2010,2023,2021,2040,2016
2023,2035,1977,2000,2013,2021,2030,2021
2040,2057,2026,1997,2028,2033,2042,2018
2045,2077,2052,2020,2033,2040,2027,2012
2045,2081,2073,2044,2020,2046,2040,2010
2058,2082,2092,2054,2016,2049,2028,2006
2055,2083,2082,2065,2021,2051,2033,1998
2057,2079,2060,2072,2026,2059,2055,2028
2094,2072,2042,2082,2041,2057,2078,2048
2108,2069,2024,2086,2042,2032,2049,2040
2088,2056,1998,2073,2034,2017,2035,2012
2065,2046,1987,2076,2061,2031,2033,1994
2039,2035,1981,2092,2112,2053,2037,2000
2050,2037,1997,2106,2128,2060,2048,2025
2046,2053,2003,2118,2124,2058,2055,2048
2041,2054,1987,2107,2110,2046,2047,2065
2050,2063,1985,2097,2106,2039,2047,2058
2051,2069,2000,2092,2101,2038,2047,2061
2056,2068,2022,2087,2091,2046,2032,2061
2049,2075,2058,2089,2085,2054,2035,2058
2038,2087,2088,2083,2076,2045,2042,2066
2036,2074,2097,2061,2044,2024,2030,2065
2028,2045,2090,2037,2020,2018,2037,2073
2034,2054,2104,2030,2013,2025,2052,2088
2036,2055,2106,2026,2017,2024,2066,2080
2036,2058,2114,2027,2030,2026,2062,2082
2061,2084,2136,2030,2043,2042,2071,2086
2073,2113,2150,2032,2053,2044,2051,2056
2068,2116,2154,2041,2058,2042,2042,2057
2090,2086,2139,2043,2059,2058,2052,2065
2096,2073,2106,2047,2055,2064,2060,2058
2072,2068,2088,2050,2064,2067,2045,2042
2031,2068,2077,2061,2083,2057,2042,2043
2020,2064,2064,2069,2079,2029,2049,2039
2047,2059,2058,2064,2075,2021,2043,2036
2060,2069,2075,2074,2071,2033,2052,2042
2067,2076,2077,2082,2064,2025,2058,2049
2062,2068,2060,2069,2039,2013,2042,2034
2042,2055,2050,2065,2036,2013,2031,2019
2042,2050,2062,2066,2039,2032,2039,2026
2042,2042,2056,2057,2033,2038,2041,2029
2058,2052,2060,2055,2006,2022,2060,2016
2050,2057,2064,2055,2006,2010,2057,2016
2048,2046,2063,2066,2023,2029,2073,2037
2058,2048,2061,2078,2053,2040,2080,2035
2051,2041,2063,2082,2068,2031,2072,2035
2056,2054,2063,2081,2052,2033,2066,2052
2072,2067,2061,2075,2028,2058,2070,2057
2063,2060,2048,2058,1993,2080,2045,2051
2036,2051,2039,2050,1980,2086,2049,2050
2037,2053,2032,2054,1971,2055,2046,2068
2042,2054,2031,2055,1968,1976,2051,2085
2048,2048,2044,2081,2002,1953,2053,2089
2050,2039,2054,2087,2016,1966,2054,2091
2050,2034,2044,2084,2025,1992,2054,2070
2044,2033,2037,2071,2025,2021,2032,2068
2044,2036,2036,2087,2057,2046,2061,2092
2070,2033,2078,2121,2096,2063,2068,2092
2080,2042,2096,2139,2120,2097,2089,2098
2085,2052,2092,2144,2133,2127,2092,2087
2081,2056,2079,2136,2128,2122,2106,2061
2065,2043,2059,2120,2091,2099,2070,2042
2034,2013,2028,2095,2064,2078,2085,2012
2033,1999,2018,2088,2054,2077,2084,2022
2056,1999,2004,2075,2030,2054,2064,2036
2053,1984,1975,2058,2014,2029,2040,2015
2061,2003,1989,2075,2022,2046,2060,2013
2102,2042,2023,2088,2032,2060,2076,2000
2095,2047,2021,2085,2022,2055,2045,2008
2058,2049,2012,2068,2023,2047,2039,2006
1998,2046,2001,2056,2014,2035,2026,1997
1993,2068,2019,2056,2031,2036,2036,2032
2037,2091,2034,2044,2077,2032,2039,2047
2062,2102,2056,2058,2116,2051,2067,2050
2068,2091,2062,2071,2134,2074,2068,2033
2044,2070,2050,2059,2122,2073,2058,2032
2039,2055,2048,2043,2069,2056,2069,2041
2047,2051,2059,2028,2033,2032,2072,2063
2064,2061,2094,2045,2050,2033,2093,2078
2094,2088,2117,2069,2012,2046,2093,2101
2106,2102,2118,2053,1952,2058,2056,2078
2067,2072,2085,2037,1966,2069,2053,2066
2058,2046,2076,2043,1986,2078,2054,2078
2076,2069,2102,2077,1983,2082,2054,2074
2083,2090,2124,2106,1987,2040,2025,2097
2088,2104,2136,2141,2028,1996,2020,2099
2057,2085,2116,2153,2068,2009,2030,2105
2057,2078,2102,2139,2104,2055,2036,2102
2060,2064,2066,2126,2157,2091,2059,2072
2050,2065,2061,2140,2178,2117,2066,2069
2048,2081,2064,2135,2135,2093,2043,2061
2054,2082,2057,2123,2097,2022,2029,2072
2075,2084,2060,2114,2075,2009,2030,2064
2082,2082,2063,2104,2050,2029,2052,2045
2074,2086,2062,2100,2034,2036,2060,2048
2066,2062,2036,2079,2015,2029,2062,2041
2069,2046,2016,2058,2017,2030,2060,2025
2056,2033,1999,2043,2053,2038,2068,2033
2062,2037,1981,2032,2084,2043,2067,2037
2050,2025,1972,2037,2084,2042,2078,2033
2046,2017,1965,2029,2043,2053,2075,2015
2026,2017,1975,2050,2036,2054,2062,2007
2018,2037,1983,2056,2056,2060,2065,2018
2043,2045,1989,2057,2075,2062,2060,2027
2065,2049,1980,2045,2068,2068,2045,2011
2066,2045,1986,2049,2060,2053,2034,2029
2078,2052,1988,2038,2050,2047,2047,2031
2070,2041,1982,2037,2048,2047,2048,2035
2053,2037,1971,2044,2052,2027,2048,2035
2022,2032,1966,2052,2064,2016,2042,2035
2032,2044,1974,2068,2079,2046,2059,2052
2054,2054,1978,2071,2079,2049,2042,2066
2055,2047,1979,2075,2058,2041,2045,2069
2047,2036,2001,2067,2050,2024,2027,2061
2050,2040,2037,2062,2046,2016,2045,2071
2063,2063,2078,2064,2041,2017,2035,2079
2069,2074,2093,2063,2034,2024,2045,2089
2064,2067,2085,2053,2024,2027,2038,2088
2062,2065,2088,2051,2022,2030,2065,2095
2077,2080,2099,2055,2021,2034,2059,2103
2086,2086,2094,2059,2007,2023,2049,2099
2069,2066,2103,2067,2009,2020,2054,2090
2055,2061,2110,2085,2020,2026,2050,2073
2071,2082,2114,2098,2016,2031,2067,2078
2087,2082,2112,2095,2014,2030,2056,2081
2088,2082,2105,2088,2031,2042,2042,2071
2084,2076,2089,2081,2043,2041,2044,2055
2071,2045,2055,2067,2035,2035,2033,2042
2074,2046,2062,2058,2028,2040,2037,2022
2082,2052,2068,2055,2027,2024,2036,2021
2059,2052,2074,2054,2023,2008,2034,2029
2050,2051,2074,2047,2028,2017,2045,2023
2044,2049,2079,2027,2048,2032,2064,2028
2051,2049,2072,2017,2058,2021,2053,2032
2062,2037,2055,2018,2047,2016,2054,2029
2054,2037,2047,2009,2032,2015,2060,2030
2042,2045,2050,2022,2019,2018,2058,2028
2042,2035,2045,2031,2016,2031,2062,2042
2050,2040,2054,2040,2051,2049,2070,2049
2050,2047,2063,2060,2074,2064,2085,2047
2043,2055,2064,2066,2090,2071,2062,2043
2047,2072,2072,2073,2092,2071,2075,2054
2068,2084,2071,2066,2093,2067,2077,2062
2079,2087,2077,2074,2091,2059,2069,2057
2067,2075,2078,2069,2090,2048,2066,2055
2063,2061,2064,2065,2071,2048,2056,2054
2054,2052,2054,2061,2064,2044,2065,2065
2051,2040,2051,2061,2058,2045,2072,2071
2055,2054,2061,2057,2043,2040,2042,2070
2061,2067,2061,2062,2032,2000,2025,2086
2056,2060,2056,2060,2038,1978,2018,2075
2039,2043,2046,2053,2048,1993,2043,2062
2046,2044,2047,2053,2051,2006,2050,2076
2063,2042,2040,2056,2064,2034,2071,2079
2055,2047,2048,2070,2081,2068,2083,2075
2052,2054,2059,2071,2081,2077,2067,2073
2051,2061,2058,2062,2052,2072,2063,2060
2059,2058,2055,2051,2035,2073,2072,2061
2053,2055,2047,2047,2032,2081,2050,2051
2046,2049,2040,2045,2046,2096,2062,2047
2055,2050,2038,2046,2037,2123,2046,2040
2054,2050,2030,2037,2040,2160,2068,2039
2057,2046,2035,2041,2038,2165,2081,2044
2066,2046,2034,2045,2035,2098,2069,2052
2071,2052,2045,2052,2030,1982,2066,2046
2069,2057,2059,2056,2039,1967,2064,2043
2072,2065,2070,2064,2055,1993,2060,2018
2047,2068,2070,2064,2052,2009,2040,2011
2050,2064,2062,2057,2040,2001,2037,2028
2058,2046,2046,2043,2031,2012,2051,2021
2067,2053,2055,2047,2034,2031,2064,2024
2073,2070,2061,2060,2053,2050,2080,2046
2069,2068,2054,2059,2050,2056,2082,2041
2066,2060,2047,2052,2052,2055,2075,2043
2064,2056,2044,2052,2060,2060,2066,2038
2061,2055,2043,2055,2053,2055,2070,2050
2067,2047,2040,2048,2050,2049,2037,2054
2056,2047,2029,2050,2049,2046,2069,2062
2057,2035,2021,2048,2051,2046,2062,2074
2060,2027,2017,2039,2050,2040,2070,2078
2060,2022,2012,2049,2044,2040,2064,2094
2063,2023,2008,2046,2057,2040,2055,2099
2060,2022,1992,2043,2048,2042,2060,2091
2054,2031,2008,2058,2055,2049,2073,2091
2047,2027,2017,2062,2065,2050,2078,2089
2041,2023,2016,2066,2060,2048,2074,2095
2045,2033,2017,2060,2050,2038,2070,2093
2044,2026,2007,2056,2040,2037,2067,2085
2047,2027,2012,2066,2046,2031,2055,2079
2046,2029,2016,2066,2040,2040,2058,2084
2051,2029,2017,2071,2032,2044,2061,2070
2055,2038,2032,2064,2025,2036,2062,2062
2054,2039,2039,2068,2021,2035,2069,2050
2048,2051,2054,2064,2022,2034,2075,2047
2070,2060,2079,2069,2025,2044,2068,2038
2068,2055,2093,2069,2029,2046,2063,2045
2065,2053,2103,2072,2040,2064,2072,2060
2074,2069,2117,2083,2054,2059,2081,2062
2076,2067,2116,2074,2042,2051,2052,2044
2075,2049,2099,2054,2014,2045,2042,2045
2070,2033,2070,2028,1979,2080,2038,2031
2075,2002,2047,2012,1954,2089,2042,2006
2046,1993,2036,2010,1938,2098,2025,1976
2009,2001,2034,2013,1950,2101,2035,1993
2035,2028,2056,2047,1986,2072,2059,2035
2062,2064,2078,2083,2043,2003,2080,2064
2049,2070,2079,2103,2112,2008,2092,2054
2043,2075,2073,2112,2137,2040,2090,2053
2043,2082,2045,2105,2136,2065,2065,2058
2048,2074,2016,2092,2120,2083,2047,2058
2043,2057,1982,2077,2102,2101,2074,2071
2054,2046,1972,2071,2078,2076,2070,2072
2058,2040,1973,2076,2058,2052,2059,2078
2051,2031,1981,2074,2042,2043,2058,2094
2056,2031,1995,2070,2012,2001,2055,2084
2045,2017,1998,2057,1975,1942,2018,2074
2036,2004,2004,2043,1947,1911,2011,2070
2032,1991,2002,2030,1948,1928,2003,2071
2033,2007,2020,2036,1977,1970,2002,2082
2038,2017,2028,2037,2032,2008,2034,2085
2033,2038,2056,2068,2091,2051,2026,2076
2029,2058,2081,2091,2118,2074,2044,2077
2052,2081,2100,2084,2100,2083,2064,2079
2056,2089,2082,2058,2091,2091,2062,2076
2060,2070,2056,2033,2058,2058,2071,2079
2062,2061,2039,2002,2034,2038,2053,2062
2054,2075,2061,1996,2019,2017,2033,2036
2039,2065,2070,1997,2023,2023,2044,2049
2064,2064,2076,1998,2032,2031,2056,2060
2071,2060,2063,1996,2029,2027,2065,2069
2081,2068,2070,2005,2035,2028,2066,2069
2077,2081,2091,2022,2037,2033,2050,2060
2080,2086,2100,2017,2036,2026,2051,2059
2080,2085,2088,2007,2042,2026,2042,2051
2074,2076,2081,2016,2045,2018,2030,2039
2066,2069,2089,2026,2032,2009,2048,2047
2046,2068,2082,2057,2043,2004,2049,2049
2049,2072,2071,2072,2054,2013,2069,2061
2065,2062,2054,2061,2067,2009,2054,2083
2079,2057,2030,2048,2068,2001,2039,2074
2059,2033,2029,2053,2083,2009,2048,2051
2070,2063,2073,2081,2098,2032,2068,2061
2075,2076,2086,2072,2052,2042,2080,2075
2080,2067,2072,2058,2017,2060,2070,2084
2069,2052,2067,2060,2033,2102,2061,2089
2057,2048,2060,2059,2046,2112,2060,2086
2036,2043,2045,2053,2019,2091,2052,2086
2022,2037,2049,2051,2016,2064,2046,2081
2029,2058,2051,2051,2016,2054,2043,2089
2046,2062,2052,2057,2019,2049,2054,2083
2045,2049,2047,2052,2026,2053,2056,2095
2043,2051,2046,2060,2042,2061,2045,2115
2080,2071,2049,2070,2055,2064,2061,2103
2087,2060,2047,2065,2056,2056,2043,2092
2079,2054,2040,2060,2051,2055,2040,2075
2074,2043,2029,2063,2038,2056,2050,2060
2063,2035,2020,2058,2026,2058,2034,2057
2054,2026,2020,2065,2021,2056,2033,2055
2040,2022,2028,2069,2033,2058,2034,2040
2027,2029,2034,2068,2026,2057,2053,2053
2045,2022,2015,2059,2011,2053,2052,2063
2060,2023,2029,2059,2001,2040,2053,2052
2045,2039,2043,2073,2013,2038,2059,2049
2063,2068,2073,2079,2027,2055,2068,2050
2076,2057,2049,2068,2023,2049,2054,2050
2060,2032,2020,2049,2006,2035,2028,2042
2050,2019,2003,2038,2009,2017,2019,2022
2039,2033,2028,2057,2019,2037,2027,2026
2058,2072,2059,2065,2036,2051,2048,2045
2073,2073,2067,2058,2025,2051,2039,2062
2075,2055,2024,2022,2006,2039,2045,2065
2064,2028,2000,2008,1980,2050,2052,2051
2058,2046,2019,2016,2006,2056,2059,2055
2075,2068,2038,2026,2040,2061,2051,2040
2069,2067,2029,2024,2073,2046,2037,2037
2053,2042,2024,2029,2103,2049,2046,2081
2077,2039,2030,2054,2130,2057,2033,2093
2086,2056,2047,2070,2133,2060,2042,2084
2084,2064,2041,2067,2126,2057,2035,2076
2060,2048,2032,2067,2077,2048,2039,2068
2029,2038,2037,2058,2031,2051,2041,2070
2016,2043,2029,2053,1986,2054,2037,2075
2046,2045,2018,2032,1946,2071,2056,2085
2065,2046,2022,2032,1894,2069,2044,2097
2041,2029,2028,2035,1874,2055,2027,2081
2018,2020,2036,2042,1922,2019,2018,2077
2030,2040,2063,2057,1967,1991,2019,2082
2052,2064,2087,2063,1988,2004,2007,2087
2043,2063,2088,2069,2006,2046,2016,2081
2050,2058,2088,2066,2021,2064,2029,2057
2035,2043,2071,2048,1995,2063,2029,2032
2042,2044,2074,2029,1979,2054,2023,2032
2036,2052,2076,2023,1969,2035,2028,2047
2059,2061,2085,2025,1978,2022,2032,2058
2072,2059,2080,2030,2025,2016,2027,2051
2072,2058,2065,2039,2037,1999,2038,2064
2072,2053,2062,2052,2076,2008,2046,2056
2066,2056,2070,2068,2103,2038,2046,2048
2063,2066,2080,2067,2106,2063,2055,2045
2040,2059,2065,2057,2093,2072,2046,2034
2039,2058,2057,2058,2082,2072,2053,2043
2058,2078,2056,2065,2074,2076,2051,2052
2080,2083,2058,2072,2056,2067,2033,2044
2062,2073,2045,2073,2040,2046,2034,2040
2049,2058,2049,2078,2024,2050,2061,2039
2059,2060,2055,2069,2025,2054,2061,2060
2065,2062,2051,2071,2039,2062,2044,2063
2065,2060,2044,2065,2034,2061,2055,2058
2055,2053,2037,2065,2041,2067,2063,2057
2055,2059,2043,2064,2032,2052,2041,2059
2046,2056,2038,2056,2027,2036,2042,2075
2051,2052,2026,2060,2033,2028,2049,2089
2053,2044,2018,2055,2050,2036,2054,2090
2059,2039,2016,2058,2065,2041,2049,2093
2046,2034,2014,2063,2073,2046,2041,2103
2053,2041,2017,2049,2064,2052,2041,2097
2053,2042,2027,2069,2060,2055,2041,2099
2047,2033,2027,2079,2052,2072,2048,2090
2052,2025,2033,2089,2029,2100,2054,2089
2046,2018,2037,2092,1991,2112,2053,2072
2045,2010,2018,2084,1967,2100,2047,2059
2040,2000,2002,2084,1954,2080,2025,2061
2040,2000,1985,2089,1964,1999,2032,2058
2044,2010,1984,2112,2025,1962,2026,2054
2045,2007,1965,2105,2070,2006,2026,2054
2050,2003,1944,2099,2078,2052,2040,2051
2052,2008,1948,2091,2079,2082,2070,2052
2062,2025,1962,2079,2058,2091,2058,2047
2070,2042,1980,2074,2039,2072,2025,2038
2066,2030,1968,2042,2015,2052,2016,2033
2058,2013,1970,2016,2009,2005,2018,2026
2035,2001,1964,1992,1992,1936,1993,2006
2002,1980,1960,1954,1972,1928,1985,2014
2023,2013,2011,1939,1990,1972,2007,2037
2068,2085,2094,1972,2023,2022,2050,2049
2093,2111,2141,1999,2030,2038,2050,2057
2090,2098,2140,2021,2040,2037,2055,2066
2086,2092,2114,2039,2039,2031,2037,2070
2090,2074,2078,2048,2034,2026,2047,2071
2076,2060,2046,2036,2030,2031,2064,2066
2052,2039,2028,2021,2037,2039,2064,2074
2056,2060,2054,2045,2064,2066,2045,2088
2069,2078,2082,2057,2076,2072,2065,2084
2072,2074,2085,2053,2058,2070,2074,2081
2075,2075,2079,2034,2053,2068,2069,2093
2089,2082,2096,2016,2023,2054,2054,2092
2077,2075,2101,1999,2004,2039,2064,2095
2073,2078,2105,1987,1987,2028,2027,2115
2044,2064,2092,1977,1972,2015,2031,2106
2045,2056,2088,1997,1978,2016,2039,2096
2059,2070,2096,2014,1995,2024,2049,2122
2072,2071,2080,2023,2000,2021,2049,2125
2076,2077,2081,2029,1991,2008,2029,2120
2083,2084,2078,2035,2008,2006,2036,2090
2062,2069,2075,2036,2046,2009,2043,2072
2070,2075,2088,2052,2073,2031,2045,2072
2076,2092,2110,2062,2079,2047,2045,2088
2078,2088,2114,2062,2072,2061,2057,2076
2074,2075,2101,2064,2060,2069,2042,2055
2069,2073,2092,2066,2054,2065,2036,2063
2066,2072,2082,2069,2046,2051,2035,2061
2061,2074,2078,2064,2011,2039,2014,2046
2057,2072,2077,2058,1998,2025,2012,2028
2060,2062,2059,2050,1988,2013,2014,2022
2044,2045,2040,2032,1982,1997,2012,2018
2029,2036,2035,2039,2004,2013,2030,2026
2033,2036,2038,2057,2042,2030,2055,2041
2054,2046,2046,2070,2073,2059,2063,2055
2063,2053,2032,2072,2088,2078,2068,2059
2066,2049,2017,2065,2080,2073,2080,2060
2066,2038,1999,2048,2060,2061,2075,2069
2067,2043,1991,2040,2053,2057,2068,2068
2059,2040,2002,2046,2044,2053,2051,2042
2038,2030,2045,2058,2055,2064,2047,2035
2030,2043,2066,2068,2057,2063,2053,2042
2033,2044,2067,2083,2053,2058,2048,2072
2054,2060,2076,2104,2050,2056,2052,2099
2071,2079,2109,2116,2056,2061,2059,2096
2078,2097,2131,2130,2060,2066,2050,2099
2073,2097,2132,2118,2052,2060,2012,2099
2068,2087,2127,2108,2034,2043,2022,2090
2060,2064,2091,2088,2032,2042,2042,2094
2066,2055,2065,2084,2039,2049,2052,2098
2071,2069,2072,2096,2026,2050,2050,2104
2085,2066,2063,2092,2019,2043,2045,2098
2089,2045,2039,2073,2001,2028,2021,2087
2075,2027,2009,2033,1981,2010,1992,2063
2048,2015,2011,2027,1983,2015,2028,2043
2055,2030,2032,2011,1986,2028,2039,2051
2068,2058,2048,2015,1997,2050,2055,2046
2059,2069,2056,2019,2009,2066,2045,2038
2042,2072,2051,2015,2031,2075,2028,2043
2041,2078,2043,2020,2042,2075,2050,2041
2038,2073,2040,2037,2044,2056,2057,2042
2056,2084,2063,2062,2079,2016,2079,2056
2075,2085,2075,2072,2109,2021,2066,2049
2066,2069,2065,2076,2098,2034,2042,2036
2047,2043,2041,2057,2070,2036,2034,2027
2033,2041,2047,2043,2063,2044,2057,2032
2043,2058,2057,2031,2052,2038,2045,2035
2040,2058,2061,2019,2013,2031,2051,2049
2059,2070,2064,2037,2019,2022,2061,2051
2062,2063,2048,2041,2032,2036,2061,2049
2056,2049,2030,2016,2049,2057,2062,2052
2067,2044,2020,2004,2042,2072,2066,2062
2074,2046,2023,1992,2011,2072,2050,2078
2075,2045,2024,1976,1962,2070,2031,2068
2068,2038,2026,1979,1963,2066,2060,2066
2059,2035,2023,1976,1966,2062,2043,2058
2042,2013,2012,1964,1947,2043,2041,2076
2038,2017,2018,1987,1980,2005,2054,2102
2025,2028,2022,2016,2046,2015,2065,2103
2031,2044,2037,2046,2092,2046,2073,2088
2034,2054,2042,2058,2078,2058,2068,2075
2034,2057,2036,2049,2056,2049,2058,2077
2039,2067,2042,2050,2047,2042,2052,2086
2049,2062,2034,2038,2005,2043,2045,2087
2036,2048,2030,2023,1977,2050,2040,2081
2038,2038,2014,2017,2006,2052,2053,2072
2038,2030,1991,2014,2006,2057,2046,2062
2031,2025,1980,2013,2007,2057,2034,2055
2039,2033,1976,2016,2008,2053,2017,2053
2042,2034,1969,2027,2008,2050,2055,2051
2045,2025,1983,2047,2019,2048,2055,2056
2053,2029,2006,2066,2025,2049,2065,2054
2054,2035,2008,2073,2028,2045,2055,2050
2053,2034,1995,2074,2027,2052,2077,2054
2049,2028,1983,2061,2031,2054,2066,2048
2050,2020,1968,2047,2018,2042,2073,2045
2043,2003,1961,2033,2005,2029,2047,2035
2047,2018,1992,2043,2006,2049,2054,2035
2043,2056,2045,2067,2022,2062,2064,2026
2029,2064,2069,2073,2032,2056,2063,2022
2032,2063,2075,2061,2020,2032,2043,2024
2040,2060,2080,2041,2016,2007,2050,2041
2057,2069,2109,2036,2027,2004,2054,2060
2058,2082,2129,2031,2031,2022,2060,2070
2065,2079,2130,2020,2011,2047,2064,2075
2061,2068,2116,2006,2006,2055,2060,2083
2061,2060,2090,2008,1989,2053,2066,2088
2050,2052,2077,2005,1988,2047,2062,2099
2071,2061,2092,2021,2000,2021,2074,2101
2068,2060,2098,2038,2025,2015,2068,2108
2064,2064,2087,2039,2051,2041,2059,2102
2042,2055,2062,2031,2045,2049,2040,2093
2038,2058,2067,2030,2067,2055,2047,2095
2039,2076,2082,2035,2079,2064,2070,2118
2075,2104,2094,2044,2072,2032,2084,2116
2091,2099,2090,2056,2078,2009,2086,2110
2080,2083,2069,2059,2055,2030,2070,2101
2058,2061,2040,2036,1982,2061,2065,2076
2041,2044,2020,1997,1899,2054,2054,2069
2034,2033,2006,1971,1861,2041,2032,2036
2009,2042,2015,1964,1846,1985,2005,2023
2022,2059,2033,1992,1818,1890,2031,2075
2056,2061,2047,2032,1931,1927,2055,2100
2082,2067,2048,2064,2081,2005,2068,2080
2091,2075,2056,2083,2152,2078,2081,2066
2078,2070,2040,2070,2169,2104,2079,2063
2070,2053,2030,2059,2128,2094,2075,2049
2047,2055,2032,2049,2086,2067,2061,2037
2031,2042,2014,2034,2057,2053,2042,2040
2035,2034,2005,2034,2056,2053,2075,2058
2066,2046,2018,2049,2058,2050,2073,2057
2056,2046,2026,2059,2061,2044,2067,2029
2037,2036,2034,2068,2066,2050,2049,2036
2050,2054,2044,2071,2086,2056,2075,2046
2047,2044,2028,2075,2128,2059,2066,2055
2053,2041,2006,2076,2140,2065,2083,2056
2039,2032,1992,2082,2145,2065,2055,2052
2030,2014,1996,2083,2146,2064,2053,2061
2032,2035,2005,2093,2141,2073,2079,2067
2040,2024,2004,2083,2126,2069,2085,2077
2037,2018,1989,2072,2096,2063,2080,2089
2047,2025,1996,2067,2054,2062,2069,2092
2051,2025,1987,2064,2030,2061,2060,2094
2064,2019,1988,2053,1934,2033,2072,2100
2048,2008,1965,2024,1906,2018,2041,2099
2054,2010,1977,2038,1941,2025,2041,2110
2068,2048,2023,2049,1975,2027,2039,2110
2074,2066,2044,2045,1985,2033,2052,2108
2077,2085,2071,2055,1986,2051,2077,2099
2057,2106,2126,2072,2003,2058,2082,2088
2053,2105,2145,2054,1982,2032,2051,2075
2029,2076,2118,2030,1973,2018,2049,2061
2029,2076,2123,2035,1976,2029,2064,2058
2055,2097,2136,2045,1992,2044,2073,2064
2071,2105,2135,2048,1994,2039,2086,2073
2066,2090,2099,2021,1906,2005,2065,2061
2049,2067,2069,1973,1760,1977,2051,2051
2046,2059,2057,1952,1767,1969,2067,2052
2046,2074,2068,1977,1886,1996,2052,2046
2050,2084,2072,2004,1981,2037,2057,2032
2044,2070,2065,2018,2069,2062,2067,2028
2041,2057,2053,2036,2152,2093,2078,2042
2060,2060,2050,2034,2178,2094,2068,2051
2064,2052,2033,2029,2177,2085,2048,2050
2055,2050,2038,2039,2157,2083,2081,2046
2059,2066,2059,2054,2142,2091,2076,2056
2058,2072,2052,2059,2133,2096,2089,2062
2054,2064,2044,2042,2139,2101,2072,2065
2055,2072,2040,2040,2119,2099,2077,2065
2044,2078,2017,2045,2087,2088,2079,2075
2050,2070,2000,2048,2066,2088,2087,2088
2061,2069,2003,2048,2081,2084,2084,2094
2064,2060,2021,2049,2120,2092,2073,2112
2066,2066,2036,2055,2138,2109,2074,2110
2065,2067,2036,2044,2043,2081,2067,2105
2048,2051,2032,2028,1931,2035,2044,2095
2041,2041,2036,2019,1913,2041,2060,2106
2047,2052,2052,2050,1976,2065,2066,2105
2053,2057,2069,2072,2030,2068,2063,2100
2051,2057,2080,2096,2125,2059,2060,2084
2049,2047,2068,2120,2205,2049,2071,2079
2053,2040,2068,2106,2134,2049,2063,2082
2057,2028,2053,2072,2039,2035,2059,2084
2065,2039,2064,2054,2029,2035,2053,2068
2066,2047,2071,2031,1991,2015,2051,2060
2065,2056,2076,2009,1900,1999,2040,2050
2050,2060,2063,2014,1935,2005,2042,2041
2061,2060,2056,2010,2014,2015,2030,2040
2060,2049,2028,2002,2032,2022,2039,2026
2057,2042,2035,2007,2041,2045,2025,2034
2060,2047,2056,2019,2054,2064,2031,2042
2056,2046,2057,2015,2052,2063,2027,2037
2043,2024,2037,2018,2086,2023,2019,2027
2042,2032,2052,2037,2116,2021,2033,2029
2050,2043,2054,2056,2118,2018,2047,2037
2052,2043,2062,2065,2110,2025,2063,2054
2057,2058,2089,2079,2120,2030,2064,2063
2055,2068,2095,2077,2129,2047,2076,2062
2062,2081,2097,2066,2156,2087,2089,2066
2072,2085,2082,2056,2193,2131,2092,2061
2071,2069,2065,2042,2204,2142,2083,2058
2063,2053,2040,2012,2148,2134,2070,2066
2054,2048,2029,1980,2002,2100,2059,2072
2054,2052,2032,1986,1973,2035,2047,2082
2056,2053,2040,2020,2023,1970,2033,2107
2070,2059,2040,2034,2003,1955,2036,2096
2070,2053,2030,2023,1910,1981,2059,2080
2055,2050,2020,1995,1768,2021,2056,2065
2024,2027,1987,1959,1669,2030,2047,2076
2022,2014,1994,1963,1727,2042,2037,2092
2043,2037,2008,1989,1785,2050,2045,2088
2053,2035,2010,1993,1798,2008,2036,2098
2060,2050,2024,1998,1823,1946,2029,2096
2057,2056,2039,2011,1908,1944,2045,2092
2060,2068,2054,2032,2003,1979,2036,2086
2062,2065,2045,2031,2076,2029,2053,2058
2047,2054,2040,2051,2170,2100,2060,2053
2038,2053,2042,2090,2211,2130,2072,2055
2055,2059,2055,2094,2164,2123,2076,2047
2054,2050,2044,2076,2136,2090,2060,2056
2064,2036,2041,2086,2182,2042,2063,2071
2079,2035,2035,2112,2195,1994,2072,2066
2079,2028,2013,2123,2228,2007,2053,2041
2056,2013,1997,2119,2260,2030,2047,2030
2053,2018,2004,2116,2238,2049,2052,2011
2039,2023,2020,2094,2146,2056,2053,2024
2027,2043,2029,2062,2074,2023,2032,2021
2014,2060,2036,2032,2059,2000,2042,2019
2035,2071,2035,2011,2004,2002,2042,2043
2063,2084,2038,1980,1804,2003,2053,2047
2065,2079,2026,2001,1825,2027,2056,2047
2064,2074,2032,2029,1926,2037,2049,2052
2061,2061,2024,2043,1961,2028,2061,2049
2048,2054,2036,2019,1934,2021,2076,2060
2051,2057,2044,2020,2000,2051,2081,2068
2057,2065,2060,2049,2121,2094,2091,2070
2061,2072,2085,2060,2146,2112,2098,2078
2055,2078,2090,2058,2175,2109,2074,2080
2045,2059,2080,2028,2170,2083,2058,2075
2041,2042,2060,1997,2097,2023,2037,2078
2034,2029,2046,2008,2076,2033,2048,2086
2039,2034,2049,2031,2074,2040,2037,2068
2033,2036,2067,2059,2042,2048,2039,2072
2033,2040,2051,2052,1969,2034,2045,2077
2036,2028,2034,2037,1962,2029,2039,2070
2031,2032,2031,2033,1973,2042,2046,2068
2047,2044,2032,2028,1995,2051,2060,2074
2061,2049,2028,2034,2004,2062,2040,2057
2046,2041,2019,2034,2012,2063,2042,2055
2043,2037,2011,2034,2027,2062,2051,2053
2050,2035,2000,2030,2022,2087,2042,2049
2049,2027,2002,2024,1989,2094,2038,2035
2049,2032,2008,2008,1948,2100,2042,2036
2050,2033,2007,1998,1910,2106,2045,2037
2049,2036,2008,2007,1945,2096,2053,2053
2056,2035,2015,2029,1992,2069,2068,2060
2055,2033,2030,2048,2043,2044,2064,2061
2064,2059,2075,2067,2062,2032,2078,2075
2087,2084,2104,2068,2036,2015,2072,2071
2084,2087,2101,2052,1967,1992,2046,2061
2073,2064,2074,2015,1904,2000,2043,2043
2053,2038,2045,1971,1882,2003,2017,2029
2042,2023,2027,1945,1948,1981,2000,2005
2018,2012,2015,1930,1957,1939,1985,2008
2017,2033,2038,1943,1888,1874,1991,2020
2049,2069,2073,2009,1959,1931,2023,2046
2057,2083,2088,2084,2156,2027,2066,2068
2070,2089,2084,2094,2212,2077,2042,2068
2066,2069,2065,2090,2212,2123,2034,2060
2054,2058,2047,2068,2183,2150,2027,2057
2043,2052,2040,2054,2131,2141,2016,2061
2042,2045,2032,2041,2123,2144,2024,2069
2044,2040,2023,2049,2121,2171,2039,2074
2046,2031,2017,2054,2128,2190,2028,2066
2033,2013,2013,2048,2114,2147,2010,2063
2020,1996,2006,2042,2083,2057,2014,2060
2003,2003,2022,2051,2086,2011,2033,2073
2025,2031,2042,2056,2084,2029,2029,2085
2044,2043,2042,2054,2074,2064,2042,2093
2052,2046,2049,2051,2062,2057,2017,2087
2046,2044,2040,2053,2042,2033,1997,2075
2051,2048,2043,2061,2044,2022,2022,2082
2063,2066,2059,2070,2068,2014,2022,2075
2065,2061,2047,2072,2112,2022,2025,2073
2064,2058,2043,2078,2131,2052,2015,2064
2061,2050,2045,2088,2145,2073,2040,2044
2062,2045,2038,2080,2144,2072,2014,2038
2056,2044,2034,2071,2133,2070,1997,2027
2044,2036,2020,2064,2124,2073,2018,2030
2047,2033,2013,2058,2116,2076,2027,2029
2052,2032,2005,2052,2111,2085,2036,2022
2033,2021,1993,2025,2061,2067,2028,2021
2019,2003,1972,1994,1959,2054,2037,2031
2023,1996,1952,1980,2001,2052,2032,2036
2038,2004,1964,1986,2053,2046,2042,2028
2049,2020,1997,2011,2095,2047,2068,2019
2053,2054,2030,2026,2115,2049,2074,2007
2049,2073,2041,2027,2091,2048,2070,2021
2055,2063,2037,2030,2070,2057,2085,2053
2053,2058,2044,2038,2050,2056,2080,2072
2056,2066,2069,2052,1973,2063,2079,2074
2074,2080,2096,2057,1876,2065,2090,2090
2090,2093,2106,2047,1745,2056,2079,2095
2082,2083,2100,2037,1729,2053,2076,2090
2070,2080,2095,2041,1808,2072,2089,2086
2056,2088,2120,2053,1883,2080,2091,2081
2043,2084,2127,2058,1938,2058,2084,2088
2038,2066,2108,2035,1949,2032,2059,2083
2035,2056,2088,2001,1893,2016,2060,2074
2038,2050,2077,1988,1871,2005,2050,2073
2054,2055,2064,1987,1983,1979,2035,2083
2055,2046,2053,1994,2095,1981,2035,2082
2048,2034,2053,2010,2169,2007,2023,2074
2037,2035,2050,2051,2260,2041,2039,2068
2033,2040,2049,2063,2185,2043,2028,2058
2034,2043,2047,2033,2041,2018,2031,2042
2032,2033,2036,2027,2015,2019,2024,2030
2053,2050,2051,2030,2036,2032,2028,2025
2059,2058,2061,2045,2038,2040,2023,2018
2052,2056,2066,2036,2031,2040,2037,2027
2042,2049,2064,2032,2014,2035,2041,2032
2042,2052,2058,2022,2000,2025,2056,2026
2039,2052,2060,2019,2006,2033,2062,2024
2042,2057,2059,2035,2025,2038,2062,2023
2047,2061,2052,2058,2062,2044,2054,2021
2047,2055,2047,2064,2100,2053,2061,2031
2057,2059,2054,2063,2088,2053,2058,2038
2065,2070,2062,2058,2081,2064,2075,2044
2064,2064,2058,2053,2117,2077,2069,2048
2066,2059,2060,2068,2132,2097,2065,2046
2058,2056,2060,2069,2106,2103,2081,2044
2059,2047,2051,2067,2072,2100,2057,2050
2047,2034,2035,2061,2062,2104,2068,2049
2036,2028,2035,2062,2056,2098,2060,2032
2018,2024,2029,2069,2087,2101,2061,2033
2016,2026,2029,2074,2162,2104,2063,2062
2052,2066,2057,2100,2226,2096,2072,2096
2083,2098,2072,2104,2203,2081,2078,2105
2089,2090,2062,2059,2076,2057,2066,2092
2075,2074,2048,2026,1943,2052,2058,2079
2060,2067,2048,2018,2006,2049,2055,2068
2045,2051,2039,2017,2092,2039,2028,2057
2039,2036,2028,2023,2154,2022,2021,2081
2050,2033,2034,2033,2125,1996,2042,2086
2054,2040,2049,2021,1912,1974,2041,2087
2052,2046,2042,2005,1832,1974,2044,2083
2062,2044,2046,2034,1931,1991,2057,2080
2069,2045,2037,2027,1980,2016,2040,2079
2067,2034,2023,2016,2014,2042,2047,2068
2061,2043,2031,2023,2031,2083,2047,2058
2060,2052,2047,2039,2057,2122,2071,2044
2055,2054,2041,2058,2066,2125,2067,2027
2043,2047,2032,2054,2065,2110,2051,2025
2042,2042,2031,2050,2092,2064,2045,2024
2025,2030,2029,2052,2061,1988,2034,2018
2024,2020,2034,2048,2049,1967,2025,2007
2031,2023,2044,2059,2059,1996,2054,2012
2038,2034,2057,2077,2081,2028,2060,2003
2035,2028,2054,2074,2107,2050,2047,2012
2047,2034,2043,2077,2141,2076,2068,2014
2052,2038,2038,2072,2123,2084,2064,2014
2051,2036,2020,2063,2120,2084,2074,2030
2068,2039,2022,2069,2129,2049,2066,2052
2094,2054,2029,2062,2090,2011,2065,2049
2090,2056,2039,2034,1952,2006,2046,2039
2086,2057,2038,2037,1928,2038,2045,2028
2057,2043,2032,2053,1937,2068,2045,2017
2022,2027,2010,2036,1934,2084,2045,2029
2010,2016,1986,2019,1908,2080,2052,2057
2025,2020,1975,2021,1954,2067,2073,2092
2043,2032,1991,2034,1968,2076,2077,2098
2045,2036,2006,2075,2039,2102,2077,2100
2056,2056,2038,2098,2004,2124,2096,2089
2036,2049,2030,2062,1942,2117,2081,2090
2032,2033,2032,2033,1964,2081,2065,2112
2048,2034,2053,2023,2014,2051,2056,2103
2058,2053,2088,2071,2109,2078,2063,2085
2064,2077,2116,2120,2138,2092,2048,2069
2054,2078,2111,2113,2113,2089,2040,2076
2066,2086,2091,2097,2059,2053,2052,2093
2075,2087,2077,2086,2100,2029,2032,2075
2067,2069,2083,2092,2142,2015,2025,2063
2052,2071,2096,2101,2056,2025,2045,2048
2045,2064,2093,2086,1966,2021,2042,2034
2039,2039,2072,2029,1901,2005,2019,2023
2027,2027,2065,1998,1879,2011,2007,2023
2039,2034,2090,1999,1820,1988,2024,2035
2059,2058,2092,2011,1857,1960,2034,2049
2068,2062,2084,2039,1919,1983,2055,2045
2069,2055,2061,2060,2027,2029,2043,2028
2055,2035,2034,2065,2102,2049,2047,2021
2054,2012,2018,2059,2112,2057,2046,2028
2057,2003,2010,2050,2134,2074,2048,2039
2079,2031,2021,2041,2132,2090,2052,2038
2064,2047,2023,2040,2144,2100,2041,2030
2047,2039,2014,2027,2178,2105,2045,2024
2042,2032,2009,2017,2177,2094,2043,2006
2020,2029,2005,2016,2175,2067,2033,1999
2023,2040,2005,2008,2117,2018,2036,2012
2038,2055,2026,1995,1992,2001,2040,2025
2041,2045,2033,2008,1977,2003,2024,2027
2038,2040,2052,2045,2070,1997,2020,2047
2047,2059,2069,2077,2100,2000,2021,2079
2044,2046,2058,2063,2090,2003,2031,2084
2047,2034,2053,2056,2094,2015,2026,2070
2046,2042,2054,2040,2045,2029,2045,2065
2062,2039,2062,1999,1943,2018,2031,2082
2070,2038,2067,2001,1955,2021,2036,2096
2056,2046,2067,2008,1982,2025,2008,2092
2037,2046,2065,2013,1986,2022,2025,2076
2014,2052,2064,2019,1980,2023,2022,2086
2033,2053,2069,2025,1995,2030,2029,2081
2042,2062,2064,2025,2026,2020,2022,2081
2047,2052,2058,2032,2030,2027,2027,2073
2038,2046,2057,2032,2030,2034,2034,2066
2045,2038,2039,2038,2046,2040,2025,2056
2050,2022,2017,2042,2078,2055,2036,2050
2043,2010,2003,2056,2110,2077,2042,2043
2046,2008,1995,2047,2075,2096,2025,2029
2035,2010,1993,2028,1984,2086,2022,2013
2039,2014,1999,2020,1926,2069,2002,1992
2024,2019,2002,2024,1913,2039,1977,1996
2018,2038,2029,2045,1928,1997,1997,2018
2026,2047,2046,2069,2000,1996,2024,2020
2037,2040,2039,2073,2050,1994,2043,2029
2050,2024,2018,2056,2040,1998,2032,2023
2048,2027,2010,2031,2026,2009,2027,2011
2040,2019,2020,2017,2025,2009,2047,2011
2021,2022,2029,2016,2038,2022,2053,2020
2021,2038,2042,2028,2039,2031,2050,2041
2041,2050,2048,2052,2093,2048,2057,2065
2066,2052,2057,2067,2151,2047,2053,2059
2059,2043,2055,2054,2139,2041,2060,2048
2060,2050,2083,2058,2123,2059,2051,2037
2048,2063,2100,2066,2101,2065,2062,2048
2037,2057,2089,2056,2093,2080,2072,2055
2037,2054,2080,2051,2102,2110,2063,2061
2044,2057,2082,2056,2116,2126,2061,2076
2058,2068,2086,2062,2105,2111,2037,2068
2050,2062,2082,2048,2086,2095,2043,2077
2046,2054,2067,2041,2071,2083,2047,2084
2053,2054,2050,2035,2040,2064,2051,2089
2036,2029,2027,2015,2032,2055,2043,2081
2038,2029,2029,2010,2072,2077,2043,2081
2050,2043,2043,2025,2066,2075,2046,2080
2047,2052,2065,2036,2014,2045,2024,2076
2046,2060,2074,2023,1959,2026,2020,2055
2047,2060,2083,2025,1937,2002,2004,2051
2048,2060,2084,2053,2024,2009,2029,2054
2046,2056,2082,2087,2092,2030,2043,2045
2033,2042,2073,2077,2116,2046,2035,2033
2024,2041,2065,2078,2136,2065,2038,2020
2030,2043,2066,2078,2111,2061,2040,2030
2039,2041,2055,2068,2090,2065,2046,2035
2046,2042,2051,2063,2103,2057,2030,2031
2052,2046,2042,2055,2131,2054,2023,2027
2055,2046,2037,2037,2094,2057,2035,2022
2053,2038,2027,2014,1996,2058,2038,2025
2045,2032,2023,2000,2030,2051,2039,2020
2041,2034,2026,2002,2086,2049,2019,2016
2049,2028,2031,2017,2121,2051,2020,2022
2055,2026,2032,2013,2121,2071,2007,2014
2042,2020,2027,2015,2082,2076,2014,1996
2029,2013,2022,1999,1924,2069,2022,1998
2024,2016,2024,2017,1960,2085,2045,2024
2044,2023,2040,2049,2077,2069,2058,2043
2050,2031,2039,2073,2164,2042,2053,2033
2044,2042,2037,2076,2203,2041,2045,2032
2042,2038,2037,2080,2193,2051,2046,2050
2053,2047,2030,2077,2189,2062,2062,2066
2060,2042,2024,2077,2226,2067,2036,2073
2052,2033,2012,2072,2222,2047,2033,2070
2041,2013,2002,2063,2137,2023,2033,2065
2041,2020,2004,2041,2015,2009,2043,2078
2041,2029,2000,2006,1810,1973,2024,2073
2031,2017,2000,1983,1755,1966,2022,2064
2027,2024,2005,2005,1870,2008,2022,2068
2033,2050,2032,2038,1942,2048,2043,2088
2059,2061,2047,2066,1974,2100,2044,2093
2067,2066,2063,2062,1897,2158,2050,2078
2058,2049,2053,2041,1913,2183,2047,2066
2056,2044,2053,2032,1896,2136,2038,2057
2062,2033,2049,2030,1886,2000,2012,2042
2066,2027,2045,2035,1925,1931,2014,2035
2071,2020,2052,2046,2034,1976,2038,2033
2075,2025,2064,2063,2099,2021,2026,2021
2037,2026,2070,2065,2114,2050,2031,2015
2006,2008,2054,2022,2110,2088,2020,1985
1973,2003,2039,1981,2080,2104,2012,1993
2007,2032,2050,1986,2033,2111,2031,2018
2046,2055,2060,2019,2026,2128,2044,2030
2080,2067,2063,2029,2052,2134,2037,2041
2078,2048,2057,2047,2126,2085,2041,2028
2053,2030,2064,2069,2146,2084,2056,2017
2048,2031,2065,2065,2083,2112,2041,2016
2049,2040,2062,2047,2033,2126,2046,2021
2048,2050,2064,2053,2036,2129,2063,2038
2059,2059,2068,2044,2052,2089,2046,2029
2053,2042,2058,2031,2069,2064,2046,2021
2046,2043,2057,2031,2082,2062,2040,2007
2042,2039,2047,2016,2070,2050,2037,2021
2039,2033,2034,2016,2092,2026,2036,2032
2039,2031,2039,2036,2100,1994,2040,2047
2037,2044,2044,2041,2066,1994,2052,2058
2048,2060,2054,2033,2039,1992,2024,2070
2056,2068,2058,2034,2020,2000,2036,2074
2058,2068,2052,2032,2011,2015,2050,2084
2058,2070,2054,2039,1990,2012,2009,2075
2063,2062,2058,2028,1976,2004,1996,2070
2040,2046,2037,2031,2007,2009,2004,2068
2031,2042,2027,2044,2053,2020,2021,2067
2037,2048,2030,2052,2042,2025,2023,2063
2046,2040,2027,2050,2018,2032,2032,2065
2042,2037,2016,2039,2049,2046,2043,2063
2032,2019,2011,2023,2021,2052,2020,2040
2024,2015,2012,2015,1952,2039,2018,2026
2028,2023,2020,2009,1883,2043,2015,2027
2036,2036,2036,2017,1913,2065,2022,2031
2043,2045,2044,2026,1966,2067,2036,2042
2050,2047,2054,2047,2065,2058,2040,2051
2054,2049,2040,2065,2120,2062,2053,2056
2058,2040,2029,2060,2153,2040,2057,2046
2044,2032,2023,2060,2217,2068,2061,2034
2047,2039,2035,2089,2332,2110,2074,2030
2056,2051,2063,2132,2438,2131,2060,2013
2051,2049,2065,2106,2256,2086,2040,1985
2029,2031,2056,2043,1914,2020,2004,1978
2024,2041,2073,2024,1722,2011,2011,1994
2042,2053,2091,2036,1760,2024,2029,2007
2052,2045,2092,2053,1837,2009,2062,2030
2055,2046,2080,2072,1940,2022,2073,2045
2063,2043,2065,2090,1981,2041,2081,2053
2051,2045,2057,2076,1916,2052,2069,2039
2050,2045,2054,2024,1779,2056,2042,2014
2023,2041,2051,2019,1835,2026,2033,2026
2034,2039,2050,2040,1958,1996,2012,2044
2045,2039,2051,2042,2045,1973,2012,2052
2064,2045,2061,2066,2175,2007,2022,2059
2063,2040,2063,2082,2158,2039,2031,2060
2061,2033,2053,2068,2134,2049,2015,2063
2054,2018,2046,2048,2161,2031,2020,2066
2055,2001,2047,2044,2152,2003,2004,2063
2032,2004,2060,2049,2138,1995,2017,2066
2038,2014,2078,2056,2116,2019,2024,2064
2030,2031,2090,2062,2113,2053,2033,2049
2021,2036,2078,2056,2095,2044,2030,2053
2024,2016,2063,2043,2073,2029,2026,2067
2032,2007,2049,2034,2046,2024,2021,2060
2035,2027,2059,2045,2044,2017,2021,2038
2013,2037,2063,2054,2049,2018,2015,2039
2013,2037,2053,2045,2054,2027,2025,2040
2024,2027,2046,2043,2056,2037,2027,2035
2041,2032,2040,2037,2054,2041,2043,2032
2047,2047,2054,2042,2056,2041,2036,2027
2050,2055,2054,2040,2057,2047,2037,2014
2040,2054,2048,2040,2059,2059,2036,2009
2031,2046,2039,2033,2061,2063,2044,2012
2030,2041,2036,2033,2056,2074,2050,2018
2036,2031,2039,2040,2072,2072,2051,2015
2033,2010,2025,2035,2057,2061,2044,2008
2032,2002,2020,2031,2051,2057,2055,2004
2046,2021,2033,2046,2066,2073,2066,2013
2042,2024,2034,2051,2077,2079,2076,2025
2044,2026,2034,2049,2073,2076,2068,2021
2032,2029,2035,2046,2049,2062,2064,2031
2033,2032,2030,2049,2017,2060,2064,2040
2046,2038,2039,2048,1995,2048,2047,2037
2048,2026,2039,2044,1982,2048,2040,2020
2051,2014,2033,2055,1980,2069,2035,2031
2065,2012,2024,2048,1947,2072,2038,2036
2059,2012,2025,2057,1958,2069,2048,2029
2048,2033,2040,2063,1986,2064,2043,2044
2040,2037,2050,2055,1992,2030,2042,2054
2021,2030,2055,2082,2095,2006,2067,2053
2002,2031,2041,2115,2259,2068,2077,2051
2002,2026,2017,2139,2366,2125,2068,2057
2013,2007,1998,2125,2356,2148,2054,2072
2029,2022,2015,2102,2254,2146,2070,2073
2054,2052,2042,2064,2089,2104,2054,2057
2042,2046,2042,2024,1922,2019,2023,2056
2037,2047,2047,2033,1956,1978,2012,2063
2035,2047,2056,2047,1995,1982,2020,2058
2037,2042,2059,2026,1987,2015,2028,2055
2044,2050,2080,2038,2008,2054,2042,2048
2054,2068,2110,2052,2034,2075,2052,2055
2064,2078,2113,2035,2037,2097,2051,2049
2065,2075,2104,2020,2044,2129,2062,2037
2057,2072,2098,2008,2000,2142,2063,2019
2042,2070,2096,2014,2042,2139,2058,2006
2042,2070,2095,2023,2060,2092,2055,2006
2044,2059,2075,2028,2074,2004,2055,2009
2038,2049,2052,2030,2095,1974,2041,2012
2035,2032,2034,2012,2062,1971,2026,1995
2023,2020,2019,2003,2025,1987,2021,1986
2028,2026,2030,2020,2027,2011,2035,2005
2047,2031,2038,2037,2032,2015,2040,2004
2046,2037,2043,2044,2070,2042,2040,2006
2038,2042,2057,2059,2094,2061,2031,1999
2020,2047,2068,2062,2098,2063,2041,2000
2034,2038,2063,2059,2081,2057,2046,2021
2037,2028,2062,2055,2079,2055,2043,2027
2040,2035,2062,2058,2070,2054,2048,2029
2038,2042,2065,2060,2070,2042,2055,2033
2041,2048,2067,2063,2064,2054,2046,2040
2045,2050,2075,2066,2070,2064,2052,2050
2042,2048,2075,2069,2070,2069,2037,2051
2038,2042,2072,2075,2075,2064,2045,2059
2038,2046,2082,2078,2073,2062,2039,2057
2039,2050,2106,2100,2077,2068,2044,2056
2041,2053,2115,2101,2067,2051,2037,2052
2032,2050,2110,2102,2051,2029,2027,2058
2037,2059,2112,2099,2045,2030,2042,2060
2041,2056,2106,2101,2048,2037,2052,2052
2036,2049,2089,2095,2048,2046,2040,2044
2034,2056,2084,2093,2070,2061,2038,2044
2034,2049,2076,2091,2071,2056,2032,2042
2030,2048,2060,2081,2068,2059,2042,2032
2034,2047,2047,2072,2066,2062,2053,2025
2043,2049,2038,2059,2061,2058,2044,2024
2046,2050,2033,2048,2051,2051,2043,2027
2043,2047,2026,2035,2041,2057,2040,2020
2035,2033,2011,2019,2010,2044,2038,2017
2028,2030,1999,1990,1982,2022,2016,2007
2024,2022,1985,1979,1981,2016,2033,2004
2032,2029,1991,2010,2028,2043,2035,1996
2041,2044,2001,2028,2042,2041,2022,1997
2035,2027,1978,2020,2055,2039,2020,1991
2042,2032,1990,2042,2093,2054,2053,2007
2053,2057,2019,2080,2138,2040,2058,2021
2057,2061,2017,2087,2177,2030,2056,2029
2056,2055,2014,2085,2204,2056,2053,2015
2050,2043,2006,2066,2205,2069,2049,2013
2046,2045,2007,2060,2165,2055,2056,2022
2053,2053,2013,2025,1997,2029,2048,2037
2056,2056,2023,2034,2003,2043,2050,2040
2062,2059,2032,2049,2063,2039,2046,2051
2058,2053,2032,2041,2062,2033,2029,2045
2049,2043,2025,2023,2026,2018,2031,2049
2035,2029,2004,1999,1999,2010,2035,2052
2032,2013,1997,1997,2006,2004,2039,2051
2031,2005,2000,2005,2019,2008,2025,2044
2018,2003,2017,2028,2023,2028,2025,2039
2009,2012,2043,2038,2033,2058,2020,2052
2023,2020,2068,2047,2047,2097,2042,2073
2027,2040,2075,2059,2063,2118,2049,2086
2042,2062,2082,2064,2060,2110,2054,2085
2046,2062,2078,2075,2058,2087,2049,2082
2052,2060,2062,2072,2049,2067,2041,2076
2046,2042,2039,2066,2041,2066,2044,2071
2041,2033,2009,2056,2043,2073,2044,2053
2042,2030,2010,2067,2056,2074,2044,2043
2032,2024,2016,2066,2059,2051,2032,2018
2024,2026,2023,2067,2060,2044,2033,2007
2024,2016,2019,2058,2046,2033,2041,2014
2015,2017,2024,2043,2039,2029,2027,2010
2025,2040,2052,2049,2050,2038,2036,2024
2052,2060,2073,2044,2051,2041,2024,2024
2055,2056,2065,2041,2046,2041,2023,2012
2047,2045,2049,2025,2052,2038,2029,2001
2034,2029,2037,2024,2040,2024,2021,1997
2026,2021,2026,2019,2033,2019,2018,1995
2030,2016,2033,2033,2053,2038,2036,2007
2045,2041,2065,2045,2068,2045,2049,2009
2050,2047,2080,2060,2064,2052,2051,2013
2040,2049,2087,2063,2064,2045,2050,2019
2044,2044,2087,2068,2091,2057,2054,2030
2050,2054,2088,2073,2106,2067,2055,2031
2044,2049,2074,2064,2082,2070,2046,2030
2042,2047,2061,2055,2074,2082,2065,2046
2054,2055,2058,2059,2075,2089,2066,2065
2060,2057,2055,2049,2066,2104,2074,2081
2071,2057,2052,2045,2061,2091,2103,2090
2068,2043,2040,2047,2026,2028,2080,2089
2066,2042,2045,2043,2002,2019,2074,2078
2076,2057,2055,2052,1990,2059,2079,2063
2067,2055,2055,2055,1979,2094,2062,2058
2032,2037,2045,2047,2000,2097,2041,2059
2021,2028,2050,2045,1984,2112,2041,2058
2000,2030,2046,2048,1970,2123,2045,2072
2014,2036,2041,2050,1971,2118,2047,2074
2033,2053,2048,2068,2049,2175,2071,2071
2046,2056,2043,2073,2119,2186,2066,2065
2040,2052,2038,2055,2122,2105,2039,2044
2045,2042,2035,2030,2109,1959,2017,2033
2048,2039,2035,2027,2040,1947,2019,2029
2050,2035,2041,2035,2038,1988,2032,2024
2057,2049,2054,2030,2052,1996,2023,2011
2038,2049,2053,2039,2085,2004,1999,1998
2033,2033,2046,2048,2111,2017,2024,2011
2049,2026,2054,2056,2155,2047,2040,2021
2054,2032,2059,2065,2133,2075,2054,2010
2042,2053,2062,2055,2041,2055,2033,2005
2044,2060,2056,2017,1898,2011,2022,2000
2047,2058,2052,2010,1878,2015,2036,2002
2060,2061,2058,2015,1890,2024,2050,1996
2051,2053,2053,2024,1909,2046,2050,1975
2031,2039,2046,2029,1960,2070,2051,1979
2020,2028,2044,2054,2037,2099,2055,1996
2018,2039,2051,2063,2045,2066,2048,2021
2039,2057,2058,2063,2009,2040,2050,2047
2062,2064,2056,2055,2002,2037,2050,2056
2071,2062,2049,2055,2044,2057,2053,2043
2061,2061,2050,2079,2099,2079,2056,2036
2057,2061,2054,2090,2120,2062,2042,2028
2042,2052,2040,2083,2084,2027,2049,2034
2037,2045,2042,2067,2069,2011,2031,2047
2023,2039,2044,2076,2060,1997,2029,2053
2014,2044,2051,2084,2063,2008,2022,2063
2021,2043,2068,2104,2076,2018,2035,2068
2035,2044,2068,2102,2083,2028,2036,2064
2028,2033,2062,2088,2057,2046,2029,2069
2038,2037,2052,2091,2059,2078,2019,2062
2035,2042,2044,2078,2041,2089,2031,2048
2032,2043,2037,2070,2011,2078,2040,2053
2041,2060,2053,2080,2033,2057,2047,2068
2043,2062,2054,2092,2077,2072,2062,2060
2035,2051,2039,2083,2088,2064,2055,2049
2037,2050,2031,2068,2092,2074,2049,2045
2039,2054,2045,2070,2108,2078,2044,2029
2042,2050,2045,2075,2114,2069,2048,2022
2033,2048,2046,2048,2108,2033,2037,2011
2029,2047,2032,2022,2086,2009,2037,2004
2027,2041,2036,2003,2059,2007,2033,1999
2030,2050,2053,1992,2059,2013,2034,1997
2046,2060,2076,1981,2041,2029,2023,2001
2051,2060,2081,1983,2022,2028,2034,2007
2049,2058,2085,1991,1996,2011,2023,2011
2045,2066,2090,2018,1974,2016,2041,2019
2046,2070,2093,2047,1973,2035,2053,2018
2047,2058,2077,2050,2012,2037,2045,2013
2046,2047,2061,2055,2066,2051,2038,2021
2040,2042,2055,2064,2109,2055,2037,2025
2042,2036,2051,2066,2135,2042,2033,2018
2044,2041,2053,2063,2141,2037,2030,2027
2045,2040,2056,2058,2118,2030,2026,2034
2041,2040,2060,2049,2095,2031,2032,2030
2051,2043,2072,2050,2088,2045,2052,2037
2050,2049,2072,2042,2061,2050,2038,2050
2053,2040,2062,2041,2031,2043,2053,2064
2051,2047,2068,2065,2078,2050,2047,2062
2039,2038,2066,2057,2081,2043,2037,2050
2029,2037,2063,2056,2071,2037,2036,2050
2023,2023,2060,2054,2056,2035,2036,2058
2020,2008,2042,2047,2028,2013,2023,2061
2028,2012,2043,2048,1998,1998,2004,2063
2043,2038,2058,2054,1973,1999,1996,2054
2050,2043,2055,2048,1980,2004,2018,2050
2049,2046,2059,2047,2033,2040,2041,2054
2061,2061,2079,2068,2106,2056,2051,2062
2069,2063,2085,2065,2142,2061,2046,2052
2067,2061,2062,2051,2077,2074,2042,2055
2060,2057,2051,2040,2038,2094,2055,2036
2057,2060,2054,2042,2034,2103,2036,2020
2056,2060,2050,2038,2086,2109,2052,2003
2047,2054,2045,2043,2122,2093,2051,2007
2042,2047,2040,2039,2134,2076,2064,2014
2043,2052,2039,2047,2121,2107,2073,2009
2038,2054,2050,2042,2092,2151,2036,2000
2038,2055,2054,2038,2073,2147,2065,1993
2030,2054,2050,2031,2058,2094,2028,1987
2026,2046,2054,2027,2039,2021,2031,1993
2037,2051,2062,2045,2060,1965,2035,2011
2056,2058,2070,2058,2090,1975,2046,2022
2055,2043,2050,2046,2068,2002,2033,2020
2049,2034,2042,2039,2054,2035,2020,2017
2042,2031,2039,2038,2018,2024,2020,2016
2038,2031,2041,2026,2013,2023,2017,2008
2035,2028,2044,2047,2054,2049,2019,2015
2039,2033,2046,2068,2083,2057,2053,2031
2039,2033,2047,2062,2078,2060,2047,2038
2033,2040,2041,2051,2078,2068,2025,2041
2037,2046,2032,2051,2083,2075,2036,2059
2044,2041,2015,2039,2089,2071,2063,2068
2044,2023,1993,2022,2096,2041,2060,2067
2033,2009,1973,2010,2062,2003,2055,2055
2028,2002,1977,2001,2011,2004,2051,2063
2020,2006,1976,2003,2001,2010,2042,2064
2014,2005,1976,2005,2017,2035,2050,2078
2023,2028,1992,2022,2040,2056,2070,2077
2036,2044,2009,2036,2053,2069,2071,2082
2045,2050,2016,2038,2046,2045,2058,2073
2046,2060,2017,2031,2028,2033,2041,2065
2041,2053,2010,2029,2015,2024,2028,2047
2036,2049,2019,2021,2003,2015,2015,2039
2028,2041,2029,2023,2000,2011,2007,2025
2032,2033,2036,2023,2025,2016,2029,2032
2042,2047,2043,2039,2058,2025,2037,2033
2055,2049,2069,2059,2066,2039,2052,2031
2049,2060,2089,2077,2059,2045,2062,2024
2050,2065,2095,2084,2075,2057,2054,2022
2044,2060,2095,2088,2098,2061,2053,2020
2054,2064,2100,2091,2119,2068,2056,2020
2054,2061,2100,2095,2136,2067,2046,2024
2047,2048,2083,2090,2125,2074,2051,2019
2039,2046,2078,2089,2142,2074,2064,2023
2048,2053,2078,2088,2145,2076,2064,2026
2051,2046,2061,2050,2083,2054,2070,2032
2056,2044,2060,2024,2060,2055,2085,2036
2057,2045,2059,2025,2018,2057,2068,2039
2054,2045,2056,1985,1881,2005,2032,2036
2042,2053,2057,2005,1955,2003,2044,2045
2053,2051,2067,2042,2055,2015,2038,2039
2053,2048,2062,2043,2068,2028,2039,2045
2043,2048,2058,2035,2060,2043,2042,2042
2034,2048,2054,2039,2057,2049,2040,2047
2039,2056,2055,2041,2067,2062,2039,2048
2054,2061,2068,2060,2081,2072,2052,2070
2057,2075,2081,2072,2092,2088,2049,2079
2061,2073,2079,2068,2090,2084,2048,2081
2053,2066,2061,2059,2071,2061,2060,2078
2039,2049,2051,2054,2065,2050,2043,2071
2037,2047,2043,2050,2071,2041,2043,2068
2043,2056,2048,2042,2063,2040,2043,2068
2049,2054,2043,2051,2050,2042,2047,2060
2038,2048,2041,2052,2026,2029,2025,2064
2040,2042,2033,2053,2021,2020,2028,2053
2044,2033,2038,2063,2024,2030,2059,2043
2047,2033,2034,2046,2009,2030,2057,2034
2040,2027,2035,2044,2014,2041,2036,2029
2036,2028,2034,2049,2034,2043,2034,2017
2029,2030,2032,2044,2028,2025,2023,2015
2029,2028,2034,2041,2027,2028,2036,2021
2040,2029,2039,2042,2042,2034,2033,2011
2028,2025,2033,2029,2046,2044,2029,2005
2025,2023,2036,2043,2078,2057,2055,2005
2047,2036,2047,2066,2102,2074,2069,2014
2048,2041,2043,2065,2087,2060,2057,2009
2038,2027,2029,2037,1980,2057,2036,2008
2033,2022,2030,2013,1935,2059,2025,2005
2037,2042,2043,2014,1982,2062,2045,2008
2044,2050,2042,2029,2027,2073,2061,2024
2056,2055,2043,2044,2021,2064,2047,2030
2059,2046,2043,2058,2018,2034,2045,2032
2060,2049,2063,2066,2019,2029,2077,2035
2051,2047,2072,2068,2036,2046,2063,2036
2049,2043,2064,2067,2063,2050,2051,2042
2043,2038,2041,2068,2103,2061,2061,2054
2049,2029,2031,2068,2122,2069,2035,2057
2037,2022,2021,2072,2118,2081,2053,2059
2026,2020,2021,2066,2094,2082,2060,2051
2013,2034,2031,2056,2057,2080,2064,2062
2027,2035,2036,2050,1999,2052,2030,2073
2025,2035,2037,2037,1976,2032,2014,2072
2024,2030,2029,2037,1980,2017,2010,2074
2032,2037,2032,2048,2012,1994,2032,2087
2052,2051,2045,2058,2046,2010,2055,2084
2054,2046,2051,2052,2065,2028,2066,2080
2048,2043,2054,2037,2055,2043,2047,2065
2042,2047,2058,2032,2063,2052,2062,2059
2041,2051,2054,2030,2067,2059,2076,2053
2046,2045,2044,2025,2051,2050,2068,2049
2044,2040,2045,2017,2029,2044,2050,2040
2052,2039,2048,2007,2018,2037,2046,2032
2052,2042,2050,2009,2004,2032,2050,2035
2039,2039,2044,1995,1985,2037,2039,2028
2033,2044,2046,1994,1986,2053,2051,2026
2039,2044,2038,1988,1985,2062,2068,2029
2043,2044,2040,1998,2003,2061,2070,2025
2056,2064,2054,2024,2031,2050,2056,2032
2075,2075,2074,2041,2069,2012,2033,2038
2074,2069,2067,2041,2104,2004,2037,2049
2086,2052,2049,2032,2104,2038,2035,2056
2092,2056,2053,2044,2110,2072,2042,2052
2093,2057,2061,2053,2134,2068,2013,2038
2084,2048,2058,2056,2144,2056,2017,2038
2078,2040,2060,2051,2116,2045,2023,2041
2076,2047,2070,2050,2094,2033,2028,2025
2053,2051,2067,2049,2088,2033,2034,2025
2035,2058,2066,2054,2105,2034,2041,2040
2020,2060,2059,2062,2088,2042,2034,2052
2020,2061,2051,2070,2044,2056,2041,2053
2028,2052,2045,2061,2000,2061,2048,2047
2032,2048,2051,2073,2046,2081,2059,2063
2038,2056,2060,2075,2054,2075,2058,2073
2039,2049,2060,2066,2035,2063,2069,2078
2040,2044,2057,2059,2018,2053,2056,2080
2038,2046,2044,2037,1982,2036,2046,2075
2030,2028,2031,2039,2004,2041,2047,2069
2037,2026,2035,2046,2054,2044,2043,2074
2044,2043,2040,2051,2087,2035,2045,2070
2038,2039,2036,2049,2111,2039,2042,2062
2041,2042,2045,2056,2132,2048,2065,2065
2054,2052,2048,2059,2128,2033,2052,2072
2061,2050,2064,2070,2111,2026,2048,2061
2049,2044,2064,2074,2090,2026,2043,2045
2040,2046,2067,2079,2100,2046,2034,2034
2041,2043,2065,2074,2060,2049,2014,2035
2041,2037,2055,2054,1958,2029,2022,2033
2038,2034,2041,2053,1943,2033,2030,2031
2042,2034,2045,2070,2003,2053,2035,2016
2042,2037,2040,2081,2072,2062,2046,2020
2051,2028,2029,2090,2121,2068,2032,2021
2054,2043,2048,2088,2135,2056,2041,2020
2049,2029,2056,2056,2028,2026,2025,2006
2042,2028,2056,2032,1951,2039,2023,1989
2049,2038,2065,2039,1978,2069,2054,2001
2052,2045,2076,2049,2025,2086,2054,2018
2048,2047,2083,2068,2081,2094,2030,2026
2057,2047,2084,2057,2066,2096,2061,2024
2050,2040,2066,2018,2014,2089,2063,2023
2039,2035,2038,2001,1994,2086,2049,2016
2036,2035,2022,1992,1986,2069,2040,2017
2021,2034,2025,1994,1992,2042,2037,2036
2042,2048,2034,2016,2033,1988,2051,2080
2072,2069,2046,2042,2074,1993,2053,2080
2071,2062,2048,2047,2087,2014,2050,2076
2055,2044,2042,2042,2092,2045,2060,2067
2039,2038,2038,2034,2090,2077,2071,2061
2034,2042,2042,2025,2084,2090,2076,2073
2042,2048,2044,2023,2086,2092,2061,2070
2039,2039,2028,2014,2072,2080,2055,2079
2039,2043,2028,2011,2062,2079,2064,2085
2056,2056,2041,2026,2066,2081,2064,2090
2061,2056,2049,2038,2050,2076,2054,2086
2061,2053,2067,2044,2001,2063,2064,2075
2056,2050,2082,2047,1993,2057,2036,2053
2046,2049,2089,2052,2001,2057,2056,2055
2045,2049,2080,2044,2002,2056,2061,2051
2056,2052,2082,2051,1978,2058,2068,2053
2055,2055,2070,2052,2000,2053,2043,2052
2078,2053,2061,2058,2046,2054,2051,2061
2082,2043,2038,2050,2066,2057,2066,2057
2089,2039,2028,2054,2147,2071,2072,2043
2083,2039,2030,2051,2157,2082,2060,1998
2057,2018,2017,2036,2134,2086,2053,2001
2060,2010,2013,2041,2116,2081,2065,2013
2060,2009,2004,2024,2100,2053,2040,1990
2045,2014,2017,2040,2116,2048,2043,1984
2023,2036,2042,2067,2148,2030,2036,2003
2035,2068,2062,2087,2165,2061,2084,2020
2056,2068,2056,2083,2180,2093,2073,2018
2054,2056,2034,2061,2126,2090,2081,2014
2038,2049,2022,2056,2040,2063,2063,2015
2041,2045,2034,2049,1953,2036,2041,2017
2040,2038,2035,2027,1909,2019,2064,2022
2042,2042,2048,2029,1925,2019,2048,2038
2042,2052,2058,2031,1954,2035,2067,2033
2043,2055,2058,2020,2018,2049,2055,2043
2045,2045,2043,2017,2059,2052,2049,2053
2042,2046,2061,2037,2090,2075,2076,2066
2046,2065,2092,2048,2101,2080,2073,2074
2049,2080,2111,2042,2091,2098,2068,2086
2052,2081,2114,2041,2090,2122,2083,2091
2049,2068,2102,2034,2071,2136,2058,2081
2040,2059,2084,2029,2058,2106,2044,2082
2042,2064,2076,2033,2072,2042,2051,2081
2057,2064,2064,2029,2054,1951,2039,2075
2056,2062,2058,2021,2045,1953,2034,2072
2056,2060,2065,2024,2034,1975,2032,2069
2053,2059,2067,2013,1985,1975,2044,2064
2060,2058,2078,2032,2008,1998,2064,2062
2068,2068,2087,2054,2031,2026,2051,2052
2068,2071,2091,2057,2034,2037,2043,2047
2055,2064,2080,2048,2066,2045,2050,2033
2054,2058,2072,2052,2061,2087,2056,2032
2057,2051,2061,2045,2021,2114,2064,2020
2046,2046,2060,2041,1946,2118,2057,2002
2040,2043,2058,2032,1951,2110,2068,2014
2050,2047,2061,2031,2012,2071,2067,2012
2056,2052,2055,2028,2023,2008,2057,2011
2041,2038,2042,2017,1994,1987,2042,2010
2038,2032,2035,2013,1969,1990,2042,2018
2044,2042,2040,2012,1975,1998,2042,2017
2045,2041,2046,2014,1980,2007,2053,2013
2040,2038,2036,2006,1997,2020,2049,2008
2035,2035,2041,2010,2025,2034,2045,2009
2029,2047,2055,2030,2070,2047,2037,2024
2046,2058,2062,2039,2079,2065,2073,2045
2056,2064,2065,2051,2074,2072,2081,2047
2056,2056,2053,2053,2071,2076,2061,2058
2050,2056,2052,2045,2057,2074,2077,2048
2049,2057,2052,2037,2034,2073,2097,2052
2046,2053,2046,2029,2011,2085,2078,2056
2046,2047,2037,2026,1999,2070,2082,2070
2048,2049,2042,2022,2004,2044,2080,2069
2046,2046,2033,2017,2018,2022,2034,2066
2042,2039,2035,2022,2025,2030,2028,2066
2038,2029,2032,2033,2044,2037,2043,2073
2051,2040,2051,2042,2057,2034,2024,2089
2066,2049,2058,2034,2045,2045,2049,2078
2060,2045,2046,2030,2039,2040,2061,2068
2045,2038,2046,2024,2043,2049,2059,2068
2040,2039,2049,2023,2007,2042,2054,2074
2065,2038,2040,2017,1993,2044,2071,2067
2076,2038,2040,2016,1975,2051,2056,2058
2074,2038,2036,2015,1956,2047,2068,2053
2065,2056,2040,2019,1961,2050,2059,2039
2049,2055,2033,2013,1963,2038,2056,2022
2029,2032,2019,2003,1949,2022,2047,2010
2021,2012,2007,2002,1973,2052,2037,1999
2030,2012,2000,2011,1990,2092,2055,1996
2036,2013,2002,2016,2003,2091,2039,1990
2031,2017,1999,2021,2038,2076,2036,1987
2035,2022,2006,2022,2055,2030,2009,1990
2029,2025,2007,2039,2085,1985,2012,2001
2032,2027,2009,2053,2058,1980,2027,2010
2037,2033,2010,2050,2027,2013,2038,2006
2048,2044,2018,2068,2103,2085,2053,2002
2050,2040,2020,2069,2136,2105,2052,2009
2038,2031,2009,2047,2119,2104,2028,2002
2031,2023,2014,2043,2096,2084,2026,2013
2035,2028,2020,2045,2102,2044,2021,2030
2038,2038,2035,2061,2133,2026,2022,2042
2053,2055,2050,2067,2108,2032,2058,2048
2055,2049,2060,2061,2074,2039,2066,2056
2051,2050,2069,2055,2067,2054,2043,2054
2044,2047,2077,2050,2080,2061,2053,2064
2045,2053,2091,2050,2083,2058,2058,2075
2054,2056,2097,2048,2068,2053,2067,2079
2053,2056,2091,2050,2075,2054,2060,2083
2053,2043,2072,2049,2058,2053,2049,2076
2042,2046,2070,2043,2035,2058,2053,2074
2040,2057,2076,2063,2056,2069,2070,2079
2043,2060,2086,2061,2070,2075,2065,2071
2050,2066,2090,2067,2084,2079,2051,2065
2046,2066,2086,2077,2098,2076,2054,2060
2052,2058,2076,2073,2082,2059,2056,2052
2047,2046,2062,2063,2066,2062,2055,2045
2043,2037,2051,2054,2066,2075,2055,2044
2049,2035,2048,2059,2068,2087,2054,2045
2060,2038,2049,2049,2057,2076,2032,2042
2062,2031,2037,2040,2062,2077,2060,2044
2061,2042,2043,2039,2069,2074,2069,2046
2062,2059,2055,2046,2063,2066,2055,2040
2061,2064,2047,2044,2032,2036,2063,2027
2060,2054,2044,2049,2020,2030,2043,2022
2053,2056,2051,2062,2070,2021,2034,2005
2019,2047,2046,2058,2060,2005,2017,2011
2025,2055,2045,2046,2033,1994,2028,2022
2051,2069,2062,2039,2013,2000,2055,2021
2062,2063,2060,2025,2014,2005,2067,2025
2060,2062,2062,2031,2020,2006,2048,2032
2060,2058,2055,2032,2030,2028,2056,2040
2058,2062,2059,2043,2045,2046,2051,2041
2054,2062,2067,2056,2063,2067,2035,2034
2051,2062,2073,2061,2068,2072,2048,2037
2050,2054,2069,2066,2062,2071,2056,2045
2052,2052,2074,2067,2068,2076,2057,2048
2047,2058,2073,2071,2071,2072,2066,2065
2053,2055,2076,2072,2093,2068,2064,2071
2049,2051,2066,2072,2106,2069,2053,2081
2046,2054,2065,2063,2139,2069,2068,2087
2045,2058,2069,2057,2110,2047,2060,2091
2041,2047,2059,2039,2027,2021,2037,2092
2043,2041,2064,2045,1987,2023,2038,2099
2053,2042,2065,2049,1994,2034,2052,2093
2053,2046,2063,2048,2006,2036,2055,2077
2054,2043,2058,2047,2015,2041,2056,2064
2044,2042,2045,2041,2021,2040,2044,2070
2039,2046,2041,2043,2023,2044,2063,2062
2042,2051,2040,2043,2021,2048,2074,2054
2037,2051,2031,2039,2026,2048,2043,2048
2047,2047,2034,2044,2034,2055,2053,2047
2052,2053,2029,2039,2041,2061,2046,2045
2051,2053,2024,2047,2048,2067,2063,2044
2060,2053,2024,2052,2054,2067,2055,2037
2059,2051,2037,2062,2076,2075,2064,2035
2060,2048,2040,2064,2078,2064,2035,2020
2050,2044,2035,2060,2079,2054,2046,2016
2043,2046,2032,2058,2071,2037,2034,2016
2036,2032,2024,2054,2053,2017,2044,2009
2027,2023,2026,2052,2053,2023,2039,2012
2024,2018,2035,2063,2040,2046,2060,2025
2039,2026,2044,2075,2043,2058,2066,2022
2047,2030,2042,2067,2010,2048,2080,2026
2052,2024,2028,2056,1923,2034,2077,2034
2052,2024,2023,2065,1928,2036,2064,2023
2060,2027,2021,2064,1921,2034,2063,2025
2051,2030,2016,2061,1935,2032,2053,2033
2053,2032,2005,2056,1955,2032,2031,2035
2048,2017,1989,2034,1990,2017,2026,2037
2044,2006,1975,2027,2051,2019,2027,2043
2046,2009,1972,2034,2108,2036,2050,2066
2053,2016,1976,2034,2085,2042,2040,2073
2046,2022,1967,2022,2056,2042,2039,2067
2045,2025,1973,2023,2035,2039,2045,2080
2040,2026,1979,2013,2043,2036,2035,2072
2044,2008,1966,1998,2056,2031,2013,2070
2031,1992,1955,1977,2049,2034,2032,2078
2029,1994,1964,1964,2030,2035,2041,2074
2027,2010,1997,1963,2034,2034,2034,2081
2040,2045,2051,1985,2028,2045,2045,2088
2060,2073,2109,2009,2022,2045,2043,2087
2063,2089,2145,2021,2009,2046,2036,2080
2067,2089,2164,2029,2022,2056,2054,2065
2071,2096,2163,2037,2029,2058,2041,2070
2091,2080,2140,2039,2035,2052,2053,2070
2087,2070,2127,2041,2042,2049,2060,2054
2072,2063,2117,2045,2053,2049,2046,2031
2050,2061,2113,2040,2027,2030,2054,2029
2051,2054,2111,2047,2012,2027,2048,2045
2060,2062,2113,2050,2005,2037,2055,2042
2049,2070,2115,2056,1986,2059,2049,2015
2032,2056,2092,2027,1959,2100,2017,1998
2033,2044,2081,2037,1964,2117,2021,2000
2037,2063,2104,2057,1972,2129,2052,2001
2046,2083,2113,2055,1964,2091,2036,2016
2062,2090,2105,2066,2002,1998,2033,2034
2064,2077,2094,2082,2062,1942,2074,2049
2060,2069,2085,2087,2185,2016,2064,2051
2059,2065,2076,2090,2249,2098,2064,2041
2059,2058,2065,2088,2240,2126,2068,2045
2054,2060,2059,2076,2195,2129,2057,2048
2057,2065,2056,2059,2162,2102,2059,2059
2058,2066,2055,2046,2131,2041,2070,2080
2060,2070,2050,2051,2137,2024,2068,2095
2064,2063,2043,2045,2136,2044,2064,2093
2049,2062,2028,2033,2131,2065,2069,2092
2055,2062,2027,2012,2071,2066,2065,2092
2055,2055,2016,1979,1906,2022,2059,2087
2044,2041,1995,1950,1866,1964,2032,2076
2038,2033,1996,1968,1949,1964,2046,2080
2045,2045,2017,2000,2009,1981,2049,2098
2057,2056,2026,2018,2035,2001,2065,2093
2058,2053,2027,2018,2055,2012,2049,2075
2048,2045,2017,2013,2056,2022,2040,2066
2051,2046,2029,2032,2054,2030,2048,2068
2049,2049,2038,2035,2055,2018,2051,2062
2045,2049,2030,2026,2053,2001,2044,2053
2051,2044,2032,2023,2045,2000,2062,2046
2052,2049,2037,2019,2020,1988,2041,2029
2046,2039,2037,2006,2006,1973,2046,2028
2036,2040,2031,2004,1981,1960,2036,2024
2043,2036,2032,1997,1979,1944,2048,2025
2040,2040,2030,2017,2021,1941,2052,2026
2046,2044,2042,2047,2073,1978,2030,2017
2049,2042,2062,2055,2084,2011,2047,2012
2047,2043,2060,2054,2089,2058,2049,2006
2049,2042,2054,2050,2093,2066,2044,2029
2053,2057,2057,2052,2082,2083,2046,2029
2053,2044,2050,2047,2065,2092,2051,2028
2055,2042,2049,2043,2060,2094,2053,2036
2054,2047,2053,2050,2095,2120,2053,2027
2048,2049,2047,2047,2125,2130,2053,2032
2043,2045,2044,2047,2141,2128,2049,2038
2042,2042,2045,2047,2130,2120,2069,2040
2048,2045,2049,2054,2124,2106,2060,2041
2048,2043,2050,2055,2117,2088,2056,2046
2049,2041,2045,2046,2103,2077,2039,2062
2048,2040,2045,2042,2096,2078,2045,2073
2047,2045,2047,2033,2056,2074,2049,2067
2046,2042,2036,2014,1927,2059,2050,2076
2046,2039,2032,2026,1954,2047,2049,2084
2045,2031,2029,2037,1986,2015,2026,2074
2043,2031,2022,2037,1994,2009,2026,2081
2046,2035,2028,2038,2003,2024,2041,2074
2044,2032,2024,2037,2009,2037,2045,2074
2047,2037,2030,2035,2014,2044,2047,2067
2040,2034,2027,2027,2028,2051,2045,2060
2049,2038,2033,2046,2060,2060,2065,2053
2051,2046,2043,2045,2061,2056,2063,2055
2044,2039,2029,2039,2052,2050,2062,2047
2052,2033,2025,2037,2042,2041,2056,2043
2050,2027,2015,2026,2026,2027,2042,2043
