CH1,CH2,CH3,CH4,CH5,CH6,CH7,CH8
2047,2045,2034,2043,2054,2057,2061,2030
2053,2058,2039,2050,2058,2056,2060,2033
2054,2058,2041,2058,2057,2058,2070,2037
2056,2062,2044,2059,2060,2066,2050,2042
2055,2060,2031,2056,2058,2063,2064,2043
2045,2057,2018,2054,2052,2062,2053,2040
2046,2044,2011,2046,2052,2063,2046,2041
2037,2035,2003,2039,2047,2057,2028,2044
2031,2033,2004,2036,2049,2051,2036,2042
2036,2031,1994,2034,2037,2050,2049,2052
2032,2016,1989,2024,2037,2051,2053,2054
2026,2017,1996,2011,2029,2055,2059,2060
2026,2025,2005,2004,2014,2038,2047,2064
2026,2020,2016,1994,2005,2020,2046,2060
2028,2027,2044,2000,2019,2035,2031,2070
2036,2050,2074,2022,2044,2041,2060,2078
2044,2068,2093,2046,2067,2053,2060,2074
2056,2078,2111,2060,2065,2059,2058,2075
2061,2076,2127,2063,2064,2057,2052,2070
2057,2076,2137,2065,2060,2058,2055,2067
2055,2078,2133,2066,2050,2056,2064,2060
2052,2076,2117,2066,2053,2057,2034,2055
2055,2077,2100,2062,2054,2058,2029,2044
2054,2072,2094,2056,2055,2050,2048,2049
2053,2065,2079,2048,2054,2044,2046,2039
2055,2059,2066,2050,2052,2047,2046,2034
2056,2073,2077,2053,2052,2054,2056,2039
2059,2075,2084,2057,2056,2049,2057,2033
2054,2072,2079,2055,2055,2051,2051,2028
2046,2063,2075,2049,2049,2043,2047,2025
2036,2055,2068,2040,2045,2040,2041,2022
2039,2050,2067,2049,2055,2050,2040,2029
2050,2060,2073,2055,2054,2052,2047,2036
2058,2067,2072,2054,2056,2054,2063,2037
2053,2067,2071,2053,2062,2057,2060,2040
2055,2068,2062,2056,2070,2060,2056,2041
2056,2061,2054,2056,2069,2063,2045,2049
2051,2063,2056,2055,2067,2068,2052,2046
2048,2059,2058,2049,2062,2060,2058,2049
2046,2061,2048,2053,2066,2062,2058,2056
2047,2051,2043,2054,2064,2069,2069,2066
2049,2046,2039,2054,2064,2062,2070,2072
2046,2042,2037,2052,2064,2066,2050,2069
2034,2034,2023,2044,2058,2067,2049,2068
2033,2029,2021,2039,2054,2062,2031,2060
2035,2027,2023,2032,2022,2069,2011,2050
2025,2017,2016,2021,2007,2064,2025,2043
2022,2012,2028,2035,2011,2073,2043,2045
2037,2027,2044,2048,2018,2080,2052,2050
2034,2026,2058,2063,2028,2050,2063,2059
2056,2061,2078,2078,2038,2041,2063,2068
2063,2074,2079,2078,2037,2062,2060,2064
2056,2059,2066,2066,2030,2072,2056,2048
2050,2047,2061,2064,2026,2073,2043,2034
2040,2039,2061,2067,2027,2073,2044,2026
2034,2042,2061,2066,2029,2062,2056,2035
2039,2043,2063,2070,2044,2040,2067,2040
2050,2058,2056,2075,2065,2050,2075,2039
2044,2051,2038,2069,2074,2059,2071,2033
2051,2059,2035,2068,2066,2065,2073,2034
2055,2056,2023,2060,2064,2073,2067,2034
2047,2049,2027,2054,2071,2065,2038,2031
2044,2041,2023,2046,2073,2062,2043,2025
2041,2036,2018,2035,2063,2057,2046,2033
2044,2039,2027,2038,2059,2059,2058,2021
2041,2048,2039,2036,2043,2045,2034,2019
2046,2048,2051,2043,2033,2034,2023,2026
2038,2051,2070,2056,2038,2027,2022,2030
2046,2058,2071,2061,2029,2021,2048,2043
2047,2058,2068,2073,2045,2029,2046,2039
2044,2064,2067,2074,2049,2041,2060,2052
2047,2061,2070,2074,2053,2046,2048,2051
2042,2058,2064,2074,2051,2045,2061,2053
2040,2055,2057,2065,2052,2048,2056,2064
2047,2055,2059,2061,2050,2047,2054,2069
2054,2054,2060,2056,2037,2050,2053,2071
2058,2058,2052,2047,2029,2048,2050,2076
2057,2059,2043,2040,2033,2050,2056,2069
2051,2055,2038,2027,2019,2037,2052,2070
2052,2052,2027,2016,1999,2040,2042,2066
2048,2053,2034,2010,1976,2036,2054,2066
2050,2051,2024,1998,1956,2033,2013,2060
2049,2036,2013,1991,1948,2026,2038,2058
2046,2035,2012,1989,1952,2028,2051,2053
2061,2054,2026,2016,1993,2030,2038,2056
2066,2059,2048,2053,2059,2036,2063,2053
2072,2065,2055,2073,2088,2042,2055,2046
2058,2068,2049,2071,2099,2052,2047,2043
2053,2061,2052,2069,2095,2066,2032,2037
2046,2059,2054,2061,2093,2061,2050,2035
2047,2053,2052,2068,2091,2064,2056,2030
2050,2056,2050,2072,2071,2067,2046,2027
2049,2053,2044,2071,2068,2062,2046,2023
2047,2048,2039,2070,2060,2060,2044,2026
2041,2045,2033,2065,2057,2052,2038,2013
2039,2031,2032,2062,2068,2052,2026,2012
2038,2046,2030,2069,2075,2056,2043,2018
2033,2040,2029,2070,2075,2057,2040,2021
2038,2041,2028,2064,2075,2060,2042,2024
2041,2042,2020,2055,2069,2060,2052,2031
2044,2036,2019,2055,2074,2069,2053,2031
2046,2042,2027,2064,2086,2063,2051,2046
2056,2040,2025,2059,2083,2063,2047,2049
2055,2035,2020,2053,2081,2063,2052,2048
2052,2036,2016,2044,2059,2058,2054,2052
2052,2031,2009,2034,2018,2046,2049,2046
2044,2025,2011,2036,2016,2043,2057,2054
2044,2024,2019,2038,2050,2044,2046,2059
2044,2033,2017,2051,2052,2049,2040,2069
2055,2039,2033,2051,2056,2054,2046,2069
2052,2045,2042,2043,2051,2046,2027,2070
2037,2032,2031,2044,2040,2049,2026,2069
2033,2022,2033,2040,2032,2042,2018,2067
2036,2029,2040,2028,2018,2038,2018,2057
2029,2033,2040,2012,2020,2032,2018,2054
2034,2040,2043,2009,2020,2027,2018,2049
2039,2049,2044,2020,2007,2019,2023,2046
2045,2050,2050,2026,1993,2001,2013,2050
2052,2054,2055,2026,1999,1986,2018,2046
2049,2046,2046,2015,1998,2003,2021,2026
2039,2038,2042,2021,2019,2027,2027,2025
2047,2045,2055,2046,2043,2050,2049,2024
2048,2063,2078,2062,2069,2058,2043,2029
2054,2073,2091,2073,2073,2063,2051,2037
2052,2066,2091,2074,2066,2059,2033,2036
2052,2064,2082,2067,2051,2040,2030,2033
2050,2061,2079,2061,2050,2046,2029,2025
2048,2052,2063,2051,2038,2047,2025,2018
2047,2044,2044,2044,2032,2063,2031,2013
2048,2053,2043,2053,2044,2072,2024,2022
2047,2052,2037,2045,2055,2089,2026,2030
2052,2046,2027,2047,2059,2099,2050,2036
2057,2040,2006,2040,2061,2103,2055,2040
2053,2034,1995,2035,2070,2095,2041,2036
2049,2028,1981,2030,2071,2088,2043,2039
2041,2023,1970,2028,2075,2071,2037,2049
2043,2023,1965,2037,2083,2027,2024,2049
2046,2022,1979,2054,2093,2017,2029,2055
2052,2029,2002,2062,2086,2032,2043,2059
2047,2031,2009,2057,2070,2041,2025,2060
2043,2029,2008,2054,2054,2046,2022,2060
2036,2022,2000,2050,2048,2042,2034,2066
2026,2019,2010,2056,2035,2043,2031,2070
2024,2021,2019,2053,2020,2030,2021,2054
2024,2023,2041,2051,2008,2023,2020,2054
2032,2042,2058,2056,2003,2016,2020,2057
2043,2055,2082,2061,2004,2021,2035,2057
2048,2068,2130,2071,2016,2026,2034,2057
2049,2078,2164,2080,2029,2039,2037,2053
2057,2082,2160,2078,2038,2044,2031,2052
2051,2078,2151,2057,2021,2038,2035,2044
2046,2068,2127,2042,2022,2036,2022,2033
2038,2060,2102,2020,2032,2028,2025,2036
2036,2057,2083,2011,2052,2032,2033,2045
2045,2060,2069,2010,2070,2041,2046,2043
2042,2061,2074,2028,2095,2050,2041,2041
2045,2068,2079,2050,2100,2057,2036,2040
2056,2070,2080,2052,2091,2064,2044,2038
2053,2068,2073,2051,2089,2069,2045,2035
2054,2065,2074,2051,2077,2072,2039,2028
2044,2053,2064,2054,2075,2064,2028,2028
2046,2052,2066,2052,2083,2072,2025,2041
2051,2060,2064,2054,2087,2068,2028,2043
2053,2054,2073,2051,2069,2057,2018,2039
2048,2054,2067,2049,2064,2049,2010,2040
2047,2053,2063,2052,2059,2049,2032,2047
2042,2055,2070,2050,2051,2049,2043,2054
2052,2057,2068,2049,2048,2045,2050,2052
2048,2044,2062,2046,2049,2046,2049,2062
2040,2044,2061,2051,2051,2046,2052,2065
2047,2047,2066,2053,2056,2046,2044,2076
2051,2047,2061,2053,2057,2045,2027,2074
2048,2039,2057,2060,2053,2038,2041,2070
2049,2042,2059,2064,2049,2037,2041,2072
2053,2039,2069,2073,2039,2048,2039,2072
2046,2034,2068,2068,2049,2050,2021,2067
2037,2031,2062,2062,2034,2028,2026,2067
2031,2025,2047,2055,2027,2033,2026,2072
2036,2037,2053,2061,2035,2057,2029,2074
2041,2041,2054,2069,2064,2064,2044,2068
2040,2043,2046,2070,2075,2066,2054,2062
2045,2037,2055,2066,2064,2070,2047,2057
2035,2039,2062,2070,2063,2068,2042,2060
2050,2045,2047,2065,2060,2060,2044,2054
2059,2047,2045,2063,2054,2062,2036,2047
2055,2038,2043,2063,2041,2056,2046,2042
2046,2039,2042,2056,2046,2056,2040,2036
2037,2037,2044,2059,2037,2052,2044,2026
2029,2034,2022,2051,2025,2052,2039,2024
2038,2028,2011,2041,2026,2046,2042,2025
2045,2034,2016,2045,2028,2050,2038,2030
2045,2034,2026,2054,2037,2065,2035,2027
2043,2036,2015,2055,2028,2075,2031,2021
2034,2015,2009,2055,2036,2075,2041,2018
2029,2025,2008,2055,2039,2080,2038,2025
2046,2037,2019,2058,2047,2079,2042,2036
2048,2045,2017,2053,2046,2074,2031,2043
2046,2041,2012,2031,2049,2061,2040,2034
2036,2028,2006,2025,2054,2058,2048,2031
2037,2026,2013,2018,2069,2048,2063,2026
2037,2035,2026,2027,2078,2043,2057,2041
2042,2038,2049,2030,2080,2042,2051,2049
2046,2045,2060,2035,2075,2025,2060,2060
2048,2045,2073,2032,2070,2017,2054,2066
2044,2049,2084,2036,2066,2012,2039,2072
2048,2047,2089,2038,2072,2023,2048,2084
2055,2060,2091,2048,2073,2030,2040,2080
2050,2061,2087,2049,2057,2044,2020,2082
2045,2054,2078,2036,2030,2056,2029,2072
2037,2032,2055,2029,1997,2040,2020,2066
2030,2022,2039,2021,1980,2050,2020,2064
2029,2033,2040,2017,1972,2055,2025,2059
2036,2038,2043,2011,1974,2044,2034,2061
2039,2050,2046,2030,2011,2044,2052,2060
2049,2055,2061,2049,2072,2048,2073,2070
2058,2062,2063,2068,2101,2028,2078,2072
2059,2061,2060,2072,2105,2028,2068,2069
2057,2058,2063,2066,2101,2047,2069,2057
2056,2062,2068,2070,2085,2053,2069,2054
2053,2058,2061,2059,2072,2049,2065,2052
2054,2056,2062,2055,2066,2046,2072,2048
2060,2055,2055,2056,2064,2043,2064,2042
2054,2052,2058,2056,2066,2040,2037,2038
2058,2050,2053,2054,2070,2039,2048,2035
2050,2052,2062,2052,2064,2036,2046,2027
2046,2056,2063,2052,2063,2037,2048,2020
2037,2045,2061,2049,2059,2038,2053,2026
2036,2047,2063,2046,2066,2043,2047,2036
2046,2054,2065,2053,2072,2046,2061,2032
2047,2053,2060,2053,2064,2053,2059,2035
2050,2050,2054,2055,2065,2051,2064,2036
2047,2053,2050,2051,2061,2053,2065,2040
2047,2046,2042,2049,2054,2040,2058,2042
2043,2051,2040,2053,2039,2039,2056,2039
2032,2047,2042,2060,2044,2041,2049,2046
2039,2047,2045,2069,2083,2053,2064,2053
2047,2048,2053,2082,2132,2068,2049,2061
2044,2047,2055,2090,2146,2068,2081,2060
2042,2043,2047,2086,2155,2072,2081,2074
2037,2034,2043,2083,2154,2065,2074,2067
2034,2033,2039,2080,2150,2067,2066,2075
2040,2040,2043,2081,2148,2071,2066,2075
2044,2051,2042,2076,2136,2060,2035,2067
2038,2040,2043,2080,2127,2066,2028,2068
2036,2048,2052,2076,2098,2074,2045,2072
2045,2055,2053,2073,2033,2071,2035,2069
2043,2045,2048,2056,1946,2056,2048,2058
2033,2042,2052,2050,1955,2050,2049,2055
2035,2045,2057,2045,1969,2045,2047,2058
2031,2039,2052,2030,1964,2016,2051,2053
2030,2036,2046,2028,1980,1993,2036,2041
2030,2041,2035,2013,1996,2007,2038,2040
2032,2045,2026,2007,2011,2024,2047,2037
2045,2052,2030,2020,2021,2027,2051,2036
2053,2062,2054,2027,2033,2030,2060,2040
2054,2068,2069,2037,2034,2035,2059,2039
2053,2068,2078,2050,2035,2037,2047,2036
2055,2068,2069,2045,2033,2033,2052,2036
2055,2064,2065,2048,2027,2033,2052,2038
2049,2058,2060,2045,2030,2032,2047,2035
2046,2056,2057,2045,2032,2036,2048,2034
2051,2064,2070,2052,2042,2046,2059,2039
2052,2063,2066,2046,2034,2044,2054,2044
2048,2054,2059,2041,2047,2045,2058,2044
2049,2058,2069,2048,2054,2041,2058,2041
2051,2062,2080,2055,2058,2037,2040,2042
2042,2060,2064,2052,2054,2036,2037,2054
2046,2053,2059,2051,2055,2036,2036,2056
2039,2059,2060,2053,2059,2044,2048,2056
2038,2053,2057,2045,2057,2039,2038,2064
2040,2052,2056,2050,2068,2041,2034,2067
2039,2054,2056,2054,2063,2041,2025,2069
2043,2053,2058,2051,2051,2035,2017,2073
2032,2048,2051,2046,2026,2024,2019,2081
2032,2047,2050,2045,2007,2023,2043,2079
2035,2051,2063,2048,2000,2018,2042,2075
2035,2039,2041,2032,1996,2011,2038,2063
2023,2039,2031,2028,2010,2021,2031,2071
2031,2045,2045,2042,2043,2044,2049,2076
2045,2056,2050,2053,2066,2052,2069,2076
2051,2054,2048,2059,2088,2068,2070,2069
2043,2046,2049,2058,2093,2076,2060,2069
2034,2050,2045,2058,2076,2064,2066,2062
2042,2050,2039,2051,2064,2061,2073,2060
2049,2050,2030,2041,2058,2066,2078,2060
2053,2044,2021,2045,2058,2073,2050,2050
2048,2037,2012,2052,2058,2065,2071,2043
2046,2027,2008,2059,2060,2068,2073,2032
2037,2032,2008,2065,2058,2069,2076,2027
2042,2035,2007,2067,2063,2071,2078,2034
2042,2040,2005,2075,2062,2075,2073,2035
2042,2035,2001,2066,2049,2065,2059,2030
2050,2037,1996,2053,2032,2052,2048,2019
2040,2035,1998,2053,2039,2050,2042,2014
2039,2040,2005,2057,2058,2070,2042,2024
2042,2052,2005,2060,2054,2060,2047,2027
2046,2046,2000,2060,2059,2056,2039,2024
2046,2044,1999,2049,2043,2046,2020,2029
2040,2035,1997,2038,2029,2029,2017,2023
2033,2024,2005,2023,2019,2015,2029,2022
2027,2024,2009,2018,2012,2005,2024,2034
2022,2022,2020,1996,1992,2004,2020,2040
2014,2022,2033,1991,1993,2016,2023,2051
2023,2045,2069,2005,2006,2022,2044,2067
2037,2063,2112,2021,2032,2032,2046,2070
2041,2079,2128,2046,2062,2044,2037,2075
2054,2085,2149,2067,2076,2050,2056,2076
2059,2086,2148,2069,2062,2056,2066,2082
2052,2074,2128,2055,2053,2059,2047,2077
2044,2056,2099,2047,2049,2049,2056,2069
2039,2044,2085,2044,2052,2053,2044,2066
2042,2047,2082,2043,2062,2058,2058,2066
2040,2051,2077,2049,2059,2067,2054,2070
2041,2057,2076,2050,2061,2070,2056,2073
2052,2055,2073,2049,2062,2067,2065,2076
2054,2056,2063,2044,2055,2066,2044,2071
2050,2047,2059,2037,2054,2071,2046,2058
2055,2052,2058,2046,2054,2077,2055,2054
2061,2056,2061,2055,2057,2087,2065,2058
2062,2058,2063,2055,2054,2082,2083,2053
2055,2051,2064,2060,2041,2059,2056,2041
2051,2051,2073,2060,2042,2045,2055,2024
2045,2055,2072,2059,2043,2032,2026,2012
2038,2051,2071,2055,2039,2034,2023,2015
2033,2049,2069,2057,2034,2025,2031,2020
2034,2046,2062,2054,2038,2020,2052,2010
2026,2035,2060,2049,2033,2029,2038,2019
2038,2043,2051,2053,2037,2020,2044,2019
2042,2057,2055,2058,2049,2028,2044,2027
2042,2050,2054,2055,2057,2029,2041,2029
2041,2041,2042,2051,2060,2032,2020,2030
2038,2038,2038,2040,2066,2033,2022,2028
2036,2035,2041,2044,2080,2040,2034,2040
2048,2042,2051,2053,2084,2052,2034,2042
2051,2043,2042,2044,2074,2052,2052,2047
2045,2034,2037,2042,2071,2051,2072,2051
2042,2032,2036,2037,2067,2049,2057,2061
2035,2030,2028,2037,2067,2044,2071,2062
2041,2032,2037,2044,2075,2044,2056,2065
2040,2030,2045,2053,2067,2043,2051,2065
2041,2029,2047,2053,2059,2032,2048,2057
2036,2027,2042,2051,2055,2036,2045,2058
2031,2022,2050,2048,2057,2031,2026,2051
2027,2010,2039,2047,2059,2031,2047,2062
2025,2015,2049,2053,2070,2047,2050,2060
2033,2032,2056,2057,2077,2049,2058,2056
2041,2036,2050,2056,2071,2054,2064,2059
2034,2034,2047,2049,2065,2042,2065,2048
2038,2037,2049,2054,2064,2040,2046,2051
2043,2051,2054,2054,2073,2048,2059,2050
2052,2055,2059,2058,2068,2048,2049,2042
2050,2055,2069,2058,2061,2048,2048,2044
2050,2064,2066,2047,2030,2056,2046,2044
2047,2070,2056,2043,1994,2050,2064,2038
2056,2063,2047,2030,2009,2047,2060,2034
2061,2064,2041,2026,2037,2047,2062,2031
2052,2057,2028,2020,2043,2044,2047,2026
2053,2059,2032,2029,2045,2048,2061,2031
2053,2057,2036,2033,2041,2052,2065,2032
2059,2047,2032,2019,2034,2044,2024,2024
2046,2038,2022,2012,2028,2029,2016,2020
2046,2037,2024,2012,2035,2033,2032,2033
2054,2042,2030,2018,2050,2039,2020,2034
2050,2048,2026,2020,2047,2051,2043,2034
2054,2056,2029,2022,2059,2060,2053,2046
2058,2064,2031,2025,2068,2071,2058,2033
2057,2059,2027,2024,2064,2065,2062,2036
2055,2050,2021,2022,2053,2053,2064,2033
2050,2049,2026,2023,2045,2046,2049,2043
2046,2041,2022,2031,2045,2039,2058,2054
2049,2044,2028,2038,2044,2038,2061,2060
2051,2047,2042,2041,2038,2035,2063,2065
2052,2048,2038,2038,2029,2035,2047,2066
2058,2048,2029,2029,2019,2046,2050,2068
2049,2041,2032,2034,2007,2068,2052,2065
2036,2035,2032,2043,2019,2076,2059,2068
2039,2029,2041,2048,2031,2074,2037,2069
2032,2028,2032,2051,2038,2042,2025,2069
2044,2042,2048,2063,2052,2022,2071,2074
2047,2045,2049,2071,2068,2029,2047,2079
2056,2051,2051,2064,2059,2043,2040,2073
2059,2050,2043,2067,2058,2050,2059,2065
2063,2050,2046,2065,2051,2045,2059,2058
2054,2050,2043,2058,2044,2039,2048,2051
2060,2041,2038,2059,2051,2041,2040,2043
2053,2047,2049,2064,2058,2048,2035,2032
2054,2046,2052,2064,2075,2049,2027,2030
2054,2044,2048,2059,2084,2053,2025,2027
2049,2039,2054,2048,2101,2052,2046,2024
2037,2039,2049,2035,2097,2055,2042,2031
2042,2041,2048,2031,2089,2049,2036,2031
2044,2040,2039,2020,2079,2046,2033,2038
2045,2037,2030,2025,2075,2050,2040,2033
2045,2032,2024,2028,2064,2051,2029,2026
2044,2044,2035,2035,2063,2064,2027,2031
2051,2051,2056,2043,2056,2060,2056,2034
2050,2049,2048,2030,2018,2047,2046,2040
2041,2042,2035,2016,2020,2041,2053,2040
2045,2040,2038,2013,2018,2033,2044,2040
2042,2041,2063,2018,2031,2024,2037,2042
2040,2048,2080,2029,2046,2029,2036,2052
2044,2056,2089,2039,2064,2042,2027,2050
2051,2051,2084,2040,2075,2046,2039,2052
2058,2051,2074,2044,2068,2049,2032,2051
2051,2050,2068,2036,2066,2050,2035,2052
2039,2047,2064,2037,2064,2046,2053,2062
2036,2042,2057,2044,2061,2043,2049,2070
2034,2040,2054,2033,2036,2043,2024,2066
2038,2043,2050,2038,2069,2050,2034,2067
2042,2043,2056,2042,2090,2054,2045,2074
2042,2041,2059,2047,2095,2056,2059,2080
2049,2043,2063,2047,2096,2065,2047,2074
2055,2045,2064,2053,2081,2061,2049,2072
2052,2040,2053,2050,2063,2062,2059,2069
2047,2035,2048,2054,2051,2061,2051,2054
2051,2040,2051,2053,2062,2060,2045,2055
2058,2040,2057,2056,2058,2051,2046,2040
2061,2037,2055,2051,2029,2038,2031,2029
2049,2039,2052,2034,2028,2025,2023,2028
2042,2040,2051,2042,2060,2036,2023,2028
2049,2038,2052,2053,2081,2054,2036,2036
2045,2043,2046,2057,2068,2052,2039,2033
2050,2048,2052,2053,2065,2047,2038,2030
2058,2048,2036,2037,2049,2039,2044,2031
2049,2036,2037,2025,2038,2043,2046,2020
2043,2031,2039,2022,2020,2051,2021,2007
2028,2023,2044,2018,1985,2035,2018,1999
2026,2022,2032,2004,1967,2023,2018,2008
2031,2024,2031,2009,1969,2024,2043,2014
2033,2019,2021,2007,1979,2010,2031,2025
2038,2016,2018,2024,2022,2029,2053,2037
2050,2027,2034,2056,2083,2061,2072,2045
2060,2043,2058,2067,2115,2080,2092,2052
2057,2049,2056,2070,2137,2105,2078,2041
2043,2050,2048,2065,2132,2108,2069,2045
2041,2038,2045,2056,2118,2061,2068,2057
2048,2043,2046,2050,2105,2050,2064,2059
2049,2048,2048,2058,2100,2063,2067,2061
2052,2052,2043,2050,2096,2066,2051,2068
2052,2052,2041,2038,2086,2070,2069,2078
2058,2049,2031,2030,2088,2071,2047,2081
2051,2049,2034,2032,2092,2069,2049,2081
2049,2056,2048,2039,2095,2061,2063,2077
2045,2048,2051,2037,2068,2050,2045,2078
2047,2044,2044,2023,2040,2044,2045,2080
2050,2046,2044,2022,2037,2035,2035,2068
2047,2045,2044,2027,2041,2042,2026,2065
2048,2052,2055,2030,2042,2043,2039,2067
2046,2058,2066,2035,2047,2051,2036,2065
2048,2051,2068,2031,2046,2044,2047,2048
2037,2044,2060,2024,2041,2038,2042,2042
2045,2035,2053,2024,2051,2037,2052,2036
2048,2038,2055,2037,2059,2041,2050,2034
2050,2046,2067,2042,2057,2043,2051,2035
2051,2048,2060,2041,2058,2047,2057,2031
2046,2045,2057,2044,2053,2043,2049,2039
2040,2050,2058,2042,2057,2044,2047,2041
2044,2049,2065,2044,2057,2043,2049,2041
2050,2050,2058,2047,2056,2047,2059,2032
2051,2051,2054,2046,2055,2043,2044,2030
2041,2041,2050,2045,2052,2045,2060,2034
2047,2051,2056,2049,2058,2051,2061,2038
2052,2050,2063,2049,2060,2050,2056,2039
2056,2052,2054,2052,2064,2054,2032,2041
2052,2050,2052,2054,2073,2051,2041,2049
2060,2047,2054,2049,2071,2052,2054,2053
2054,2046,2049,2046,2070,2051,2060,2050
2051,2045,2047,2039,2068,2047,2057,2050
2047,2044,2056,2043,2068,2049,2059,2052
2042,2040,2051,2044,2071,2053,2057,2056
2047,2042,2048,2040,2067,2051,2058,2058
2047,2044,2050,2034,2064,2056,2060,2063
2045,2042,2050,2035,2062,2053,2060,2069
2045,2037,2050,2030,2055,2051,2060,2074
2046,2037,2045,2024,2051,2052,2054,2072
2036,2032,2042,2021,2045,2041,2028,2078
2032,2020,2034,2016,2037,2035,2039,2072
2029,2021,2039,2032,2049,2044,2047,2071
2044,2052,2065,2060,2060,2056,2048,2070
2047,2050,2067,2065,2067,2065,2032,2070
2046,2042,2064,2066,2063,2075,2028,2058
2040,2044,2061,2058,2062,2081,2042,2050
2032,2037,2052,2058,2075,2088,2063,2048
2034,2042,2058,2063,2067,2089,2064,2041
2040,2045,2056,2058,2070,2081,2062,2038
2043,2044,2046,2062,2069,2076,2066,2041
2050,2040,2041,2055,2062,2068,2054,2041
2062,2046,2038,2051,2053,2057,2057,2047
2068,2050,2031,2046,2048,2036,2046,2035
2059,2046,2026,2037,2051,2022,2036,2024
2051,2044,2030,2037,2045,2011,2046,2024
2046,2046,2033,2038,2086,2015,2053,2011
2041,2028,2018,2031,2104,2006,2052,2004
2032,2014,2011,2018,2098,2011,2034,2000
2033,2026,2011,2018,2106,2025,2042,2021
2034,2033,2013,2020,2113,2037,2051,2032
2038,2038,2023,2032,2108,2050,2023,2031
2044,2044,2027,2037,2098,2052,2038,2029
2041,2051,2036,2037,2100,2053,2040,2037
2040,2040,2031,2031,2092,2050,2036,2045
2035,2026,2026,2026,2054,2045,2046,2054
2032,2022,2034,2011,1955,2039,2043,2048
2035,2028,2051,2018,1971,2042,2053,2059
2049,2044,2072,2032,2023,2055,2050,2068
2043,2051,2088,2039,2046,2062,2082,2073
2046,2050,2085,2042,2054,2056,2067,2076
2044,2052,2081,2044,2048,2054,2069,2074
2041,2050,2072,2049,2061,2055,2066,2077
2039,2042,2057,2037,2052,2052,2062,2070
2032,2034,2051,2034,2057,2055,2058,2073
2034,2036,2050,2042,2052,2052,2043,2069
2040,2040,2047,2039,2046,2052,2059,2068
2047,2041,2046,2035,2046,2049,2034,2053
2050,2039,2045,2036,2051,2051,2045,2052
2046,2045,2044,2039,2049,2041,2039,2046
2045,2041,2032,2037,2040,2026,2031,2042
2042,2038,2033,2033,2034,2021,2031,2031
2042,2042,2038,2031,2039,2019,2021,2029
2043,2041,2042,2032,2039,2034,2018,2027
2046,2050,2048,2039,2048,2043,2050,2040
2053,2060,2050,2051,2047,2050,2052,2039
2056,2062,2062,2051,2043,2056,2046,2031
2055,2060,2067,2052,2044,2056,2056,2031
2059,2057,2068,2054,2040,2059,2064,2032
2065,2056,2062,2058,2032,2048,2052,2030
2046,2040,2053,2049,2025,2039,2049,2026
2042,2034,2048,2052,2036,2053,2045,2031
2054,2051,2058,2061,2039,2054,2044,2028
2054,2056,2062,2074,2054,2064,2040,2027
2050,2053,2056,2084,2059,2065,2031,2031
2051,2048,2059,2080,2057,2061,2050,2030
2054,2043,2065,2084,2046,2056,2063,2031
2044,2052,2058,2079,2041,2049,2052,2040
2037,2047,2042,2072,2031,2044,2052,2042
2044,2041,2029,2058,2042,2043,2042,2054
2045,2039,2026,2046,2050,2064,2050,2059
2043,2039,2012,2042,2049,2076,2049,2058
2035,2027,2001,2023,2032,2072,2049,2060
2027,2025,1990,2020,2019,2063,2059,2064
2033,2026,1993,2023,2014,2039,2051,2074
2040,2029,2007,2033,2021,2001,2044,2066
2036,2020,2009,2031,2023,2017,2047,2065
2027,2014,2021,2024,2037,2050,2044,2066
2032,2023,2028,2036,2062,2051,2039,2065
2032,2038,2050,2042,2080,2057,2037,2065
2042,2048,2072,2052,2096,2072,2025,2059
2049,2061,2078,2054,2087,2050,2025,2055
2044,2055,2059,2049,2075,2035,2023,2048
2051,2056,2060,2061,2074,2053,2034,2049
2049,2055,2061,2058,2087,2059,2039,2049
2043,2047,2063,2063,2086,2059,2045,2034
2039,2056,2063,2065,2091,2062,2055,2031
2037,2059,2063,2065,2085,2058,2043,2030
2047,2060,2058,2051,2086,2051,2033,2033
2041,2053,2048,2034,2050,2045,2054,2030
2042,2056,2048,2018,1991,2035,2045,2036
2045,2059,2045,2013,1978,2016,2040,2037
2047,2057,2035,2001,1976,2005,2038,2033
2045,2049,2027,1997,1988,2012,2043,2041
2050,2058,2043,2010,2014,2020,2041,2040
2052,2052,2039,2012,2013,2014,2047,2039
2046,2045,2035,2018,2019,2016,2049,2036
2047,2036,2032,2021,2025,2017,2036,2035
2044,2043,2035,2021,2038,2016,2047,2043
2041,2045,2037,2029,2040,2016,2050,2041
2050,2047,2050,2038,2039,2024,2042,2051
2045,2052,2052,2032,2036,2036,2045,2056
2047,2045,2045,2028,2017,2029,2050,2054
2046,2047,2044,2026,2002,2034,2042,2067
2049,2046,2052,2034,1996,2033,2042,2077
2044,2054,2058,2030,1994,2028,2022,2077
2035,2052,2062,2031,2008,2045,2028,2076
2046,2062,2079,2053,2052,2056,2035,2077
2050,2064,2096,2059,2070,2064,2044,2076
2045,2059,2097,2059,2092,2085,2046,2083
2053,2068,2099,2058,2101,2091,2075,2082
2050,2066,2088,2053,2088,2083,2067,2071
2045,2062,2079,2046,2074,2078,2054,2062
2050,2062,2071,2049,2062,2083,2051,2060
2050,2063,2066,2051,2053,2087,2059,2062
2057,2060,2060,2046,2040,2090,2059,2048
2051,2058,2057,2044,2042,2106,2062,2050
2042,2053,2056,2035,2042,2112,2051,2037
2042,2048,2049,2034,2039,2105,2057,2032
2040,2045,2049,2035,2035,2109,2048,2034
2043,2054,2059,2043,2036,2074,2048,2041
2049,2056,2058,2049,2043,2010,2036,2035
2046,2047,2055,2051,2064,1986,2062,2037
2050,2049,2051,2054,2064,2012,2058,2040
2049,2052,2052,2050,2044,2023,2056,2036
2040,2040,2044,2039,2021,2040,2055,2026
2042,2038,2043,2041,2025,2033,2048,2034
2050,2048,2049,2045,2030,2011,2030,2036
2052,2045,2044,2045,2043,2011,2029,2038
2049,2043,2046,2052,2054,2018,2038,2029
2041,2044,2051,2061,2054,2024,2023,2029
2040,2043,2060,2065,2059,2039,2053,2035
2045,2052,2058,2065,2063,2047,2051,2035
2045,2048,2048,2067,2066,2060,2047,2042
2044,2041,2028,2066,2068,2062,2054,2041
2045,2035,2029,2075,2068,2061,2043,2049
2045,2037,2043,2080,2071,2053,2036,2060
2050,2037,2045,2085,2064,2047,2032,2061
2043,2041,2044,2082,2055,2037,2018,2066
2038,2027,2036,2072,2050,2036,2013,2057
2027,2025,2032,2070,2037,2043,2024,2048
2026,2014,2025,2056,2037,2040,2024,2047
2026,2010,2007,2033,2026,2048,2019,2056
2023,2018,2004,2023,2012,2054,2020,2054
2019,2018,2003,2026,2015,2056,2021,2051
2026,2040,2021,2040,2019,2064,2027,2060
2044,2058,2043,2053,2022,2048,2035,2053
2056,2063,2046,2053,2039,2018,2032,2054
2047,2060,2052,2056,2064,2018,2032,2049
2043,2045,2043,2042,2064,2030,2019,2042
2033,2028,2020,2022,2052,2039,2025,2036
2032,2035,2036,2015,2058,2044,2045,2037
2036,2054,2058,2031,2059,2044,2041,2039
2045,2069,2074,2043,2061,2046,2046,2037
2051,2071,2066,2048,2056,2041,2035,2034
2049,2064,2064,2054,2059,2047,2038,2024
2054,2058,2062,2056,2061,2044,2032,2031
2050,2054,2045,2046,2052,2041,2041,2020
2048,2043,2040,2044,2053,2041,2037,2025
2048,2051,2044,2038,2058,2041,2029,2032
2050,2051,2051,2032,2043,2036,2020,2030
2051,2058,2056,2022,2040,2045,2020,2037
2060,2068,2061,2008,2042,2045,2039,2047
2065,2069,2053,2012,2047,2051,2041,2045
2058,2065,2058,2023,2049,2051,2030,2043
2056,2068,2056,2030,2052,2052,2040,2048
2049,2059,2055,2037,2044,2046,2031,2048
2037,2056,2055,2039,2043,2044,2024,2056
2035,2054,2053,2046,2046,2047,2037,2056
2039,2047,2052,2053,2045,2053,2030,2062
2040,2052,2054,2061,2045,2043,2037,2064
2046,2055,2059,2069,2050,2043,2044,2075
2054,2056,2062,2065,2043,2038,2043,2078
2051,2056,2057,2061,2025,2039,2040,2071
2046,2050,2048,2061,2034,2037,2035,2069
2049,2047,2050,2061,2052,2037,2051,2073
2051,2056,2056,2065,2064,2040,2029,2075
2050,2053,2048,2064,2067,2045,2037,2064
2046,2056,2043,2065,2087,2053,2045,2059
2045,2055,2030,2059,2075,2055,2056,2053
2048,2054,2018,2052,2066,2050,2066,2051
2042,2047,2004,2046,2064,2053,2052,2037
2038,2045,2008,2044,2055,2053,2061,2030
2029,2039,2007,2030,2028,2053,2037,2028
2040,2040,2010,2013,2013,2054,2021,2029
2053,2042,2022,2027,2037,2068,2045,2035
2052,2045,2034,2041,2040,2076,2042,2026
2046,2050,2034,2044,2040,2070,2035,2034
2053,2042,2028,2050,2042,2037,2047,2043
2064,2041,2027,2053,2043,2024,2049,2036
2067,2040,2025,2048,2022,2022,2034,2031
2052,2027,2011,2040,2002,2024,2039,2017
2037,2027,2011,2051,2035,2031,2046,2017
2038,2034,2011,2053,2072,2040,2041,2025
2043,2038,2032,2056,2095,2046,2048,2023
2051,2047,2041,2051,2105,2040,2058,2030
2038,2047,2047,2048,2105,2045,2042,2030
2037,2051,2057,2042,2109,2038,2046,2035
2036,2052,2053,2031,2096,2030,2056,2042
2037,2047,2045,2013,2068,2026,2040,2050
2034,2043,2050,1990,2025,2012,2037,2046
2027,2038,2052,1978,1983,2008,2036,2055
2038,2050,2079,1993,1924,2013,2056,2070
2047,2060,2079,1999,1883,1991,2067,2074
2048,2056,2070,1998,1924,1996,2041,2080
2050,2053,2072,2018,1974,2031,2063,2083
2052,2060,2081,2036,2024,2057,2053,2085
2044,2043,2068,2038,2054,2066,2042,2075
2038,2046,2059,2036,2069,2080,2031,2080
2035,2049,2060,2045,2069,2077,2057,2074
2044,2042,2055,2041,2061,2067,2060,2068
2040,2038,2058,2038,2050,2058,2060,2062
2041,2045,2054,2041,2055,2055,2061,2055
2042,2041,2053,2043,2055,2050,2044,2049
2046,2044,2057,2049,2067,2056,2043,2050
2054,2044,2064,2051,2083,2061,2045,2038
2053,2052,2069,2053,2091,2065,2038,2037
2054,2050,2063,2052,2081,2065,2045,2043
2056,2051,2059,2053,2068,2064,2047,2042
2045,2050,2065,2052,2053,2059,2038,2036
2045,2050,2058,2041,2030,2046,2028,2035
2053,2057,2060,2031,1972,2036,2039,2034
2044,2050,2055,2023,1961,2031,2054,2037
2054,2061,2060,2028,1997,2027,2032,2036
2051,2059,2063,2040,2032,2028,2048,2047
2059,2062,2066,2056,2055,2027,2027,2050
2064,2068,2071,2061,2061,2032,2018,2047
2057,2057,2060,2051,2054,2033,2021,2040
2055,2056,2058,2041,2043,2035,2044,2039
2053,2051,2051,2036,2039,2034,2035,2041
2054,2047,2041,2034,2045,2056,2016,2038
2045,2048,2046,2033,2045,2060,2050,2046
2054,2047,2046,2045,2033,2059,2033,2055
2053,2051,2052,2038,2038,2053,2060,2064
2052,2057,2055,2042,2042,2025,2045,2080
2053,2057,2061,2050,2045,2008,2064,2089
2053,2056,2060,2053,2055,2011,2059,2089
2042,2056,2050,2045,2049,2017,2050,2083
2046,2056,2049,2038,2044,2026,2042,2086
2046,2051,2053,2042,2050,2036,2033,2089
2045,2044,2039,2040,2048,2033,2031,2083
2043,2041,2038,2033,2048,2039,2025,2077
2048,2046,2048,2042,2049,2048,2045,2069
2052,2049,2044,2043,2044,2047,2059,2071
2051,2047,2049,2044,2041,2049,2056,2068
2047,2044,2042,2043,2040,2044,2049,2065
2048,2043,2039,2039,2036,2042,2036,2057
2051,2041,2044,2041,2032,2024,2044,2044
2049,2044,2040,2037,2036,2023,2040,2039
2040,2042,2040,2043,2052,2036,2043,2041
2048,2044,2047,2056,2078,2045,2052,2033
2046,2041,2035,2055,2074,2049,2042,2030
2045,2045,2027,2050,2062,2052,2041,2031
2038,2040,2026,2052,2064,2048,2037,2023
2039,2040,2023,2050,2065,2044,2054,2026
2037,2036,2014,2049,2053,2050,2051,2028
2036,2036,2019,2052,2051,2048,2040,2025
2036,2031,2017,2053,2052,2043,2050,2025
2034,2026,2010,2048,2049,2048,2049,2026
2038,2033,2006,2057,2050,2051,2045,2038
2034,2025,1999,2047,2054,2045,2043,2027
2037,2028,2002,2046,2045,2041,2041,2022
2035,2023,2003,2044,2047,2048,2037,2018
2037,2031,2011,2048,2056,2052,2047,2026
2035,2032,2018,2047,2063,2064,2027,2029
2035,2036,2027,2054,2057,2086,2034,2038
2041,2043,2038,2046,2048,2101,2046,2034
2043,2054,2045,2043,2035,2098,2052,2040
2050,2052,2053,2031,2039,2096,2049,2048
2049,2047,2062,2029,2034,2085,2052,2055
2049,2050,2070,2023,2023,2045,2049,2073
2042,2038,2067,2026,2031,1997,2053,2088
2054,2066,2074,2034,2047,2021,2054,2088
2064,2076,2086,2039,2049,2044,2047,2082
2056,2067,2082,2037,2039,2056,2051,2075
2049,2055,2073,2043,2052,2067,2048,2070
2045,2059,2074,2050,2055,2077,2076,2064
2045,2060,2066,2054,2054,2071,2077,2067
2045,2056,2060,2054,2055,2064,2068,2068
2048,2050,2055,2045,2043,2070,2051,2061
2047,2050,2053,2037,2034,2072,2041,2056
2051,2053,2049,2042,2029,2056,2032,2050
2051,2053,2053,2044,2028,2045,2036,2041
2052,2058,2057,2043,2030,2022,2024,2039
2048,2058,2055,2056,2047,1997,2050,2039
2046,2064,2068,2072,2074,1992,2047,2040
2055,2068,2065,2078,2082,2018,2051,2035
2051,2056,2056,2070,2080,2039,2037,2040
2045,2056,2054,2058,2063,2062,2040,2034
2050,2049,2053,2048,2039,2050,2023,2031
2042,2043,2044,2040,2026,2029,2022,2024
2040,2040,2037,2038,2011,2018,2024,2022
2038,2048,2045,2045,2006,2015,2027,2027
2049,2047,2042,2033,2000,2020,2024,2029
2048,2047,2039,2034,2018,2033,2053,2036
2058,2057,2053,2062,2048,2039,2040,2033
2060,2059,2056,2064,2060,2045,2026,2033
2049,2051,2057,2054,2058,2042,2038,2042
2046,2059,2054,2050,2067,2036,2031,2041
2044,2060,2047,2051,2075,2026,2038,2045
2047,2058,2050,2049,2076,2018,2041,2053
2051,2057,2053,2053,2068,2020,2066,2053
2046,2056,2049,2053,2081,2029,2066,2065
2046,2055,2054,2053,2072,2031,2038,2067
2053,2057,2047,2056,2069,2031,2051,2068
2046,2055,2048,2056,2073,2028,2042,2069
2050,2055,2046,2054,2059,2026,2050,2069
2039,2042,2044,2050,2047,2023,2045,2069
2043,2045,2040,2045,2043,2025,2053,2073
2049,2055,2047,2052,2045,2024,2051,2066
2050,2056,2044,2046,2028,2024,2030,2074
2052,2057,2044,2049,2021,2023,2042,2068
2046,2061,2046,2045,2018,2027,2028,2060
2053,2055,2044,2040,2028,2033,2031,2050
2046,2049,2036,2041,2047,2052,2044,2048
2054,2053,2044,2065,2076,2070,2056,2049
2056,2060,2046,2070,2084,2072,2046,2046
2046,2057,2051,2059,2076,2080,2050,2041
2044,2051,2045,2051,2067,2097,2060,2028
2049,2051,2041,2047,2056,2100,2068,2029
2039,2052,2037,2047,2057,2107,2060,2027
2043,2045,2038,2043,2052,2089,2062,2022
2040,2048,2037,2045,2051,2039,2042,2026
2041,2050,2039,2044,2056,2017,2028,2024
2037,2034,2031,2047,2049,2027,2033,2023
2036,2042,2032,2050,2057,2040,2026,2025
2052,2057,2044,2052,2049,2046,2042,2024
2046,2057,2036,2050,2043,2057,2038,2031
2047,2062,2041,2049,2049,2054,2044,2032
2049,2058,2036,2048,2034,2042,2030,2037
2051,2057,2037,2045,1994,2030,2020,2043
2047,2053,2035,2045,1993,2032,2026,2050
2048,2056,2040,2047,2018,2025,2046,2055
2048,2046,2037,2035,2028,2029,2037,2052
2048,2049,2036,2044,2053,2053,2046,2055
2052,2054,2047,2062,2084,2060,2040,2065
2054,2059,2050,2074,2086,2073,2066,2073
2057,2055,2047,2068,2082,2087,2052,2080
2050,2055,2044,2063,2077,2077,2042,2074
2051,2049,2042,2059,2049,2073,2064,2067
2047,2045,2037,2040,2006,2053,2042,2066
2042,2040,2036,2027,2011,2044,2050,2070
2052,2055,2042,2043,2049,2049,2031,2066
2054,2059,2045,2042,2051,2047,2020,2067
2053,2060,2049,2049,2037,2047,2028,2068
2056,2062,2047,2044,2032,2043,2049,2066
2054,2066,2042,2042,2028,2042,2020,2060
2060,2061,2039,2040,2020,2039,2025,2054
2061,2060,2033,2036,2021,2039,2025,2043
2058,2055,2034,2038,2039,2038,2037,2036
2054,2056,2038,2041,2052,2039,2038,2040
2053,2054,2038,2050,2064,2039,2031,2029
2048,2049,2043,2050,2060,2038,2025,2024
2051,2045,2039,2044,2049,2030,2035,2022
2041,2048,2039,2046,2055,2041,2028,2008
2038,2046,2039,2055,2064,2039,2021,2012
2042,2044,2038,2056,2068,2040,2036,2018
2039,2041,2031,2050,2066,2039,2033,2018
2040,2042,2028,2045,2056,2045,2045,2029
2049,2044,2041,2049,2062,2054,2043,2043
2048,2045,2041,2050,2064,2056,2045,2039
2050,2044,2038,2050,2065,2054,2057,2041
2053,2046,2039,2045,2048,2053,2077,2049
2059,2056,2046,2047,2029,2056,2080,2057
2057,2057,2050,2043,2024,2052,2056,2061
2063,2064,2057,2050,2035,2052,2069,2065
2060,2063,2053,2058,2043,2047,2058,2071
2059,2067,2056,2056,2050,2047,2053,2078
2060,2067,2053,2059,2063,2056,2045,2081
2060,2065,2051,2055,2064,2061,2017,2082
2063,2062,2045,2057,2061,2056,2027,2095
2060,2060,2043,2060,2074,2054,2020,2116
2064,2059,2049,2058,2101,2041,2022,2119
2057,2062,2042,2055,2104,2013,1989,2119
2056,2047,2040,2045,2090,1989,1958,2113
2047,2041,2036,2041,2079,1992,1961,2119
2055,2050,2041,2047,2069,1990,1927,2121
2055,2048,2041,2045,2053,1989,1983,2110
2059,2041,2043,2041,2037,1979,2013,2102
2065,2053,2049,2045,2029,1938,2048,2103
2056,2058,2054,2045,2010,1918,2076,2094
2061,2050,2045,2037,1968,1946,2091,2085
2053,2045,2046,2030,1921,1991,2116,2077
2057,2046,2042,2036,1963,2048,2113,2068
2055,2051,2049,2047,2008,2082,2102,2035
2051,2050,2049,2055,2026,2091,2046,2008
2047,2053,2044,2046,2019,2075,2019,2012
2040,2045,2045,2045,2024,2043,2007,2020
2040,2043,2045,2047,2042,2047,2022,2018
2042,2048,2047,2052,2043,2068,2027,2033
2053,2050,2046,2048,2041,2097,2040,2044
2050,2036,2044,2041,2039,2118,2005,2038
2046,2032,2038,2046,2061,2112,1996,2033
2049,2044,2048,2052,2060,2071,2024,2028
2041,2035,2045,2044,2049,2041,2047,2019
2037,2032,2044,2045,2046,2043,2100,2023
2035,2040,2044,2045,2044,2050,2125,2034
2032,2040,2045,2047,2058,2059,2149,2046
2037,2042,2047,2046,2056,2068,2146,2054
2041,2043,2049,2044,2052,2083,2157,2054
2047,2043,2052,2045,2052,2089,2150,2077
2048,2043,2049,2052,2054,2086,2143,2082
2049,2048,2054,2048,2058,2091,2160,2070
2033,2052,2062,2058,2064,2092,2181,2076
2040,2049,2058,2059,2058,2090,2182,2066
2033,2042,2054,2059,2053,2087,2129,2040
2011,2039,2055,2050,2044,2085,2096,2020
1996,2028,2044,2048,2044,2075,2018,2026
1987,2026,2039,2049,2026,2074,1994,2043
2013,2037,2051,2056,2035,2076,1958,2066
2054,2058,2056,2064,2045,2088,1948,2087
2071,2060,2057,2066,2056,2115,2069,2106
2064,2065,2064,2064,2045,2126,2166,2124
2055,2067,2066,2056,2012,2108,2221,2113
2035,2062,2061,2035,1972,2045,2232,2117
2032,2059,2053,2026,2003,2039,2256,2121
2061,2064,2058,2032,2050,2065,2304,2098
2072,2067,2054,2035,2069,2079,2335,2081
2087,2059,2045,2036,2062,2080,2344,2059
2057,2047,2037,2030,2041,2077,2328,2049
2058,2043,2038,2024,2033,2076,2294,2053
2061,2040,2036,2020,2033,2095,2186,2021
2066,2042,2041,2032,2021,2097,2084,2009
2075,2045,2043,2043,2045,2075,1924,2010
2058,2029,2035,2037,2060,2030,1720,2032
2051,2033,2036,2044,2072,2053,1821,2042
2065,2052,2061,2070,2098,2071,1960,2050
2060,2070,2074,2072,2080,2107,1978,2052
2060,2063,2065,2060,2029,2145,1963,2051
2054,2067,2068,2049,1983,2159,1951,2036
2036,2052,2052,2029,1948,2157,1952,2011
2013,2037,2039,2007,1910,2136,1952,1992
1989,2021,2025,1989,1863,2053,1944,1993
1979,2020,2033,2002,1916,1929,1948,2032
2017,2038,2054,2039,1974,1866,1979,2074
2045,2049,2064,2055,2007,1909,1996,2087
2065,2059,2064,2069,2042,1978,2032,2097
2049,2052,2064,2061,2053,2014,2034,2072
2011,2027,2045,2048,2071,2034,2008,2055
1987,2017,2038,2042,2073,2029,1992,2046
2012,2031,2036,2038,2087,2030,1986,2052
2051,2036,2038,2052,2136,2043,2008,2053
2083,2042,2051,2064,2152,2004,2008,2054
2089,2060,2058,2070,2129,1959,1993,2043
2083,2052,2063,2069,2105,1951,2015,2041
2082,2054,2056,2057,2080,1989,2016,2032
2079,2046,2058,2048,2078,2030,2042,2027
2044,2047,2053,2043,2059,2045,2040,2017
2016,2033,2042,2035,2030,2030,2025,1990
1993,2021,2031,2028,2004,2011,2008,1972
1989,2006,2022,2019,2001,1993,2002,1955
1984,1996,2016,2019,2017,2001,2002,1965
2024,2029,2041,2037,2058,2033,2023,1974
2056,2058,2057,2056,2089,2062,2037,1981
2063,2069,2070,2067,2115,2088,2046,1990
2051,2076,2074,2080,2134,2087,2028,1994
2032,2072,2069,2076,2119,2068,2036,2006
2029,2065,2059,2064,2083,2037,2016,2009
2010,2044,2051,2045,2062,2025,2001,2014
2009,2034,2038,2039,2042,2024,2003,2014
2002,2028,2035,2037,2035,2028,2013,2006
1974,2010,2035,2038,2044,2029,2014,1998
1957,2012,2038,2062,2074,2029,2055,1992
1969,2036,2058,2079,2080,2022,2041,1999
2007,2059,2068,2063,2066,2000,2055,2014
2044,2074,2060,2051,2062,1979,2045,2032
2075,2078,2061,2057,2050,1979,2047,2047
2083,2074,2059,2056,2091,2025,2049,2036
2047,2049,2048,2056,2120,2111,2097,2023
1999,2023,2038,2050,2097,2125,2126,2031
1988,2008,2035,2046,2081,2122,2125,2051
2007,2015,2038,2051,2080,2125,2106,2060
2045,2035,2044,2054,2081,2123,2117,2091
2082,2051,2049,2051,2091,2110,2120,2096
2073,2045,2040,2052,2096,2086,2118,2088
2056,2043,2033,2052,2133,2082,2122,2082
2057,2042,2044,2053,2132,2083,2116,2088
2069,2046,2049,2053,2137,2095,2145,2079
2062,2037,2047,2052,2122,2098,2141,2072
2049,2039,2047,2049,2116,2089,2135,2067
2049,2043,2048,2048,2091,2060,2090,2060
2044,2047,2052,2043,2074,2039,2029,2052
2050,2047,2046,2045,2067,2034,1980,2043
2050,2051,2049,2042,2038,2033,1999,2048
2054,2050,2049,2045,1999,2034,2016,2043
2055,2045,2049,2040,1921,2037,2027,2040
2053,2051,2047,2036,1944,2052,2019,2027
2054,2050,2054,2046,1970,2062,2013,2008
2045,2058,2053,2043,1987,2056,1991,2007
2052,2052,2050,2043,2028,2080,1993,2006
2045,2049,2055,2049,2057,2064,1989,1998
2038,2037,2045,2045,2050,2036,1998,1986
2027,2039,2043,2038,2057,2024,1981,1991
2030,2046,2044,2049,2070,2038,2008,2005
2041,2045,2044,2046,2072,2052,2021,2016
2056,2044,2052,2049,2068,2064,2035,2019
2047,2059,2056,2054,2063,2053,2030,2022
2051,2064,2058,2061,2066,2055,2038,2029
2057,2069,2060,2059,2063,2052,2044,2033
2061,2068,2057,2055,2056,2049,2051,2040
2056,2061,2056,2045,2054,2041,2045,2035
2040,2055,2058,2040,2052,2029,2025,2029
2032,2051,2055,2040,2046,2031,2027,2027
2026,2048,2056,2044,2052,2039,2033,2030
2022,2050,2053,2039,2051,2042,2008,2032
2033,2045,2049,2041,2045,2048,1996,2042
2044,2046,2050,2040,2050,2049,1987,2045
2036,2045,2048,2044,2052,2045,1989,2040
2019,2032,2041,2036,2040,2045,1990,2045
2019,2028,2028,2036,2051,2046,2010,2048
2029,2037,2044,2041,2038,2047,2011,2042
2023,2040,2047,2037,2031,2044,1999,2041
2037,2051,2050,2042,2032,2046,2017,2043
2069,2065,2057,2051,2039,2059,2024,2050
2080,2072,2057,2052,2043,2034,2000,2052
2070,2064,2057,2048,2033,2011,2008,2034
2055,2059,2053,2048,2032,2005,2022,2029
2042,2050,2047,2040,2032,2003,2022,2034
2054,2054,2054,2044,2029,2014,2019,2031
2051,2058,2055,2049,2035,2020,2021,2021
2047,2061,2052,2049,2036,2024,2028,2015
2035,2057,2052,2047,2038,2030,2042,2009
2033,2062,2053,2053,2041,2045,2042,2005
2040,2059,2047,2056,2049,2053,2056,2012
2085,2066,2048,2049,2041,2044,2045,2004
2070,2047,2041,2045,2036,2040,2048,2000
2032,2038,2042,2046,2038,2046,2026,1993
2021,2037,2047,2048,2057,2052,2022,1987
2026,2044,2048,2056,2066,2059,2039,2001
2034,2043,2049,2059,2061,2061,2045,2003
2030,2040,2044,2055,2061,2042,2038,2003
2030,2040,2038,2056,2059,2023,2029,2011
2026,2037,2042,2056,2056,2040,2028,2014
2033,2042,2048,2053,2052,2089,2056,2030
2041,2047,2048,2049,2058,2095,2069,2043
2058,2058,2052,2049,2058,2101,2066,2049
2062,2066,2046,2045,2058,2088,2049,2053
2063,2057,2042,2039,2053,2080,2033,2044
2051,2046,2034,2036,2048,2067,2033,2041
2035,2042,2034,2036,2043,2062,2038,2052
2041,2042,2039,2038,2044,2060,2036,2057
2042,2040,2037,2038,2040,2039,2024,2057
2036,2036,2039,2043,2037,2012,2005,2059
2046,2042,2050,2054,2033,1997,2005,2055
2047,2048,2052,2054,2028,2005,2029,2043
2042,2046,2051,2051,2035,2023,2036,2048
2046,2038,2047,2050,2029,2040,2051,2054
2045,2048,2049,2043,2027,2054,2047,2040
2044,2051,2038,2044,2018,2065,2049,2036
2041,2051,2043,2041,2017,2063,2037,2033
2038,2045,2039,2034,2015,2056,2032,2020
2048,2039,2036,2039,2018,2026,2029,2022
2044,2043,2039,2037,2033,1972,2014,2019
2041,2033,2038,2041,2056,1968,1997,2018
2031,2032,2036,2043,2068,1996,2009,2008
2025,2033,2033,2047,2080,2036,2027,2016
2036,2031,2042,2055,2103,2074,2032,2016
2046,2041,2045,2065,2115,2103,2046,2015
2044,2041,2051,2062,2116,2102,2047,2008
2044,2044,2050,2063,2124,2089,2021,1999
2049,2043,2049,2067,2108,2060,2020,2004
2048,2042,2049,2052,2079,2047,2003,2005
2037,2034,2047,2037,2030,2039,2008,1997
2030,2032,2038,2028,1974,2004,2003,1999
2027,2031,2036,2024,1917,2001,2006,2011
2034,2035,2042,2028,1969,2023,2048,2026
2042,2039,2050,2036,2021,2037,2064,2035
2044,2044,2047,2037,2030,2053,2046,2036
2050,2053,2049,2035,2034,2054,2043,2035
2046,2048,2056,2037,2022,2067,2061,2035
2047,2047,2048,2034,2001,2082,2047,2038
2035,2048,2046,2034,2007,2079,2038,2047
2042,2050,2055,2035,2020,2086,2039,2057
2054,2057,2051,2034,2015,2069,2052,2062
2055,2060,2054,2032,2054,2037,2040,2061
2046,2057,2054,2045,2099,2042,2034,2064
2044,2064,2058,2051,2086,2066,2037,2072
2058,2075,2064,2055,2062,2064,2070,2075
2066,2074,2068,2058,2049,2061,2066,2068
2062,2075,2064,2046,2023,2053,2017,2056
2057,2065,2059,2037,1992,2037,2024,2047
2051,2060,2058,2035,1980,2027,2013,2031
2036,2062,2047,2025,1984,2035,2027,2024
2036,2052,2040,2033,2021,2047,2047,2017
2040,2060,2047,2042,2034,2047,2050,2017
2044,2059,2049,2039,2013,2052,2054,2022
2037,2056,2049,2036,2008,2063,2053,2015
2043,2054,2049,2042,2016,2069,2036,2015
2038,2046,2045,2031,2011,2074,2056,2005
2037,2041,2043,2027,2031,2093,2044,2006
2034,2043,2045,2047,2070,2097,2044,2008
2036,2045,2042,2044,2099,2092,2069,2017
2039,2042,2048,2049,2117,2088,2065,2026
2041,2053,2047,2054,2116,2090,2082,2029
2052,2052,2047,2050,2100,2070,2081,2026
2047,2046,2042,2047,2077,2049,2069,2029
2044,2046,2044,2051,2066,2039,2073,2026
2047,2048,2047,2051,2062,2041,2049,2029
2040,2040,2052,2052,2057,2043,2075,2030
2042,2043,2051,2053,2061,2060,2067,2030
2041,2039,2052,2052,2066,2077,2067,2030
2035,2036,2043,2042,2052,2100,2060,2034
2030,2033,2040,2040,2053,2104,2074,2040
2024,2027,2035,2034,2049,2104,2073,2048
2017,2020,2024,2036,2035,2101,2065,2049
2022,2016,2019,2025,2030,2094,2056,2053
2026,2014,2020,2021,2023,2091,2073,2059
2032,2028,2032,2020,2021,2085,2076,2049
2024,2023,2028,2019,2006,2065,2065,2042
2020,2025,2023,2017,2028,2081,2062,2046
2035,2036,2031,2027,2045,2074,2057,2049
2039,2041,2037,2029,2038,2050,2044,2045
2038,2043,2038,2036,2041,2045,2050,2041
2038,2040,2034,2032,2029,2029,2032,2028
2030,2037,2032,2025,2015,2025,2025,2018
2024,2026,2030,2016,1983,2015,2023,2014
2026,2023,2028,2005,1971,2012,2020,2013
2024,2023,2037,2003,1965,2005,2011,2012
2019,2032,2034,2011,1998,2024,2016,2014
2019,2037,2048,2022,2054,2029,2042,2015
2028,2051,2047,2032,2091,2031,2048,2019
2036,2050,2055,2044,2102,2045,2060,2009
2041,2059,2052,2042,2088,2060,2060,2004
2037,2054,2050,2048,2081,2078,2062,2010
2039,2057,2064,2053,2072,2046,2046,2020
2028,2054,2074,2045,2066,2039,2038,2019
2030,2054,2072,2043,2066,2051,2046,2017
2025,2055,2080,2050,2071,2053,2043,2016
2036,2063,2074,2050,2071,2064,2041,2012
2068,2069,2062,2047,2074,2071,2041,2019
2071,2073,2057,2039,2084,2092,2045,2024
2057,2066,2047,2041,2115,2103,2060,2026
2053,2064,2046,2035,2123,2093,2060,2028
2058,2064,2051,2037,2129,2080,2062,2034
2052,2056,2046,2036,2127,2054,2067,2044
2050,2057,2055,2050,2141,2035,2054,2056
2056,2060,2062,2053,2138,2040,2053,2048
2060,2059,2060,2060,2137,2056,2060,2052
2055,2055,2066,2050,2108,2058,2053,2056
2051,2050,2066,2049,2076,2051,2058,2059
2050,2054,2061,2045,1997,2039,2051,2056
2036,2050,2060,2025,1940,2023,2039,2052
2024,2045,2054,2022,1977,2020,2026,2052
2021,2041,2055,2036,1993,2033,2039,2051
2034,2056,2066,2044,2019,2031,2034,2052
2044,2058,2068,2043,2027,2028,2018,2047
2054,2055,2060,2038,2022,2033,2052,2051
2053,2059,2065,2038,2021,2030,2055,2040
2056,2055,2055,2036,2031,2032,2047,2042
2054,2057,2055,2044,2032,2034,2044,2031
2049,2056,2053,2044,2037,2029,2039,2031
2052,2058,2058,2044,2035,2018,2053,2033
2051,2058,2054,2052,2042,2016,2023,2023
2047,2055,2057,2053,2048,2019,2035,2023
2047,2050,2054,2048,2050,2018,2040,2013
2051,2046,2052,2050,2056,2026,2046,2012
2050,2045,2045,2043,2057,2037,2058,2009
2046,2048,2043,2040,2058,2059,2074,2012
2043,2035,2039,2036,2059,2089,2081,2016
2039,2034,2035,2037,2063,2126,2076,2016
2044,2045,2028,2040,2065,2146,2073,2021
2041,2051,2034,2038,2066,2134,2074,2023
2047,2047,2023,2039,2060,2120,2079,2027
2048,2050,2029,2036,2059,2119,2061,2021
2046,2045,2032,2036,2045,2092,2037,2018
2046,2045,2032,2032,2042,2046,2034,2015
2042,2044,2029,2032,2045,1988,2024,2010
2037,2037,2024,2040,2048,1991,2039,2010
2034,2038,2024,2037,2058,2017,2033,2021
2038,2043,2023,2036,2070,2042,2039,2029
2037,2041,2031,2039,2063,2040,2033,2036
2041,2044,2032,2044,2064,2043,2046,2044
2041,2046,2036,2044,2056,2035,2052,2045
2039,2046,2041,2038,2054,2041,2044,2046
2052,2046,2046,2044,2049,2045,2037,2055
2042,2035,2044,2033,2039,2022,2028,2052
2031,2028,2048,2028,2033,2009,2054,2060
2037,2041,2050,2031,2037,2014,2060,2059
2043,2033,2044,2031,2041,2032,2039,2054
2038,2038,2045,2034,2038,2038,2067,2055
2038,2033,2044,2034,2039,2046,2062,2051
2042,2034,2044,2027,2018,2054,2058,2044
2039,2040,2045,2021,2003,2058,2054,2036
2033,2042,2048,2018,1989,2073,2066,2032
2037,2044,2052,2015,1980,2066,2064,2010
2037,2042,2045,2015,1960,2032,2054,2007
2032,2037,2044,2014,1956,1982,2045,2009
2032,2041,2046,2028,1981,1983,2046,2010
2037,2044,2045,2027,1995,2018,2055,2022
2044,2044,2042,2026,2006,2052,2057,2018
2038,2042,2039,2025,2030,2068,2054,2011
2035,2048,2050,2045,2062,2085,2062,2007
2028,2044,2054,2061,2084,2083,2062,2002
2021,2035,2049,2055,2074,2077,2052,2005
2023,2041,2042,2055,2075,2068,2039,2000
2021,2037,2041,2046,2078,2051,2027,2004
2023,2038,2042,2046,2086,2050,2049,2017
2033,2037,2051,2048,2087,2059,2037,2021
2025,2052,2058,2053,2082,2058,2038,2026
2020,2058,2068,2051,2077,2052,2051,2024
2024,2057,2060,2059,2072,2051,2062,2033
2060,2067,2060,2053,2064,2055,2053,2041
2083,2074,2061,2052,2056,2054,2049,2041
2077,2068,2048,2050,2057,2052,2054,2044
2064,2060,2050,2047,2049,2051,2056,2049
2053,2054,2049,2050,2039,2055,2066,2053
2052,2059,2051,2048,2037,2054,2064,2062
2039,2055,2046,2048,2037,2050,2057,2062
2045,2045,2040,2042,2025,2033,2052,2065
2044,2045,2037,2041,2019,2021,2052,2049
2040,2045,2038,2041,2024,2037,2054,2051
2042,2053,2048,2047,2030,2038,2055,2056
2041,2053,2044,2046,2027,2028,2061,2048
2046,2055,2051,2047,2025,2018,2044,2042
2050,2054,2054,2049,2028,2027,2041,2037
2045,2058,2055,2050,2042,2038,2031,2030
2048,2053,2056,2050,2070,2044,2030,2031
2042,2049,2053,2052,2110,2058,2039,2029
2046,2057,2058,2054,2116,2064,2052,2021
2054,2053,2057,2065,2114,2073,2063,2012
2053,2052,2062,2061,2092,2077,2030,2014
2047,2055,2062,2059,2056,2061,2023,2019
2049,2057,2062,2060,2082,2053,2045,2011
2057,2059,2066,2064,2087,2053,2052,2019
2060,2064,2067,2068,2078,2051,2057,2015
2053,2054,2060,2059,2063,2034,2046,2011
2047,2045,2052,2050,2011,2007,2033,2009
2048,2050,2060,2045,1987,2002,2031,2012
2033,2045,2048,2028,1964,2009,2035,2012
2026,2033,2035,2018,1918,2004,2020,2008
2012,2026,2028,2006,1937,2014,2024,2014
2017,2027,2032,2029,2060,2049,2042,2026
2032,2038,2038,2054,2112,2063,2057,2040
2046,2046,2042,2063,2114,2082,2065,2042
2034,2042,2044,2056,2104,2078,2064,2042
2027,2036,2040,2046,2080,2064,2041,2041
2026,2030,2039,2042,2067,2053,2052,2042
2022,2026,2040,2037,2065,2047,2058,2044
2012,2028,2037,2042,2082,2057,2058,2055
2006,2022,2040,2051,2106,2058,2051,2061
2000,2031,2038,2050,2092,2050,2055,2061
2010,2030,2040,2040,2072,2042,2037,2056
2049,2037,2032,2036,2050,2032,2020,2044
2050,2034,2028,2028,2034,2037,2039,2055
2058,2036,2039,2032,2036,2053,2051,2054
2055,2037,2036,2034,2025,2060,2042,2047
2049,2040,2037,2035,2013,2056,2044,2047
2046,2041,2036,2039,2022,2058,2048,2039
2043,2043,2041,2046,2035,2070,2053,2040
2043,2037,2047,2049,2038,2077,2063,2041
2048,2038,2048,2045,2023,2083,2059,2032
2041,2043,2052,2039,2001,2082,2052,2027
2043,2044,2052,2037,1990,2076,2062,2026
2046,2044,2051,2038,2002,2093,2058,2022
2045,2043,2052,2032,2021,2096,2051,2018
2043,2048,2052,2049,2063,2074,2053,2030
2056,2057,2057,2064,2087,2072,2060,2023
2056,2052,2049,2057,2082,2055,2044,2020
2047,2042,2046,2043,2069,2044,2040,2010
2043,2031,2043,2045,2056,2066,2042,2012
2042,2038,2053,2056,2091,2088,2065,2023
2053,2052,2062,2065,2098,2083,2075,2024
2057,2059,2067,2066,2094,2059,2074,2029
2056,2056,2062,2058,2074,2044,2070,2030
2057,2056,2056,2052,2066,2034,2066,2021
2056,2046,2053,2050,2062,2036,2049,2028
2051,2045,2045,2054,2065,2048,2058,2040
2043,2049,2050,2057,2061,2071,2052,2038
2033,2053,2052,2053,2048,2084,2062,2033
2029,2055,2045,2048,2033,2080,2052,2030
2029,2053,2044,2047,2037,2064,2052,2036
2035,2054,2049,2056,2057,2051,2049,2044
2035,2053,2047,2055,2071,2033,2051,2056
2042,2050,2044,2054,2072,2019,2050,2055
2040,2046,2036,2050,2067,2017,2043,2057
2030,2041,2030,2039,2055,2019,2027,2049
2023,2028,2032,2040,2055,2051,2041,2057
2032,2041,2036,2039,2037,2069,2051,2054
2037,2046,2039,2038,2011,2060,2036,2050
2035,2053,2035,2040,1999,2060,2027,2046
2035,2047,2035,2036,2002,2043,2037,2045
2045,2055,2035,2040,2014,2024,2044,2047
2041,2058,2037,2043,2034,2007,2049,2050
2057,2063,2048,2057,2068,2021,2058,2047
2058,2060,2043,2062,2080,2044,2068,2040
2066,2052,2044,2063,2089,2063,2070,2041
2055,2052,2040,2056,2074,2061,2066,2039
2056,2047,2039,2060,2065,2055,2062,2032
2049,2053,2042,2058,2058,2047,2040,2031
2049,2055,2051,2057,2057,2045,2041,2034
2048,2066,2055,2065,2059,2062,2047,2034
2049,2059,2056,2062,2055,2056,2058,2021
2044,2048,2041,2050,2040,2031,2024,2012
2040,2035,2039,2043,2036,2026,2027,2021
2049,2047,2048,2056,2054,2043,2027,2024
2052,2049,2044,2047,2055,2056,2028,2026
2047,2047,2047,2048,2050,2069,2027,2023
2045,2044,2040,2051,2049,2075,2050,2032
2036,2042,2042,2044,2040,2103,2050,2030
2041,2040,2049,2038,2042,2090,2047,2036
2043,2041,2049,2058,2056,2070,2046,2042
2041,2044,2051,2057,2054,2065,2049,2035
2036,2045,2053,2054,2048,2055,2034,2039
2032,2035,2054,2056,2056,2018,2041,2054
2037,2045,2060,2061,2055,2010,2039,2058
2036,2045,2053,2056,2047,2041,2039,2067
2043,2039,2053,2051,2037,2062,2036,2061
2045,2040,2047,2045,2040,2075,2029,2065
2041,2042,2050,2043,2045,2068,2029,2063
2037,2035,2041,2046,2051,2011,2036,2064
2032,2038,2046,2052,2050,1998,2041,2065
2041,2058,2056,2053,2044,2013,2038,2057
2046,2057,2053,2057,2045,2042,2064,2059
2050,2064,2053,2049,2039,2041,2060,2063
2057,2058,2052,2051,2038,2040,2075,2061
2053,2058,2053,2047,2036,2048,2081,2058
2051,2050,2041,2045,2038,2050,2063,2046
2050,2052,2048,2052,2083,2055,2067,2040
2055,2054,2050,2053,2100,2052,2069,2044
2049,2047,2048,2046,2111,2036,2068,2045
2057,2052,2046,2054,2123,2030,2052,2039
2051,2048,2045,2055,2124,2033,2050,2034
2045,2044,2044,2057,2101,2028,2032,2022
2045,2041,2046,2053,2087,2026,2045,2022
2043,2047,2044,2050,2071,2027,2039,2021
2047,2047,2041,2048,2020,2009,2022,2014
2041,2037,2040,2036,1943,1988,2020,2015
2034,2033,2034,2038,1950,2008,2048,2020
2043,2046,2048,2048,1996,2033,2047,2025
2042,2050,2048,2051,2041,2064,2054,2019
2037,2045,2050,2056,2065,2105,2059,2025
2042,2046,2045,2062,2068,2113,2052,2035
2051,2054,2045,2059,2061,2096,2048,2043
2053,2058,2050,2056,2056,2076,2045,2062
2050,2057,2049,2051,2058,2063,2073,2063
2062,2064,2051,2047,2053,2062,2062,2070
2056,2064,2046,2052,2045,2051,2054,2066
2053,2054,2049,2048,2052,2065,2069,2069
2058,2054,2051,2050,2053,2070,2055,2078
2058,2054,2044,2048,2053,2074,2060,2086
2060,2054,2044,2049,2047,2084,2083,2098
2058,2053,2041,2048,2040,2078,2072,2087
2048,2039,2035,2041,2032,2059,2054,2081
2036,2031,2035,2040,2031,2054,2058,2077
2039,2037,2040,2038,2030,2057,2047,2071
2042,2043,2044,2044,2022,2057,2047,2058
2045,2043,2051,2052,2024,2049,2057,2060
2050,2062,2056,2058,2028,2036,2042,2057
2051,2066,2062,2062,2030,2028,2019,2054
2053,2064,2056,2057,2003,2024,2011,2046
2048,2064,2048,2058,2022,2011,2012,2040
2050,2057,2048,2052,2040,2001,2014,2035
2047,2056,2047,2051,2055,2018,2032,2026
2044,2053,2045,2054,2053,2032,2032,2024
2045,2044,2040,2048,2036,2043,2049,2027
2036,2052,2040,2050,2041,2053,2050,2028
2046,2051,2043,2051,2038,2049,2041,2022
2051,2047,2037,2038,2008,2039,2026,2023
2051,2041,2037,2030,2023,2033,2008,2013
2047,2041,2036,2033,2049,2032,2023,2021
2046,2041,2035,2036,2043,2039,2050,2025
2050,2050,2043,2042,2036,2033,2045,2034
2055,2044,2050,2044,2028,2036,2064,2035
2056,2056,2052,2044,2031,2049,2071,2036
2058,2053,2049,2042,2037,2056,2048,2040
2052,2045,2045,2042,2040,2051,2047,2041
2056,2045,2043,2058,2066,2045,2038,2044
2046,2046,2051,2062,2099,2052,2025,2047
2045,2050,2054,2068,2113,2047,2016,2046
2044,2047,2047,2068,2103,2042,2025,2057
2049,2046,2048,2064,2093,2045,2050,2062
2046,2050,2043,2063,2078,2063,2048,2071
2048,2041,2036,2063,2069,2057,2050,2078
2050,2046,2043,2061,2063,2051,2039,2077
2049,2046,2042,2055,2059,2045,2031,2078
2051,2048,2039,2050,2040,2036,2040,2073
2047,2046,2042,2036,1998,2032,2057,2066
2038,2041,2048,2036,1990,2034,2053,2068
2041,2053,2046,2037,2039,2024,2037,2066
2044,2053,2045,2038,2062,2031,2036,2070
2051,2053,2043,2037,2060,2035,2036,2066
2051,2051,2040,2036,2052,2035,2046,2064
2051,2056,2043,2039,2041,2034,2039,2055
2046,2048,2037,2041,2044,2037,2037,2046
2054,2052,2039,2043,2052,2052,2050,2046
2055,2051,2039,2043,2055,2055,2048,2047
2062,2053,2045,2050,2064,2058,2035,2044
2056,2046,2040,2043,2058,2053,2053,2039
2051,2043,2041,2050,2047,2057,2052,2042
2053,2046,2041,2052,2047,2052,2037,2037
2050,2046,2040,2053,2038,2048,2030,2038
2050,2044,2042,2050,2038,2041,2046,2039
2050,2040,2037,2049,2035,2040,2021,2038
2043,2034,2032,2048,2031,2035,2029,2036
2052,2030,2039,2048,2040,2035,2039,2044
2057,2043,2042,2049,2051,2036,2043,2040
2058,2048,2044,2053,2052,2043,2048,2040
2061,2052,2045,2051,2054,2046,2052,2045
2052,2054,2045,2052,2059,2044,2045,2046
2049,2053,2042,2047,2056,2042,2042,2048
2047,2049,2047,2048,2059,2041,2043,2053
2049,2047,2048,2046,2069,2039,2030,2054
2051,2040,2044,2048,2071,2043,2055,2057
2048,2049,2048,2057,2068,2045,2051,2067
2055,2055,2054,2050,2064,2046,2060,2071
2055,2056,2049,2050,2064,2049,2052,2076
2053,2058,2049,2052,2054,2041,2053,2076
2054,2058,2051,2051,2041,2037,2049,2085
2057,2056,2050,2045,2046,2040,2055,2084
2049,2050,2042,2041,2028,2038,2048,2081
2043,2045,2037,2039,2031,2032,2036,2087
2051,2053,2039,2049,2032,2034,2041,2091
2054,2055,2041,2038,2030,2032,2042,2085
2058,2055,2046,2042,2027,2027,2056,2081
2064,2054,2050,2049,2034,2021,2038,2067
2053,2052,2046,2043,2032,2021,2044,2059
2045,2052,2043,2044,2038,2033,2046,2059
2049,2053,2052,2053,2087,2058,2048,2057
2050,2057,2055,2054,2084,2054,2048,2056
2054,2062,2056,2056,2063,2039,2030,2047
2059,2061,2052,2054,2055,2021,2030,2041
2060,2059,2054,2049,2035,2018,2017,2036
2056,2055,2050,2044,2023,2020,2021,2035
2059,2054,2044,2045,2023,2024,2029,2043
2056,2060,2060,2052,2038,2020,2042,2045
2064,2061,2057,2055,2044,2041,2038,2035
2058,2047,2048,2047,2043,2058,2052,2038
2053,2047,2045,2040,2041,2059,2046,2044
2060,2052,2051,2045,2037,2052,2052,2046
2055,2058,2051,2047,2038,2043,2033,2044
2056,2057,2059,2052,2032,2040,2020,2046
2058,2062,2063,2057,2034,2055,2044,2041
2053,2062,2062,2058,2035,2067,2050,2046
2048,2056,2057,2047,2029,2077,2051,2049
2047,2053,2058,2048,2017,2069,2062,2058
2049,2049,2053,2039,1990,2063,2072,2056
2053,2046,2047,2034,1988,2082,2067,2065
2055,2040,2040,2027,1987,2090,2069,2063
2036,2039,2037,2020,1973,2081,2064,2071
2040,2039,2044,2035,2004,2085,2061,2074
2040,2045,2052,2051,2038,2061,2056,2085
2044,2052,2052,2053,2055,2039,2046,2081
2042,2046,2047,2047,2063,2051,2039,2073
2031,2038,2047,2048,2081,2050,2049,2077
2040,2043,2050,2056,2101,2045,2059,2084
2052,2053,2057,2059,2093,2022,2037,2078
2048,2056,2052,2057,2081,2012,2049,2079
2047,2045,2042,2052,2084,2020,2065,2070
2046,2046,2037,2049,2088,2023,2073,2068
2050,2046,2042,2051,2088,2034,2073,2066
2051,2050,2042,2054,2083,2056,2064,2059
2050,2045,2040,2059,2079,2070,2055,2047
2047,2045,2036,2056,2070,2059,2044,2048
2049,2046,2040,2046,2059,2046,2038,2050
2055,2045,2038,2048,2061,2042,2044,2050
2057,2044,2036,2046,2053,2039,2054,2046
2055,2040,2036,2049,2054,2050,2029,2041
2049,2043,2032,2051,2064,2053,2054,2038
2044,2042,2030,2046,2054,2051,2044,2032
2050,2033,2021,2038,2055,2043,2039,2033
2046,2020,2021,2036,2051,2049,2030,2039
2046,2027,2022,2041,2056,2063,2049,2049
2056,2035,2034,2050,2060,2057,2061,2046
2053,2036,2036,2046,2041,2041,2051,2047
2043,2041,2037,2044,2031,2030,2060,2038
2045,2044,2040,2043,2026,2026,2058,2045
2045,2040,2040,2050,2032,2027,2056,2046
2042,2039,2046,2051,2042,2029,2054,2047
2046,2043,2050,2054,2045,2047,2067,2054
2045,2045,2050,2061,2052,2059,2075,2058
2040,2047,2047,2056,2059,2069,2072,2061
2048,2052,2058,2056,2062,2079,2092,2072
2054,2057,2055,2054,2055,2083,2081,2071
2048,2055,2060,2055,2047,2092,2080,2075
2053,2056,2053,2054,2049,2092,2076,2079
2046,2050,2057,2051,2050,2094,2057,2082
2041,2044,2050,2044,2045,2084,2071,2076
2038,2042,2051,2049,2046,2049,2076,2085
2043,2050,2052,2049,2036,2022,2078,2078
2045,2053,2049,2048,2033,2018,2078,2078
2049,2052,2049,2042,2031,2028,2070,2076
2057,2052,2050,2041,2034,2035,2070,2073
2059,2060,2049,2038,2038,2027,2057,2068
2062,2052,2055,2043,2051,2033,2068,2067
2061,2067,2058,2050,2060,2042,2056,2064
2074,2068,2061,2057,2062,2049,2063,2067
2069,2064,2058,2054,2056,2045,2071,2066
2064,2062,2052,2054,2064,2043,2070,2061
2065,2061,2057,2052,2059,2044,2074,2055
2064,2057,2053,2050,2056,2046,2076,2053
2057,2052,2052,2054,2053,2048,2074,2041
2046,2051,2052,2049,2052,2046,2063,2039
2042,2051,2052,2053,2052,2040,2037,2037
2040,2047,2047,2047,2037,2036,2040,2029
2043,2043,2046,2046,2046,2039,2044,2038
2050,2057,2055,2052,2038,2032,2058,2050
2054,2060,2058,2050,2045,2031,2053,2046
2052,2063,2065,2061,2061,2036,2057,2049
2056,2070,2067,2066,2068,2047,2041,2052
2057,2066,2066,2065,2072,2049,2062,2058
2059,2065,2061,2061,2077,2053,2053,2062
2055,2061,2062,2061,2074,2047,2045,2067
2056,2059,2056,2057,2075,2033,2054,2061
2053,2063,2058,2063,2069,2037,2048,2060
2054,2059,2056,2054,2074,2044,2054,2066
2049,2052,2052,2058,2073,2053,2036,2078
2048,2048,2053,2059,2066,2055,2054,2077
2042,2050,2052,2047,2050,2055,2040,2079
2034,2047,2046,2038,2030,2056,2054,2070
2033,2042,2044,2033,2025,2065,2062,2068
2031,2032,2032,2032,2035,2082,2077,2077
2039,2038,2030,2035,2044,2092,2071,2082
2036,2042,2036,2040,2028,2098,2085,2073
2042,2045,2037,2035,2014,2105,2093,2074
2039,2039,2040,2038,2006,2115,2081,2066
2050,2043,2037,2030,2001,2098,2073,2067
2053,2042,2034,2031,1999,2066,2060,2066
2062,2048,2043,2037,2017,2044,2061,2057
2067,2061,2046,2048,2056,2048,2069,2052
2068,2060,2048,2057,2071,2073,2065,2035
2057,2051,2043,2050,2063,2098,2068,2033
2055,2054,2042,2045,2055,2100,2063,2030
2056,2054,2036,2048,2053,2072,2057,2034
2055,2056,2037,2052,2032,2010,2042,2039
2057,2051,2038,2050,2036,1962,2034,2050
2060,2050,2041,2048,2030,1960,2036,2043
2062,2041,2038,2036,1977,1977,2043,2036
2055,2027,2041,2037,1988,1999,2047,2032
2053,2031,2050,2050,2024,2025,2073,2052
2063,2051,2054,2064,2023,2026,2059,2042
2062,2054,2051,2063,2044,2026,2062,2036
2057,2063,2060,2064,2063,2038,2060,2031
2052,2061,2056,2067,2076,2047,2062,2043
2052,2055,2063,2064,2095,2065,2072,2056
2047,2062,2065,2055,2091,2056,2072,2062
2044,2060,2056,2046,2065,2043,2067,2064
2047,2061,2064,2051,2107,2048,2063,2070
2052,2063,2057,2054,2122,2067,2091,2080
2058,2052,2055,2066,2106,2073,2086,2087
2050,2045,2046,2057,2034,2054,2081,2091
2053,2049,2042,2041,1976,2049,2070,2090
2051,2050,2037,2036,1998,2054,2071,2087
2058,2052,2036,2042,2014,2049,2069,2079
2051,2042,2037,2043,2013,2040,2063,2073
2041,2037,2040,2049,2025,2044,2054,2070
2038,2054,2054,2063,2043,2043,2040,2064
2050,2060,2056,2058,2052,2058,2039,2064
2045,2053,2053,2054,2042,2051,2034,2059
2041,2051,2049,2055,2048,2011,2037,2048
2040,2051,2046,2053,2053,2015,2034,2050
2047,2046,2047,2058,2056,2030,2052,2049
2059,2050,2040,2053,2049,2037,2056,2046
2049,2048,2044,2054,2044,2033,2061,2037
2050,2052,2041,2054,2042,2032,2056,2036
2044,2049,2042,2050,2049,2026,2053,2031
2043,2046,2039,2053,2045,2026,2056,2029
2045,2049,2040,2050,2042,2039,2055,2029
2058,2058,2048,2058,2035,2056,2061,2046
2065,2065,2049,2056,2038,2060,2064,2042
2070,2064,2050,2057,2037,2050,2070,2031
2060,2061,2048,2049,2036,2038,2046,2029
2059,2049,2045,2047,2037,2048,2045,2025
2056,2062,2053,2054,2045,2050,2052,2030
2062,2058,2049,2055,2047,2047,2054,2037
2060,2058,2045,2051,2053,2046,2059,2036
2057,2060,2047,2063,2048,2046,2058,2043
2059,2064,2045,2055,2054,2051,2062,2045
2059,2060,2043,2058,2056,2052,2067,2056
2061,2058,2043,2060,2061,2052,2059,2062
2060,2061,2041,2057,2056,2051,2058,2066
2059,2066,2037,2061,2064,2056,2061,2066
2056,2062,2038,2064,2062,2060,2059,2077
2061,2059,2042,2063,2059,2061,2065,2085
2056,2055,2047,2062,2063,2058,2059,2079
2049,2053,2047,2063,2058,2056,2055,2075
2042,2051,2044,2065,2057,2055,2057,2075
2045,2056,2045,2064,2048,2052,2034,2080
2038,2041,2040,2053,2049,2043,2027,2078
2045,2042,2039,2066,2051,2043,2047,2079
2047,2061,2049,2065,2043,2043,2036,2079
2049,2061,2047,2064,2044,2037,2031,2071
2050,2051,2047,2061,2034,2028,2027,2067
2047,2052,2050,2064,2026,2026,2050,2063
2052,2054,2052,2060,2034,2032,2050,2055
2061,2049,2054,2060,2043,2032,2060,2057
2051,2052,2056,2065,2045,2031,2063,2050
2050,2048,2053,2060,2049,2020,2052,2044
2050,2050,2047,2060,2036,2015,2052,2034
2049,2047,2044,2061,2043,2007,2051,2025
2042,2044,2043,2060,2045,1988,2031,2022
2044,2041,2041,2057,2044,1985,2042,2021
2042,2048,2038,2052,2049,2021,2050,2022
2041,2049,2038,2050,2052,2059,2046,2032
2038,2042,2028,2046,2039,2080,2043,2013
2032,2031,2020,2040,2035,2073,2040,2020
2034,2031,2027,2048,2044,2065,2053,2022
2039,2041,2024,2048,2045,2051,2042,2026
2038,2041,2022,2051,2042,2055,2040,2030
2044,2043,2026,2049,2045,2052,2064,2037
2044,2043,2027,2053,2047,2057,2044,2037
2041,2038,2027,2050,2066,2059,2041,2040
2045,2033,2032,2054,2068,2072,2037,2034
2044,2034,2035,2062,2066,2066,2050,2038
2042,2038,2039,2057,2065,2059,2049,2047
2047,2039,2039,2065,2060,2062,2057,2057
2041,2045,2039,2066,2054,2056,2060,2063
2049,2042,2040,2062,2044,2039,2056,2068
2052,2038,2033,2059,2025,2020,2052,2066
2052,2032,2028,2055,2020,2018,2049,2068
2049,2031,2028,2041,1989,2008,2039,2063
2041,2024,2024,2034,1946,2014,2007,2060
2042,2025,2025,2036,1970,2016,2021,2066
2049,2038,2035,2040,1998,2036,2051,2069
2053,2042,2032,2048,2003,2056,2058,2068
2051,2053,2034,2055,2005,2061,2063,2067
2047,2054,2033,2056,2018,2065,2064,2060
2049,2049,2032,2056,2032,2064,2036,2056
2052,2052,2028,2058,2028,2054,2023,2049
2051,2045,2028,2054,2040,2064,2044,2049
2054,2041,2026,2058,2057,2074,2048,2051
2051,2046,2027,2061,2057,2074,2049,2053
