CH1,CH2,CH3,CH4,CH5,CH6,CH7,CH8
2049,2054,2042,2018,2059,2044,2047,2032
2049,2051,2040,2028,2059,2045,2069,2030
2049,2057,2045,2041,2066,2042,2074,2034
2046,2057,2058,2046,2067,2046,2057,2036
2042,2055,2057,2050,2064,2051,2045,2047
2041,2052,2057,2052,2071,2053,2024,2064
2044,2064,2060,2063,2077,2063,2053,2073
2048,2068,2059,2064,2065,2062,2066,2080
2058,2065,2056,2059,2047,2054,2055,2083
2047,2054,2051,2058,2028,2037,2056,2078
2038,2048,2043,2049,2024,2031,2024,2076
2042,2044,2044,2048,2028,2032,2043,2073
2046,2056,2056,2053,2031,2044,2043,2072
2048,2059,2055,2059,2043,2047,2049,2072
2044,2054,2051,2055,2040,2045,2052,2048
2043,2055,2050,2049,2035,2042,2041,2048
2039,2050,2044,2049,2039,2040,2034,2046
2038,2047,2046,2044,2041,2044,2046,2040
2045,2048,2047,2048,2047,2042,2060,2036
2048,2052,2052,2044,2045,2044,2045,2033
2046,2050,2058,2049,2052,2042,2054,2027
2046,2055,2061,2052,2048,2041,2047,2026
2045,2058,2060,2052,2057,2041,2032,2026
2060,2057,2058,2055,2050,2041,2032,2023
2047,2059,2058,2055,2047,2042,2033,2020
2053,2056,2057,2058,2050,2040,2035,2009
2040,2046,2042,2053,2047,2037,2038,2005
2042,2043,2041,2052,2046,2049,2042,2015
2044,2053,2050,2053,2052,2057,2046,2008
2046,2044,2053,2052,2053,2053,2056,2006
2045,2044,2051,2054,2047,2056,2060,2011
2040,2040,2044,2054,2052,2052,2033,2021
2043,2043,2047,2060,2056,2054,2062,2023
2045,2046,2047,2057,2066,2055,2073,2029
2049,2049,2048,2060,2064,2047,2067,2035
2050,2049,2050,2060,2059,2055,2055,2042
2044,2049,2046,2062,2060,2058,2059,2056
2046,2049,2050,2059,2054,2059,2054,2057
2047,2044,2044,2061,2057,2063,2058,2063
2040,2045,2046,2055,2051,2059,2043,2071
2043,2045,2041,2062,2048,2058,2052,2070
2052,2038,2042,2059,2045,2055,2052,2068
2041,2034,2032,2053,2037,2043,2035,2066
2040,2037,2030,2048,2039,2043,2015,2072
2042,2047,2034,2046,2034,2040,2036,2076
2044,2041,2027,2045,2033,2038,2044,2064
2044,2044,2025,2045,2027,2029,2037,2062
2043,2045,2025,2052,2033,2029,2045,2050
2044,2043,2019,2049,2036,2028,2043,2044
2047,2043,2022,2048,2043,2031,2039,2039
2053,2048,2029,2054,2046,2043,2043,2032
2047,2048,2021,2050,2048,2056,2046,2027
2052,2049,2021,2053,2052,2056,2051,2024
2050,2046,2024,2052,2051,2052,2046,2022
2045,2041,2025,2050,2045,2051,2047,2014
2047,2042,2036,2052,2043,2054,2058,2015
2049,2037,2049,2057,2038,2051,2052,2014
2044,2044,2051,2065,2037,2049,2044,2009
2041,2036,2049,2062,2031,2044,2049,2007
2041,2040,2061,2059,2032,2043,2041,2005
2049,2049,2072,2068,2033,2048,2050,2011
2047,2052,2082,2066,2041,2053,2054,2014
2045,2050,2087,2076,2057,2056,2073,2016
2042,2047,2077,2083,2064,2071,2067,2021
2048,2054,2073,2079,2055,2075,2084,2031
2053,2056,2074,2085,2048,2079,2073,2038
2058,2057,2071,2083,2046,2075,2070,2039
2060,2062,2066,2088,2053,2076,2082,2039
2059,2062,2064,2082,2061,2076,2075,2058
2060,2063,2060,2078,2065,2069,2074,2061
2059,2057,2054,2069,2063,2068,2064,2065
2060,2056,2040,2062,2071,2058,2054,2069
2055,2055,2036,2053,2061,2055,2056,2064
2047,2048,2032,2054,2059,2052,2070,2062
2037,2032,2022,2046,2050,2052,2060,2064
2032,2025,2018,2036,2050,2057,2062,2074
2033,2029,2024,2044,2066,2054,2040,2077
2039,2045,2039,2054,2071,2059,2033,2077
2050,2047,2047,2062,2069,2070,2043,2067
2050,2053,2053,2066,2075,2060,2041,2068
2057,2058,2059,2066,2067,2033,2056,2059
2057,2060,2057,2066,2062,2026,2062,2057
2066,2061,2049,2064,2065,2034,2053,2049
2060,2060,2041,2065,2051,2038,2056,2042
2056,2056,2043,2061,2040,2040,2061,2032
2060,2052,2041,2054,2028,2031,2062,2028
2048,2052,2031,2047,2023,2032,2053,2016
2050,2050,2033,2046,2020,2034,2032,2018
2037,2049,2035,2049,2016,2039,2024,2018
2042,2037,2035,2044,2021,2035,2017,2006
2035,2027,2032,2034,2018,2032,2015,2000
2023,2024,2026,2018,2019,2024,2007,2002
2037,2041,2040,2028,2037,2040,2043,2016
2040,2056,2056,2036,2055,2041,2047,2027
2045,2070,2043,2039,2066,2035,2063,2028
2051,2060,2030,2033,2073,2030,2069,2033
2055,2051,2015,2041,2073,2041,2073,2035
2053,2047,2015,2043,2068,2048,2073,2036
2052,2048,2021,2046,2071,2052,2040,2044
2056,2043,2005,2045,2068,2053,2052,2045
2046,2032,1995,2037,2063,2050,2045,2044
2041,2030,1990,2034,2050,2037,2066,2045
2039,2028,1988,2017,2038,2018,2064,2056
2030,2025,1990,2021,2029,2013,2055,2072
2036,2033,2006,2025,2044,2030,2070,2075
2038,2039,2015,2032,2054,2035,2049,2075
2043,2041,2025,2030,2045,2029,2035,2073
2041,2028,2018,2027,2041,2026,2038,2076
2038,2022,2017,2038,2042,2028,2041,2083
2046,2036,2038,2038,2036,2026,2050,2084
2046,2049,2049,2047,2039,2026,2043,2070
2047,2047,2055,2048,2036,2023,2055,2065
2052,2050,2072,2052,2028,2017,2039,2064
2055,2056,2092,2053,2038,2023,2050,2046
2050,2054,2106,2056,2035,2029,2053,2039
2043,2055,2125,2058,2043,2030,2051,2033
2050,2069,2130,2066,2051,2043,2066,2035
2050,2076,2125,2060,2054,2041,2064,2030
2053,2070,2104,2047,2045,2052,2062,2031
2048,2071,2084,2038,2037,2053,2063,2036
2052,2060,2081,2042,2040,2057,2062,2033
2052,2060,2079,2047,2048,2061,2068,2024
2054,2058,2080,2051,2054,2065,2044,2022
2048,2051,2060,2052,2048,2057,2046,2020
2045,2047,2047,2045,2050,2052,2045,2028
2049,2046,2037,2040,2053,2055,2070,2033
2045,2039,2035,2045,2062,2053,2044,2027
2044,2042,2046,2056,2055,2051,2042,2031
2043,2039,2047,2051,2052,2049,2039,2035
2045,2038,2048,2044,2049,2045,2047,2032
2045,2034,2044,2043,2055,2048,2067,2049
2039,2031,2044,2055,2059,2053,2068,2047
2041,2033,2047,2061,2068,2056,2051,2053
2040,2036,2043,2062,2070,2057,2057,2058
2039,2036,2031,2061,2069,2056,2063,2064
2039,2032,2020,2055,2062,2052,2062,2066
2045,2027,2018,2046,2053,2045,2057,2079
2039,2035,2021,2041,2049,2043,2070,2078
2040,2040,2038,2048,2051,2049,2039,2083
2035,2045,2046,2045,2044,2043,2028,2077
2028,2039,2054,2034,2042,2034,2047,2080
2026,2047,2064,2025,2037,2041,2049,2085
2039,2064,2079,2020,2043,2044,2058,2090
2043,2060,2077,2017,2033,2044,2034,2084
2045,2066,2066,2010,2035,2041,2057,2076
2044,2058,2065,2016,2037,2052,2050,2074
2045,2063,2068,2031,2033,2052,2041,2066
2054,2068,2075,2042,2045,2058,2072,2067
2064,2069,2070,2047,2048,2059,2059,2062
2053,2068,2067,2045,2049,2049,2052,2048
2046,2059,2059,2039,2046,2052,2010,2041
2050,2062,2061,2045,2042,2053,2029,2039
2050,2064,2058,2047,2049,2057,2023,2040
2057,2064,2065,2046,2051,2057,2044,2034
2057,2062,2064,2050,2047,2054,2042,2037
2052,2061,2059,2047,2041,2053,2039,2027
2049,2048,2052,2043,2038,2044,2040,2024
2052,2050,2049,2045,2037,2048,2033,2028
2055,2054,2056,2049,2044,2053,2044,2026
2047,2055,2054,2056,2049,2054,2032,2028
2049,2054,2048,2056,2049,2051,2040,2035
2050,2060,2059,2057,2060,2050,2044,2036
2056,2061,2057,2056,2050,2050,2053,2037
2052,2057,2051,2055,2053,2047,2042,2046
2050,2052,2052,2055,2053,2048,2053,2054
2050,2053,2053,2059,2055,2049,2063,2059
2044,2056,2051,2058,2059,2050,2065,2063
2045,2058,2061,2062,2060,2053,2064,2069
2044,2050,2054,2056,2063,2052,2059,2080
2041,2052,2050,2056,2057,2055,2050,2081
2044,2048,2050,2051,2058,2050,2064,2082
2046,2049,2040,2058,2056,2056,2046,2088
2044,2044,2039,2050,2051,2050,2039,2085
2044,2038,2032,2038,2051,2060,2031,2078
2046,2042,2041,2046,2049,2078,2034,2080
2054,2050,2039,2040,2048,2083,2028,2081
2051,2045,2039,2045,2046,2092,2056,2073
2053,2051,2037,2047,2046,2087,2030,2073
2054,2053,2038,2054,2052,2052,2020,2070
2057,2048,2036,2049,2043,2008,2024,2056
2050,2050,2036,2055,2040,2005,2026,2052
2049,2049,2029,2048,2038,2012,2042,2045
2050,2042,2031,2048,2040,2023,2044,2037
2051,2046,2033,2048,2040,2027,2039,2036
2048,2043,2038,2047,2038,2024,2038,2035
2049,2041,2041,2049,2039,2022,2033,2031
2050,2040,2037,2050,2039,2029,2026,2028
2038,2044,2037,2049,2043,2029,2021,2028
2050,2045,2036,2061,2040,2033,2034,2018
2041,2034,2039,2056,2039,2034,2030,2015
2040,2033,2039,2057,2030,2042,2029,2023
2049,2048,2051,2056,2033,2052,2039,2033
2048,2045,2052,2057,2045,2057,2068,2031
2051,2046,2049,2057,2059,2057,2069,2036
2054,2049,2045,2069,2067,2059,2064,2035
2056,2049,2052,2076,2053,2052,2053,2036
2049,2055,2057,2076,2056,2050,2056,2040
2055,2050,2061,2072,2057,2051,2062,2046
2050,2048,2057,2067,2045,2054,2044,2050
2054,2042,2055,2067,2042,2053,2047,2054
2054,2042,2053,2060,2032,2048,2042,2059
2051,2042,2049,2055,2038,2046,2040,2075
2050,2039,2050,2047,2029,2042,2035,2076
2046,2038,2053,2039,2039,2037,2033,2077
2044,2029,2047,2038,2049,2035,2025,2081
2040,2030,2044,2031,2056,2036,2027,2081
2039,2027,2037,2037,2042,2038,2041,2076
2049,2036,2054,2050,2055,2044,2046,2078
2060,2042,2070,2060,2058,2045,2049,2077
2052,2041,2056,2056,2063,2046,2042,2070
2050,2036,2050,2054,2069,2046,2034,2065
2055,2039,2050,2056,2076,2045,2050,2062
2048,2041,2049,2062,2080,2050,2043,2054
2049,2046,2048,2064,2089,2053,2074,2057
2049,2052,2042,2066,2088,2060,2058,2059
2058,2061,2050,2070,2084,2057,2067,2050
2060,2067,2048,2076,2085,2058,2056,2041
2057,2062,2064,2085,2089,2061,2051,2037
2059,2060,2064,2087,2094,2059,2060,2028
2058,2060,2062,2081,2089,2057,2058,2026
2057,2057,2056,2076,2087,2053,2054,2030
2057,2052,2053,2076,2079,2053,2080,2026
2050,2044,2044,2066,2058,2049,2044,2021
2044,2034,2027,2052,2028,2047,2048,2015
2049,2039,2024,2057,2019,2045,2044,2018
2051,2041,2025,2057,2048,2040,2045,2014
2046,2036,2030,2069,2075,2052,2010,2014
2053,2043,2040,2075,2076,2060,2008,2016
2051,2041,2037,2081,2067,2065,2030,2019
2053,2033,2034,2085,2058,2056,2032,2021
2044,2033,2034,2085,2048,2047,2040,2029
2032,2024,2019,2070,2045,2039,2013,2031
2033,2011,2010,2061,2046,2039,2011,2035
2040,2020,2014,2058,2049,2038,2045,2046
2042,2032,2031,2064,2064,2047,2056,2058
2051,2038,2032,2052,2057,2050,2059,2061
2049,2037,2018,2040,2050,2044,2040,2066
2048,2031,2005,2024,2040,2034,2043,2068
2037,2033,2003,2025,2037,2036,2037,2066
2036,2024,2009,2025,2015,2034,2033,2075
2038,2032,2030,2030,2014,2036,2038,2082
2049,2052,2045,2034,2030,2044,2041,2078
2048,2053,2046,2027,2027,2035,2046,2075
2047,2051,2047,2016,2015,2035,2032,2070
2045,2045,2059,1999,2007,2029,2023,2053
2041,2055,2077,1998,2014,2033,2045,2054
2049,2066,2092,1998,2014,2040,2037,2055
2055,2071,2098,1999,2024,2048,2045,2052
2062,2081,2091,2009,2030,2049,2044,2051
2063,2073,2076,2015,2037,2050,2059,2045
2063,2066,2064,2014,2039,2051,2046,2039
2056,2067,2053,2017,2042,2049,2053,2029
2054,2059,2044,2024,2042,2050,2050,2029
2057,2058,2042,2030,2049,2052,2054,2030
2058,2057,2047,2033,2048,2050,2044,2024
2048,2059,2049,2032,2039,2046,2032,2019
2046,2044,2043,2027,2039,2041,2034,2017
2042,2036,2041,2027,2043,2051,2023,2018
2048,2050,2047,2039,2053,2054,2030,2023
2053,2046,2057,2043,2052,2058,2025,2028
2056,2049,2061,2044,2057,2060,2032,2028
2056,2043,2061,2047,2094,2060,2043,2034
2053,2043,2062,2044,2115,2063,2055,2040
2054,2047,2065,2051,2120,2067,2045,2036
2051,2052,2077,2062,2122,2068,2062,2039
2056,2058,2086,2069,2121,2058,2064,2044
2056,2060,2099,2074,2110,2058,2059,2052
2050,2062,2097,2076,2106,2055,2057,2053
2050,2056,2091,2082,2098,2057,2050,2063
2043,2054,2088,2078,2075,2055,2045,2068
2040,2054,2080,2077,2027,2046,2040,2076
2046,2058,2074,2067,1923,2026,2041,2078
2050,2053,2060,2053,1933,2028,2032,2068
2045,2041,2050,2049,1985,2041,2047,2076
2041,2047,2046,2048,2018,2050,2050,2075
2045,2048,2044,2051,2037,2051,2068,2079
2049,2048,2035,2052,2058,2054,2058,2074
2050,2044,2031,2062,2050,2061,2056,2066
2055,2046,2029,2062,2042,2064,2051,2059
2056,2047,2027,2060,2034,2058,2040,2049
2046,2048,2025,2048,2029,2055,2050,2045
2046,2042,2020,2039,2036,2054,2062,2036
2039,2038,2013,2037,2028,2054,2025,2034
2038,2040,2009,2025,2011,2045,2033,2028
2042,2044,2012,2024,2021,2048,2040,2028
2041,2043,2019,2037,2032,2060,2037,2029
2052,2049,2024,2038,2030,2060,2059,2023
2049,2052,2035,2043,2030,2056,2042,2019
2049,2054,2036,2036,2021,2052,2026,2007
2047,2043,2043,2024,2022,2048,2042,2009
2048,2045,2054,2024,2023,2050,2052,2011
2050,2051,2076,2031,2034,2054,2032,2009
2052,2054,2080,2034,2027,2053,2027,2014
2052,2056,2076,2029,2018,2054,2038,2022
2054,2056,2079,2033,2022,2054,2037,2032
2051,2050,2077,2034,2025,2056,2037,2033
2052,2055,2061,2031,2028,2058,2026,2039
2051,2056,2058,2036,2028,2057,2043,2045
2053,2051,2054,2032,2029,2063,2061,2045
2049,2051,2052,2031,2026,2060,2059,2055
2051,2052,2062,2034,2027,2060,2077,2067
2056,2052,2066,2045,2035,2063,2058,2066
2043,2051,2064,2047,2038,2066,2042,2068
2043,2043,2051,2052,2038,2061,2052,2081
2047,2040,2043,2046,2042,2057,2054,2081
2044,2040,2037,2046,2054,2051,2057,2080
2034,2026,2022,2041,2053,2051,2044,2077
2031,2028,2017,2043,2053,2054,2056,2085
2039,2034,2021,2046,2048,2056,2048,2074
2042,2035,2021,2043,2048,2052,2046,2074
2036,2033,2022,2046,2046,2054,2050,2065
2044,2042,2025,2044,2048,2057,2032,2061
2047,2040,2034,2047,2048,2058,2040,2055
2046,2046,2043,2048,2043,2052,2046,2049
2048,2045,2038,2047,2048,2051,2049,2043
2045,2046,2039,2046,2044,2058,2053,2037
2051,2046,2046,2050,2050,2066,2049,2030
2047,2045,2057,2053,2054,2063,2058,2025
2048,2047,2060,2050,2043,2062,2058,2025
2053,2047,2066,2055,2044,2062,2053,2020
2053,2053,2058,2052,2047,2061,2042,2020
2053,2049,2054,2052,2046,2056,2042,2022
2056,2047,2043,2047,2040,2047,2034,2014
2041,2042,2029,2044,2041,2052,2030,2011
2047,2047,2044,2048,2050,2055,2031,2016
2047,2048,2049,2055,2052,2058,2026,2016
2041,2050,2046,2057,2051,2054,2027,2025
2049,2051,2044,2048,2050,2057,2056,2029
2056,2050,2048,2053,2044,2061,2042,2038
2059,2054,2050,2059,2053,2059,2037,2042
2059,2056,2041,2050,2056,2048,2025,2038
2052,2054,2046,2051,2048,2049,2045,2040
2038,2054,2042,2055,2049,2056,2073,2055
2044,2047,2037,2049,2044,2061,2053,2068
2047,2053,2035,2049,2056,2070,2064,2069
2043,2052,2041,2058,2055,2070,2076,2075
2048,2054,2045,2057,2053,2062,2049,2080
2049,2057,2052,2058,2061,2068,2066,2081
2050,2051,2049,2054,2058,2060,2052,2076
2042,2040,2043,2049,2050,2058,2023,2071
2039,2037,2032,2049,2046,2058,2032,2079
2045,2049,2041,2056,2055,2056,2033,2082
2052,2050,2042,2056,2050,2051,2036,2074
2052,2056,2051,2059,2053,2044,2045,2067
2052,2052,2052,2056,2049,2045,2044,2061
2050,2043,2050,2049,2052,2035,2043,2047
2048,2045,2052,2049,2047,2037,2040,2039
2045,2043,2051,2051,2040,2046,2052,2032
2049,2038,2051,2052,2033,2043,2035,2028
2045,2040,2053,2047,2030,2044,2046,2028
2043,2046,2051,2046,2029,2051,2057,2026
2041,2050,2054,2045,2026,2056,2050,2020
2045,2050,2052,2049,2035,2055,2059,2017
2040,2058,2057,2046,2046,2060,2042,2022
2044,2058,2059,2046,2049,2063,2055,2016
2048,2051,2056,2046,2047,2064,2032,2007
2044,2051,2059,2050,2047,2072,2029,2015
2049,2053,2063,2059,2050,2075,2038,2021
2056,2066,2059,2056,2056,2075,2052,2021
2052,2066,2057,2061,2050,2072,2058,2030
2052,2057,2059,2056,2053,2059,2040,2034
2054,2057,2062,2056,2049,2057,2036,2031
2053,2058,2062,2064,2059,2055,2039,2047
2052,2064,2070,2066,2056,2040,2020,2048
2057,2062,2066,2058,2055,2032,2021,2051
2052,2065,2060,2060,2047,2040,2049,2044
2048,2058,2056,2054,2048,2039,2036,2051
2051,2049,2047,2055,2055,2039,2044,2060
2044,2054,2049,2054,2048,2046,2053,2072
2049,2049,2039,2056,2047,2050,2055,2072
2041,2051,2043,2054,2045,2046,2043,2073
2047,2053,2043,2055,2039,2046,2044,2075
2047,2045,2043,2044,2033,2040,2045,2073
2047,2046,2046,2053,2048,2050,2050,2072
2056,2060,2064,2058,2051,2059,2036,2072
2054,2065,2068,2055,2042,2054,2050,2076
2055,2066,2064,2053,2032,2050,2060,2064
2059,2058,2065,2053,2026,2047,2047,2062
2057,2059,2062,2049,2017,2046,2049,2052
2051,2059,2059,2049,2021,2042,2046,2049
2060,2052,2051,2051,2020,2038,2038,2039
2056,2062,2054,2053,2022,2040,2064,2031
2062,2054,2053,2045,2022,2039,2054,2036
2065,2056,2055,2046,2018,2042,2060,2036
2056,2056,2056,2053,2019,2042,2056,2029
2061,2057,2052,2045,2019,2040,2043,2025
2056,2055,2050,2052,2032,2039,2046,2020
2051,2051,2048,2049,2034,2044,2051,2015
2042,2033,2033,2048,2043,2040,2044,2008
2041,2038,2031,2053,2068,2046,2058,2014
2053,2052,2040,2061,2082,2055,2058,2022
2055,2051,2039,2060,2067,2056,2066,2019
2057,2053,2043,2066,2062,2053,2065,2034
2056,2054,2048,2071,2060,2052,2062,2030
2055,2047,2053,2074,2053,2053,2065,2037
2054,2045,2047,2080,2064,2059,2056,2044
2057,2044,2038,2079,2071,2070,2049,2035
2050,2042,2036,2076,2065,2079,2031,2047
2042,2040,2029,2074,2052,2080,2061,2056
2050,2040,2028,2065,2047,2077,2064,2062
2050,2042,2027,2057,2042,2067,2065,2064
2051,2040,2029,2056,2036,2034,2058,2079
2050,2052,2037,2057,2036,2017,2049,2096
2054,2061,2047,2058,2033,2022,2080,2093
2047,2054,2040,2044,2008,2013,2076,2090
2045,2056,2035,2032,1992,2020,2067,2093
2057,2072,2066,2045,1993,2025,2054,2088
2066,2075,2073,2034,1991,2024,2060,2079
2060,2069,2062,2015,1992,2033,2061,2074
2053,2063,2046,2012,2004,2053,2082,2071
2059,2060,2046,2020,2011,2067,2081,2064
2062,2059,2052,2032,2026,2070,2076,2052
2059,2063,2068,2050,2035,2063,2077,2044
2057,2062,2077,2061,2061,2064,2071,2043
2054,2057,2076,2071,2088,2064,2067,2037
2054,2059,2064,2084,2104,2066,2057,2029
2060,2054,2065,2083,2089,2060,2077,2030
2057,2054,2072,2085,2076,2054,2067,2025
2049,2057,2083,2085,2067,2047,2056,2025
2053,2051,2080,2081,2067,2046,2073,2023
2050,2050,2070,2082,2065,2042,2049,2025
2044,2040,2060,2076,2078,2041,2053,2017
2045,2046,2061,2077,2101,2054,2051,2019
2056,2043,2057,2081,2104,2055,2053,2027
2047,2042,2052,2077,2078,2047,2061,2029
2046,2044,2037,2061,2042,2046,2070,2033
2045,2039,2026,2045,2036,2045,2063,2031
2047,2034,2023,2041,2044,2049,2065,2035
2048,2030,2028,2047,2047,2047,2071,2038
2042,2036,2037,2050,2044,2050,2066,2053
2048,2041,2038,2047,2042,2048,2052,2060
2052,2043,2038,2049,2017,2046,2064,2060
2056,2035,2032,2050,2007,2043,2055,2068
2046,2032,2041,2051,2015,2053,2051,2077
2050,2038,2046,2051,2055,2063,2059,2085
2054,2057,2067,2055,2105,2061,2063,2086
2056,2061,2070,2058,2139,2058,2062,2084
2052,2065,2061,2067,2142,2054,2045,2083
2054,2065,2064,2068,2145,2058,2025,2090
2059,2062,2061,2064,2149,2057,2037,2082
2060,2059,2059,2059,2137,2062,2025,2078
2054,2055,2060,2066,2140,2072,2039,2072
2058,2058,2077,2085,2143,2075,2036,2067
2061,2058,2086,2092,2128,2060,2039,2060
2055,2055,2085,2087,2020,2048,2050,2050
2062,2052,2071,2078,1986,2032,2044,2038
2059,2050,2061,2085,1993,2027,2038,2040
2058,2051,2056,2107,2015,2027,2044,2039
2060,2051,2049,2106,2045,2042,2034,2040
2059,2051,2045,2108,2091,2051,2039,2030
2056,2038,2039,2115,2111,2054,2054,2028
2056,2044,2040,2119,2078,2044,2039,2020
2057,2033,2030,2091,1999,2038,2034,2013
2044,2023,2019,2067,1938,2020,2013,2015
2045,2026,2024,2054,1936,2014,2018,2021
2050,2037,2018,2056,2012,2025,2043,2019
2053,2034,1998,2048,2054,2027,2040,2017
2046,2020,1974,1999,2007,2008,2007,2034
2038,2012,1970,1971,1988,2009,2018,2028
2033,2020,1992,1968,1922,2016,2046,2032
2039,2044,2011,1974,1865,2019,2044,2039
2044,2053,2022,1977,1880,2022,2045,2029
2042,2045,2013,1980,1885,2005,2041,2033
2030,2038,2012,1971,1917,1990,2023,2041
2035,2038,2030,2004,2007,2021,2039,2061
2039,2056,2057,2032,2088,2046,2064,2072
2038,2049,2059,2019,2115,2057,2054,2081
2042,2047,2050,2001,2113,2071,2057,2086
2042,2043,2045,2001,2079,2060,2048,2078
2029,2033,2046,2006,2052,2050,2044,2083
2031,2043,2068,2017,2053,2058,2045,2084
2039,2054,2076,2029,2046,2055,2027,2076
2040,2050,2081,2035,2052,2059,2046,2072
2041,2055,2074,2044,2058,2054,2065,2071
2044,2060,2069,2047,2060,2059,2053,2063
2046,2062,2058,2050,2050,2056,2037,2057
2052,2060,2050,2050,2047,2054,2048,2055
2046,2058,2042,2051,2054,2056,2051,2046
2052,2054,2026,2053,2046,2055,2055,2039
2054,2053,2034,2050,2043,2057,2062,2039
2046,2044,2027,2048,2035,2052,2032,2037
2052,2042,2032,2050,2031,2053,2027,2033
2052,2047,2031,2049,2036,2056,2061,2032
2055,2050,2032,2050,2047,2056,2044,2032
2052,2050,2032,2050,2061,2058,2047,2024
2054,2036,2017,2043,2064,2056,2041,2023
2047,2036,2017,2037,2058,2063,2077,2029
2056,2041,2023,2041,2059,2073,2051,2022
2051,2045,2029,2037,2053,2084,2061,2024
2051,2047,2034,2039,2054,2085,2062,2029
2050,2047,2045,2040,2061,2081,2046,2038
2052,2054,2072,2049,2046,2076,2053,2039
2056,2070,2085,2059,2044,2057,2064,2047
2060,2075,2088,2071,2034,2026,2042,2067
2066,2071,2085,2073,2020,2021,2045,2073
2052,2060,2061,2058,2004,2024,2070,2071
2042,2048,2045,2049,2014,2026,2070,2080
2041,2046,2037,2052,2023,2021,2053,2087
2048,2052,2047,2051,1988,2014,2058,2092
2052,2056,2056,2045,1985,2006,2028,2094
2046,2052,2068,2046,2003,2020,2044,2093
2042,2053,2077,2054,2017,2021,2033,2096
2053,2058,2092,2071,2053,2030,2037,2103
2063,2072,2100,2099,2118,2075,2067,2103
2061,2072,2096,2119,2169,2098,2065,2087
2056,2060,2069,2089,2090,2093,2036,2074
2044,2050,2047,2027,1936,2079,2033,2054
2043,2045,2036,2018,1936,2077,2039,2045
2044,2048,2042,2026,1959,2075,2033,2043
2047,2047,2047,2039,1962,2073,2039,2041
2045,2049,2049,2043,1996,2092,2050,2041
2039,2042,2048,2053,2015,2079,2064,2050
2042,2047,2050,2070,2077,2078,2070,2048
2046,2050,2063,2087,2146,2097,2056,2043
2052,2057,2071,2081,2136,2092,2055,2033
2054,2063,2074,2083,2099,2044,2039,2037
2059,2063,2076,2082,2082,2016,2028,2035
2054,2061,2060,2068,2004,2005,2023,2025
2046,2053,2048,2050,1922,1997,2011,2012
2041,2058,2044,2042,1986,2030,2020,2019
2049,2060,2054,2064,2094,2060,2030,2027
2051,2066,2050,2071,2124,2030,2035,2036
2058,2062,2045,2071,2193,2026,2049,2039
2056,2060,2049,2074,2214,2038,2047,2037
2056,2065,2059,2075,2192,2068,2038,2042
2055,2064,2060,2085,2202,2086,2055,2042
2056,2056,2052,2086,2245,2090,2064,2043
2057,2059,2060,2084,2242,2091,2065,2043
2053,2055,2066,2068,2169,2087,2055,2052
2046,2051,2061,2049,2078,2088,2074,2065
2047,2051,2054,2030,2055,2088,2068,2075
2052,2046,2052,2026,2035,2084,2055,2078
2045,2044,2047,2035,2051,2094,2053,2075
2041,2033,2044,2034,2042,2081,2031,2061
2028,2023,2035,2006,1950,2027,2017,2056
2025,2031,2039,1992,1819,2013,2000,2061
2030,2040,2041,1998,1818,2000,1992,2054
2027,2042,2042,2024,1898,1959,2019,2060
2046,2045,2052,2047,1981,1952,2050,2071
2052,2053,2065,2075,2053,2015,2065,2080
2053,2055,2071,2085,2091,2067,2060,2068
2054,2052,2069,2061,2015,2081,2070,2056
2056,2059,2067,2049,1986,2091,2064,2049
2058,2063,2081,2068,2031,2112,2074,2052
2059,2061,2093,2086,2067,2126,2080,2047
2062,2062,2099,2092,2030,2124,2062,2049
2064,2067,2097,2096,2001,2107,2071,2041
2058,2072,2117,2111,2036,2086,2065,2041
2064,2080,2133,2128,2029,2076,2070,2048
2067,2086,2127,2125,2019,2074,2073,2042
2065,2075,2119,2147,2127,2073,2068,2038
2062,2069,2109,2166,2212,2057,2047,2030
2055,2063,2099,2169,2248,2039,2050,2024
2043,2056,2094,2188,2304,2055,2031,2016
2037,2054,2080,2202,2353,2066,2039,2016
2037,2051,2065,2194,2286,2069,2040,2021
2040,2042,2046,2137,2085,2034,2022,2017
2031,2035,2016,2045,1997,1994,2013,2015
2024,2020,1985,1993,2037,1988,1994,2021
2027,2009,1962,1961,2058,1990,1992,2022
2016,2000,1949,1906,1863,1952,2026,2040
2042,2011,1957,1939,1954,2003,2051,2072
2059,2026,1972,1971,2032,2051,2072,2088
2064,2030,1978,1972,2051,2074,2077,2087
2055,2026,1986,1981,2098,2090,2082,2088
2051,2034,2002,2008,2082,2080,2070,2075
2045,2029,2006,2013,2039,2065,2070,2060
2033,2031,2009,1997,1961,2028,2070,2064
2038,2041,2017,1992,1955,2019,2058,2057
2033,2041,2010,1981,1943,2014,2048,2049
2025,2037,2005,2001,1944,2016,2053,2038
2022,2029,2008,2006,1949,2028,2045,2046
2029,2039,2019,2004,1937,2036,2046,2044
2044,2044,2028,2001,1914,2037,2052,2040
2047,2046,2037,2015,1998,2038,2055,2040
2047,2056,2059,2034,2045,2048,2057,2034
2052,2057,2059,2039,2036,2051,2047,2031
2042,2047,2049,2040,2004,2040,2044,2031
2047,2045,2030,2039,2000,2043,2038,2027
2043,2045,2019,2059,1994,2046,2015,2018
2042,2046,2023,2088,2052,2054,2039,2012
2041,2049,2025,2096,2078,2048,2036,2013
2031,2043,2006,2085,2088,2033,2050,2005
2029,2034,2003,2102,2179,2046,2055,2012
2039,2044,2011,2120,2229,2061,2072,2019
2047,2052,2014,2107,2181,2045,2069,2024
2043,2051,2003,2085,2172,2036,2063,2028
2051,2042,1990,2060,2190,2032,2046,2028
2046,2044,1997,2052,2188,2057,2054,2045
2051,2052,1999,2066,2173,2076,2065,2047
2054,2054,2004,2038,2049,2072,2058,2047
2051,2048,1998,2002,1915,2080,2074,2050
2052,2044,2004,2021,1961,2090,2077,2052
2045,2050,2025,2036,1989,2082,2086,2057
2050,2053,2050,2033,1977,2059,2065,2064
2049,2061,2073,2019,1919,2026,2068,2073
2049,2064,2072,2020,1952,2021,2065,2079
2051,2062,2082,2031,1986,2037,2056,2079
2048,2049,2072,2010,1998,2052,2059,2075
2040,2057,2088,2024,2003,2052,2071,2087
2052,2069,2111,2032,1979,2043,2074,2083
2058,2076,2125,2056,1994,2056,2052,2078
2060,2080,2145,2087,2053,2071,2075,2082
2064,2075,2132,2094,2087,2080,2059,2073
2056,2061,2103,2076,2090,2076,2040,2072
2050,2047,2086,2044,2005,2012,2031,2062
2051,2050,2068,1987,1871,1948,2015,2039
2050,2047,2058,1961,1891,1959,2034,2040
2048,2052,2067,2042,2161,2028,2045,2032
2053,2051,2074,2097,2335,2068,2053,2017
2049,2052,2074,2108,2414,2073,2033,2012
2043,2055,2069,2100,2339,2058,2029,1996
2038,2043,2058,2064,2278,2048,2056,2004
2036,2047,2049,2048,2260,2054,2060,2003
2039,2043,2047,2020,2067,2053,2053,2014
2043,2039,2049,2025,2050,2068,2058,2021
2053,2045,2048,2048,2099,2055,2044,2018
2045,2039,2048,2041,2064,2027,2031,2012
2046,2040,2040,2024,2052,2022,2031,2020
2048,2038,2040,2015,2011,2017,2044,2014
2048,2039,2043,1992,1910,1988,2033,2017
2049,2057,2049,1987,1814,1984,2019,2025
2056,2060,2056,1988,1773,1972,2024,2027
2057,2058,2050,2005,1867,1990,2032,2036
2051,2051,2042,2028,1966,2003,2051,2045
2048,2042,2041,2032,2000,2010,2052,2038
2037,2039,2044,2040,2032,2011,2050,2045
2038,2048,2056,2052,2070,2027,2069,2051
2044,2050,2055,2060,2076,2047,2063,2063
2043,2056,2055,2053,2053,2050,2064,2074
2038,2047,2047,2044,2037,2052,2053,2077
2045,2048,2042,2046,2044,2076,2064,2089
2059,2055,2046,2045,2056,2089,2074,2091
2052,2059,2038,2042,2064,2099,2066,2077
2049,2056,2045,2043,2066,2106,2058,2069
2043,2054,2048,2040,2067,2115,2057,2059
2048,2058,2052,2041,2078,2110,2072,2052
2043,2056,2049,2045,2077,2060,2062,2039
2044,2049,2049,2050,2091,2029,2062,2030
2048,2046,2051,2056,2080,2022,2069,2030
2054,2049,2060,2072,2097,2033,2065,2035
2056,2058,2057,2083,2113,2051,2066,2023
2053,2050,2050,2074,2100,2049,2058,2030
2054,2046,2044,2065,2139,2061,2067,2030
2056,2045,2046,2070,2207,2060,2047,2024
2055,2043,2043,2050,2157,2026,2045,2015
2044,2033,2033,2024,2040,2000,2028,2009
2041,2030,2027,2006,1922,1998,2023,2008
2043,2034,2029,2006,1927,1996,2013,2005
2046,2034,2024,2026,2000,2028,2037,2013
2051,2039,2033,2059,2124,2053,2049,2024
2055,2046,2038,2079,2153,2054,2065,2016
2055,2041,2035,2065,2092,2043,2051,2021
2044,2042,2032,2043,1953,2037,2058,2029
2049,2049,2032,2048,1986,2048,2051,2033
2047,2038,2019,2050,2034,2052,2040,2039
2052,2035,2018,2053,2037,2045,2041,2046
2048,2036,2018,2054,2018,2030,2066,2050
2054,2044,2032,2057,2015,2031,2059,2062
2047,2046,2044,2064,2007,2029,2053,2066
2039,2045,2052,2071,2024,2028,2049,2067
2036,2043,2061,2085,2036,2032,2037,2066
2039,2045,2066,2090,2022,2028,2042,2076
2050,2038,2060,2077,2031,2036,2043,2081
2055,2052,2071,2073,2035,2028,2048,2073
2055,2059,2072,2079,2056,2033,2054,2069
2060,2063,2073,2081,2062,2026,2042,2058
2055,2062,2076,2080,2065,2034,2042,2051
2057,2064,2073,2060,2004,2022,2043,2050
2054,2060,2050,2041,1951,2027,2042,2040
2046,2046,2036,2016,1971,2045,2045,2023
2038,2040,2031,2015,2060,2102,2040,2019
2045,2041,2022,2021,2095,2136,2060,2024
2049,2034,2012,2002,2019,2130,2054,2022
2048,2027,2007,1986,1899,2103,2042,2018
2043,2034,2012,1990,1905,2053,2023,2013
2051,2052,2033,2036,1972,1986,2038,2028
2061,2056,2048,2047,1988,1986,2019,2014
2051,2043,2042,2027,1980,2004,2035,2009
2043,2034,2040,2038,2123,2055,2022,2017
2044,2043,2059,2072,2187,2065,2030,2020
2039,2039,2056,2062,2090,2048,2034,2011
2044,2032,2046,2056,2085,2037,2030,2005
2040,2024,2042,2057,2083,2037,2043,2015
2043,2032,2054,2076,2080,2041,2041,2023
2041,2031,2054,2074,2070,2049,2048,2031
2045,2037,2052,2070,2106,2063,2042,2030
2038,2032,2048,2060,2080,2059,2048,2031
2040,2033,2042,2044,1987,2036,2035,2039
2037,2041,2043,2038,1954,2022,2043,2050
2035,2042,2047,2021,1965,1991,2031,2066
2051,2050,2050,2023,2020,1977,2014,2071
2048,2046,2048,2029,2060,1998,2014,2078
2051,2049,2060,2057,2086,2026,2007,2082
2045,2044,2057,2059,2084,2046,2047,2080
2037,2040,2047,2048,2046,2054,2031,2066
2044,2040,2042,2031,2000,2036,2040,2058
2035,2043,2040,2033,2002,2042,2040,2054
2039,2043,2052,2049,2064,2054,2044,2055
2041,2045,2053,2051,2083,2061,2042,2049
2042,2049,2050,2058,2050,2061,2038,2045
2048,2051,2055,2064,2086,2061,2047,2036
2053,2057,2055,2069,2094,2054,2036,2028
2051,2056,2068,2072,2076,2046,2040,2023
2042,2050,2066,2078,2082,2050,2028,2029
2048,2049,2068,2089,2082,2065,2026,2028
2047,2048,2067,2088,2089,2059,2031,2024
2047,2053,2065,2075,2077,2048,2053,2029
2052,2053,2052,2056,2009,2029,2023,2020
2048,2048,2049,2056,2029,2019,2029,2004
2040,2049,2049,2062,2019,2022,2028,2010
2041,2048,2052,2057,1960,2024,2024,2009
2048,2048,2050,2037,1925,2031,2016,2015
2047,2044,2035,2029,1931,2041,2030,2011
2038,2032,2029,2024,1954,2054,2012,2010
2034,2035,2023,2020,2013,2095,2029,2019
2046,2044,2024,2046,2080,2102,2038,2032
2057,2050,2025,2066,2122,2096,2043,2051
2065,2047,2023,2068,2173,2117,2054,2054
2060,2048,2011,2077,2202,2104,2063,2060
2061,2041,2018,2101,2221,2086,2069,2068
2047,2032,2018,2114,2241,2085,2079,2070
2051,2031,2016,2118,2264,2087,2073,2066
2047,2032,2026,2129,2240,2075,2063,2065
2044,2034,2022,2112,2155,2021,2039,2060
2035,2033,2029,2101,2097,1987,2031,2061
2035,2030,2026,2082,2021,1979,2025,2060
2021,2029,2025,2059,1931,1982,2033,2059
2025,2036,2028,2053,1978,2013,2029,2057
2030,2037,2044,2060,2027,2049,2066,2067
2038,2055,2065,2047,1963,2057,2056,2070
2052,2066,2074,2036,1995,2065,2055,2058
2054,2061,2072,2025,2052,2082,2068,2052
2048,2054,2062,2004,2031,2074,2054,2049
2041,2049,2051,1983,2026,2045,2044,2038
2052,2057,2062,1991,2005,2027,2043,2036
2049,2061,2070,2012,2007,2036,2041,2041
2059,2071,2066,2027,2016,2045,2052,2036
2058,2064,2062,2034,2035,2042,2049,2026
2058,2066,2054,2044,2050,2041,2048,2025
2056,2062,2060,2055,2050,2046,2048,2026
2057,2062,2062,2055,2056,2046,2050,2010
2046,2045,2042,2045,2039,2030,2027,2004
2039,2041,2041,2034,2013,2027,2031,2017
2050,2051,2049,2045,2038,2040,2042,2021
2052,2050,2055,2065,2071,2045,2035,2027
2049,2046,2054,2076,2076,2049,2043,2023
2041,2055,2053,2072,2072,2049,2057,2032
2046,2052,2048,2070,2064,2052,2061,2036
2048,2053,2047,2074,2067,2060,2052,2040
2056,2046,2047,2062,2060,2045,2056,2042
2056,2049,2051,2057,2031,2038,2049,2037
2051,2048,2053,2043,2019,2034,2051,2046
2052,2051,2053,2034,2015,2032,2067,2062
2053,2054,2056,2018,1994,2030,2058,2075
2054,2052,2054,2021,1995,2030,2060,2083
2052,2048,2052,2027,2004,2021,2051,2082
2045,2046,2041,2031,2016,2026,2044,2075
2041,2052,2046,2037,2027,2031,2054,2076
2047,2054,2052,2037,2039,2034,2052,2084
2055,2064,2052,2041,2039,2045,2057,2076
2053,2057,2049,2044,2058,2050,2054,2063
2048,2054,2049,2065,2102,2062,2067,2055
2044,2047,2046,2073,2118,2090,2056,2052
2044,2054,2053,2092,2157,2104,2073,2056
2053,2056,2051,2102,2131,2080,2055,2047
2056,2058,2052,2078,2044,2038,2049,2048
2058,2062,2052,2058,2020,2028,2057,2041
2059,2064,2052,2067,2033,2040,2050,2042
2061,2060,2054,2068,2040,2040,2038,2026
2062,2053,2051,2064,2030,2041,2018,2021
2060,2046,2051,2058,2040,2046,2017,2007
2052,2044,2052,2060,2050,2050,2045,2004
2044,2044,2050,2052,2043,2048,2039,2004
2040,2036,2035,2030,2031,2035,2036,2006
2038,2034,2028,2011,1965,2001,2027,2016
2054,2043,2045,2042,1986,2016,2048,2030
2060,2058,2059,2077,2000,2036,2046,2035
2064,2058,2074,2094,2025,2043,2047,2037
2066,2058,2076,2108,2055,2053,2053,2031
2067,2053,2076,2113,2057,2050,2059,2028
2063,2050,2059,2104,2082,2047,2037,2024
2053,2043,2046,2104,2111,2045,2030,2009
2034,2029,2038,2096,2033,2026,2027,2014
2038,2031,2031,2099,1985,2027,2041,2033
2043,2034,2034,2099,1964,2050,2050,2048
2043,2034,2029,2081,1948,2060,2050,2064
2031,2028,2017,2082,1988,2081,2050,2066
2025,2027,2017,2087,2041,2089,2052,2055
2029,2029,2007,2072,2060,2066,2048,2065
2036,2023,2001,2048,2094,2019,2023,2063
2030,2011,1995,2021,2157,2015,2037,2062
2030,2036,2013,2044,2259,2062,2052,2070
2036,2047,2043,2055,2279,2082,2046,2068
2033,2046,2036,2015,2110,2052,2042,2049
2031,2037,2017,1977,2018,2026,2032,2039
2028,2045,2036,1989,2040,2012,2022,2040
2036,2059,2055,1995,1936,1995,2027,2034
2034,2065,2070,2009,1897,2006,2022,2031
2037,2063,2074,2020,1939,2012,2039,2023
2042,2055,2066,2033,1986,2021,2052,2024
2046,2060,2067,2039,1980,2014,2039,2019
2047,2052,2058,2035,1971,2011,2035,2014
2047,2049,2053,2038,1944,2015,2043,2021
2045,2047,2052,2047,1977,2035,2059,2018
2050,2051,2049,2047,2007,2047,2056,2027
2049,2048,2055,2041,1971,2028,2048,2012
2047,2038,2050,2039,1982,2032,2050,2014
2044,2040,2066,2065,2038,2057,2076,2021
2049,2050,2067,2074,2057,2064,2069,2019
2052,2049,2064,2065,2096,2067,2075,2029
2051,2047,2055,2058,2126,2067,2058,2027
2048,2050,2052,2059,2131,2068,2068,2032
2046,2051,2048,2055,2143,2078,2063,2024
2047,2044,2041,2049,2141,2069,2047,2026
2050,2039,2036,2049,2120,2067,2049,2033
2051,2039,2039,2062,2105,2073,2077,2045
2058,2047,2042,2065,2089,2079,2074,2058
2055,2046,2036,2044,1944,2064,2062,2065
2050,2044,2029,2027,1868,2074,2052,2068
2056,2049,2029,2053,1960,2084,2062,2072
2050,2041,2014,2053,2013,2094,2063,2074
2038,2043,2007,2051,2060,2070,2029,2071
2038,2037,2003,2050,2098,2058,2045,2067
2034,2039,2011,2045,2107,2037,2029,2063
2034,2043,2016,2041,2112,2004,2020,2058
2040,2043,2017,2046,2120,2010,2046,2048
2032,2046,2028,2053,2114,2027,2041,2040
2037,2059,2050,2055,2109,2044,2039,2045
2044,2064,2042,2059,2101,2052,2049,2044
2042,2051,2030,2060,2091,2049,2039,2033
2039,2049,2025,2055,2084,2043,2039,2032
2034,2052,2025,2053,2069,2035,2049,2027
2040,2049,2021,2046,2045,2040,2043,2023
2046,2050,2036,2047,2000,2033,2043,2022
2049,2057,2060,2055,2021,2031,2043,2013
2043,2051,2069,2058,2044,2026,2050,2009
2039,2053,2074,2063,2048,2028,2021,2007
2045,2054,2080,2080,2060,2028,2052,2006
2038,2044,2082,2086,2051,2034,2047,2005
2030,2037,2084,2096,2072,2050,2061,2017
2043,2046,2089,2100,2111,2063,2064,2024
2053,2051,2082,2106,2150,2075,2064,2023
2049,2050,2081,2092,2127,2076,2068,2018
2046,2052,2094,2070,2044,2069,2039,2024
2046,2057,2102,2074,2053,2074,2051,2028
2054,2069,2105,2079,2079,2067,2056,2037
2049,2063,2092,2075,2080,2064,2071,2041
2046,2059,2079,2063,2078,2064,2065,2045
2048,2058,2080,2051,2022,2057,2080,2045
2048,2051,2068,2037,1972,2039,2050,2049
2046,2041,2058,2026,1967,2029,2031,2050
2043,2031,2049,2029,1996,2039,2029,2054
2039,2025,2038,2019,2009,2035,2029,2057
2028,2023,2030,2020,2000,2029,2023,2056
2032,2016,2016,2013,1997,2019,2018,2058
2034,2031,2027,2017,1996,2022,2041,2065
2050,2048,2041,2036,2001,2024,2029,2064
2044,2042,2046,2045,1996,2030,2022,2063
2042,2047,2056,2061,2024,2038,2037,2052
2055,2050,2068,2074,2091,2040,2024,2044
2048,2048,2069,2090,2136,2048,2039,2042
2044,2055,2064,2091,2138,2042,2059,2030
2054,2053,2062,2083,2161,2049,2053,2026
2050,2051,2065,2077,2179,2057,2056,2029
2051,2058,2081,2079,2188,2074,2052,2030
2049,2064,2079,2077,2148,2082,2065,2022
2059,2066,2072,2061,2051,2078,2059,2020
2055,2061,2060,2049,1963,2068,2059,2018
2060,2054,2040,2042,1988,2078,2065,2017
2052,2053,2043,2039,1979,2053,2048,2004
2045,2041,2029,2025,1939,2019,2044,2000
2043,2037,2023,2019,1919,1998,2034,2001
2050,2045,2038,2017,1926,2006,2043,2003
2056,2049,2046,2026,1997,2033,2044,2007
2052,2046,2050,2035,2018,2040,2048,2008
2048,2051,2041,2034,2044,2048,2039,2021
2053,2056,2043,2049,2051,2051,2066,2026
2051,2055,2062,2068,2040,2047,2048,2026
2050,2053,2065,2070,2023,2035,2059,2032
2046,2044,2050,2063,2005,2021,2041,2029
2046,2031,2048,2054,2006,2017,2044,2031
2040,2037,2055,2064,2052,2038,2050,2041
2039,2050,2080,2086,2102,2054,2041,2056
2035,2069,2090,2093,2108,2054,2033,2063
2040,2075,2091,2084,2064,2052,2058,2070
2045,2067,2076,2079,2033,2033,2036,2067
2030,2048,2057,2053,2003,2007,2017,2065
2036,2045,2054,2044,1950,1993,2034,2073
2047,2061,2063,2043,1916,1981,2033,2074
2038,2051,2045,2021,1899,1977,2027,2052
2027,2034,2022,1988,1906,2000,2030,2043
2038,2038,2024,2011,1970,2048,2043,2054
2044,2045,2036,2043,2055,2063,2063,2048
2042,2049,2034,2055,2106,2077,2068,2045
2054,2050,2032,2065,2153,2095,2068,2037
2052,2044,2022,2050,2120,2062,2056,2031
2051,2047,2020,2043,2080,2053,2039,2024
2046,2044,2038,2055,2085,2057,2057,2017
2041,2052,2049,2063,2100,2065,2053,2016
2046,2050,2046,2071,2104,2065,2044,2009
2049,2049,2050,2077,2091,2062,2049,2007
2054,2050,2057,2076,2078,2052,2051,2006
2043,2045,2055,2077,2068,2054,2045,2014
2044,2046,2055,2082,2069,2054,2054,2017
2055,2056,2078,2103,2080,2064,2060,2021
2056,2059,2086,2105,2079,2056,2056,2026
2058,2054,2080,2098,2070,2052,2064,2028
2054,2054,2071,2090,2069,2048,2042,2025
2056,2049,2062,2085,2065,2049,2046,2024
2050,2052,2064,2084,2055,2056,2040,2029
2052,2058,2068,2077,2025,2067,2039,2034
2045,2053,2063,2063,1994,2059,2043,2034
2045,2054,2053,2056,1990,2047,2035,2037
2033,2050,2039,2044,1982,2045,2013,2041
2034,2041,2041,2039,1988,2027,2023,2052
2038,2044,2045,2039,2035,2023,2044,2064
2040,2055,2056,2044,2096,2060,2032,2069
2038,2053,2049,2027,2112,2079,2056,2063
2034,2039,2032,2012,2092,2050,2040,2073
2042,2038,2029,2006,2085,2033,2035,2082
2046,2052,2035,2014,2083,2044,2065,2080
2054,2061,2041,2019,2077,2052,2063,2075
2061,2068,2040,2021,2078,2057,2063,2075
2058,2072,2047,2028,2072,2060,2055,2064
2060,2072,2048,2036,2052,2059,2061,2063
2055,2061,2051,2037,2039,2064,2060,2060
2059,2061,2046,2040,2031,2066,2062,2048
2048,2056,2046,2046,2023,2065,2064,2042
2048,2044,2039,2055,2011,2052,2055,2026
2039,2043,2043,2061,2007,2038,2051,2020
2042,2053,2051,2057,2006,2027,2042,2022
2043,2055,2055,2056,2030,2030,2038,2017
2054,2056,2054,2057,2038,2041,2044,2020
2049,2058,2059,2056,2059,2045,2058,2017
2051,2044,2046,2041,2076,2047,2032,2003
2040,2043,2037,2034,2056,2047,2017,2006
2043,2050,2035,2032,2027,2040,2032,2008
2048,2045,2020,2024,1972,2027,2026,2007
2043,2046,2015,2026,1992,2019,2048,2024
2060,2060,2031,2058,2053,2008,2053,2034
2060,2069,2041,2071,2083,2005,2052,2038
2064,2068,2039,2062,2045,2025,2064,2043
2061,2067,2041,2063,2058,2057,2063,2046
2060,2058,2038,2075,2058,2068,2047,2037
2045,2052,2041,2086,2089,2074,2063,2036
2040,2042,2033,2090,2099,2070,2050,2034
2039,2040,2034,2090,2113,2069,2055,2041
2036,2040,2044,2092,2124,2060,2042,2060
2044,2044,2046,2073,2134,2045,2042,2067
2046,2048,2051,2057,2137,2036,2046,2073
2048,2047,2040,2051,2104,2027,2035,2071
2041,2050,2040,2048,2064,2029,2019,2076
2046,2051,2054,2053,2049,2034,2044,2079
2047,2060,2070,2064,2064,2048,2042,2075
2047,2057,2065,2064,2083,2060,2050,2064
2041,2051,2056,2067,2081,2059,2051,2061
2047,2051,2055,2066,2056,2047,2047,2052
2046,2054,2064,2061,2031,2026,2052,2041
2048,2059,2077,2075,2030,2047,2050,2033
2046,2064,2085,2080,2010,2068,2048,2024
2043,2065,2086,2077,2012,2083,2054,2023
2051,2062,2085,2080,2036,2086,2047,2020
2044,2057,2074,2068,2050,2057,2030,2013
2042,2055,2074,2081,2087,2021,2043,2025
2046,2060,2074,2097,2149,2016,2054,2026
2043,2062,2076,2100,2133,2042,2067,2024
2052,2066,2063,2092,2128,2044,2054,2015
2042,2064,2049,2069,2138,2051,2025,2024
2048,2057,2052,2031,2102,2042,2040,2026
2054,2056,2046,1985,2003,2023,2050,2018
2045,2053,2034,1969,1916,2010,2039,2022
2044,2053,2043,1988,1962,2024,2046,2018
2041,2055,2042,2012,2013,2038,2052,2025
2049,2064,2054,2041,2058,2047,2049,2027
2048,2058,2053,2040,2026,2040,2045,2026
2043,2052,2049,2033,2037,2051,2061,2038
2041,2062,2058,2084,2165,2083,2046,2051
2048,2065,2062,2093,2169,2086,2058,2055
2044,2066,2061,2088,2155,2080,2043,2054
2040,2064,2054,2076,2159,2082,2051,2059
2043,2053,2049,2080,2152,2080,2060,2064
2036,2051,2049,2095,2177,2080,2065,2070
2038,2054,2050,2099,2155,2041,2034,2077
2039,2051,2056,2076,2056,2020,2020,2085
2049,2065,2060,2043,1913,2016,2029,2081
2052,2067,2049,2021,1811,2007,2013,2065
2039,2053,2041,2018,1873,2031,2026,2060
2031,2044,2034,2034,1969,2052,2027,2046
2035,2043,2036,2036,2025,2057,2032,2051
2036,2044,2040,2040,2060,2060,2040,2044
2043,2047,2047,2048,2095,2060,2035,2042
2047,2044,2046,2048,2084,2066,2039,2031
2042,2041,2036,2042,2065,2074,2042,2022
2041,2040,2036,2041,2038,2076,2056,2024
2044,2054,2046,2044,2041,2081,2054,2026
2052,2055,2045,2041,2030,2060,2034,2027
2059,2063,2043,2038,2017,2006,2027,2027
2052,2058,2050,2037,2017,1994,2023,2019
2049,2051,2045,2038,2031,2017,2021,2017
2045,2050,2046,2056,2050,2039,2024,2015
2039,2053,2051,2065,2052,2055,2028,2016
2039,2055,2054,2059,2052,2058,2039,2013
2047,2050,2055,2056,2045,2062,2033,2017
2043,2053,2042,2058,2059,2069,2047,2028
2044,2051,2044,2065,2074,2080,2056,2029
2042,2052,2063,2075,2095,2089,2066,2034
2049,2061,2069,2085,2088,2079,2045,2043
2050,2060,2069,2085,2083,2069,2034,2055
2045,2060,2069,2079,2048,2067,2047,2051
2046,2050,2058,2065,1989,2035,2026,2048
2038,2045,2049,2047,1942,2025,2013,2047
2038,2042,2043,2044,1950,2029,2033,2062
2040,2049,2043,2049,1949,1987,2018,2070
2044,2053,2047,2070,2020,1964,2040,2084
2049,2056,2042,2081,2081,2007,2042,2083
2034,2040,2021,2075,2080,2030,2022,2073
2031,2035,2019,2068,2080,2058,2036,2072
2044,2053,2023,2069,2081,2056,2038,2072
2044,2052,2036,2071,2082,2053,2039,2076
2056,2061,2042,2063,2076,2041,2050,2068
2056,2060,2046,2049,2068,2037,2040,2061
2055,2058,2042,2048,2053,2034,2033,2052
2052,2059,2041,2048,2040,2027,2035,2044
2051,2053,2033,2037,2034,2025,2028,2032
2043,2057,2039,2050,2062,2044,2051,2026
2047,2061,2048,2051,2050,2046,2044,2023
2041,2061,2041,2044,1993,2044,2041,2022
2037,2050,2028,2053,2020,2043,2033,2011
2035,2044,2034,2056,2032,2045,2042,2002
2040,2048,2040,2055,2043,2057,2049,2008
2039,2049,2038,2049,2046,2052,2032,2002
2030,2040,2035,2052,2060,2058,2031,2010
2030,2037,2045,2053,2065,2058,2045,2013
2042,2044,2048,2058,2062,2055,2047,2009
2041,2034,2045,2043,2033,2045,2027,2015
2046,2036,2040,2027,2017,2041,2026,2018
2050,2044,2036,2025,2004,2033,2038,2015
2047,2044,2033,2021,2015,2033,2042,2016
2039,2041,2039,2041,2032,2041,2040,2024
2039,2043,2049,2061,2066,2053,2057,2030
2042,2047,2048,2076,2091,2079,2058,2052
2040,2046,2044,2075,2107,2094,2058,2061
2053,2042,2042,2070,2090,2088,2053,2061
2045,2038,2040,2062,2064,2067,2035,2064
2039,2047,2040,2057,2057,2061,2032,2068
2040,2047,2039,2060,2047,2059,2027,2071
2038,2057,2040,2054,2041,2055,2019,2075
2045,2053,2038,2056,2038,2056,2037,2080
2056,2057,2053,2066,2044,2056,2042,2086
2061,2069,2048,2062,2035,2049,2047,2081
2056,2063,2044,2065,2038,2036,2037,2076
2051,2056,2043,2065,2030,2035,2041,2067
2055,2058,2047,2072,2035,2038,2046,2060
2055,2061,2047,2068,2035,2034,2018,2044
2048,2056,2037,2060,2029,2032,2029,2037
2051,2043,2033,2057,2039,2022,2007,2027
2050,2050,2042,2062,2048,2027,2020,2034
2055,2055,2049,2062,2043,2036,2048,2039
2066,2062,2052,2064,2046,2036,2041,2036
2064,2067,2055,2062,2040,2034,2030,2033
2058,2067,2052,2058,2039,2026,2035,2020
2054,2057,2049,2051,2025,2027,2045,2012
2043,2053,2042,2048,2028,2026,2035,2008
2033,2044,2038,2043,2035,2036,2042,2011
2040,2040,2041,2048,2049,2041,2052,2025
2045,2054,2051,2035,2050,2053,2063,2029
2048,2053,2061,2036,2035,2062,2049,2023
2054,2059,2066,2031,2032,2064,2064,2031
2052,2069,2075,2036,2025,2066,2049,2038
2056,2068,2080,2028,2022,2078,2052,2037
2051,2066,2075,2027,2021,2085,2058,2049
2055,2066,2065,2031,2034,2095,2062,2056
2053,2061,2063,2042,2059,2100,2061,2059
2051,2060,2063,2044,2043,2085,2080,2064
2052,2067,2070,2051,2044,2096,2078,2072
2060,2065,2062,2060,2054,2072,2071,2081
2065,2064,2060,2058,2058,2026,2073,2085
2061,2062,2056,2054,2045,2014,2071,2082
2063,2056,2048,2043,2016,2011,2047,2075
2043,2032,2034,2031,1984,2029,2025,2064
2037,2034,2036,2040,1987,2046,2026,2058
2034,2039,2043,2051,2015,2044,2033,2054
2029,2036,2050,2045,2011,2042,2041,2044
2038,2040,2050,2052,2041,2034,2031,2047
2042,2041,2057,2069,2062,2024,2040,2056
2045,2043,2057,2077,2078,2035,2032,2046
2044,2039,2061,2073,2070,2032,2025,2041
2052,2036,2049,2053,2029,2024,2053,2035
2054,2039,2047,2043,2025,2024,2033,2038
2061,2047,2054,2052,2034,2031,2044,2032
2057,2051,2054,2054,2024,2026,2044,2028
2058,2042,2058,2061,2023,2025,2047,2023
2056,2053,2061,2064,2028,2028,2038,2021
2060,2050,2064,2079,2042,2040,2047,2024
2060,2050,2062,2084,2055,2030,2037,2021
2053,2039,2055,2074,2053,2021,2042,2023
2038,2030,2040,2066,2063,2024,2039,2018
2044,2040,2047,2070,2082,2033,2059,2016
2048,2037,2045,2073,2080,2035,2032,2013
2044,2045,2046,2073,2049,2052,2019,2020
2051,2056,2040,2070,2035,2062,2028,2019
2050,2050,2034,2062,2021,2067,2017,2017
2044,2039,2022,2058,2021,2066,2036,2021
2046,2040,2021,2057,2030,2053,2035,2035
2050,2037,2017,2049,2050,2027,2043,2050
2050,2034,2008,2037,2075,2029,2054,2062
2049,2033,2007,2022,2061,2032,2052,2064
2043,2025,2011,2009,2036,2028,2044,2070
2039,2023,2009,1998,2019,2026,2043,2076
2045,2041,2016,2012,2055,2035,2059,2081
2051,2041,2023,2027,2082,2048,2039,2077
2050,2044,2037,2044,2099,2061,2059,2084
2048,2050,2046,2055,2098,2060,2056,2086
2058,2060,2055,2056,2077,2060,2039,2084
2059,2053,2054,2046,2044,2045,2058,2081
2056,2043,2037,2028,2024,2037,2040,2070
2044,2038,2040,2018,2006,2031,2038,2064
2042,2047,2050,2028,1989,2042,2062,2060
2050,2052,2065,2037,2009,2052,2044,2052
2051,2048,2062,2033,2021,2053,2041,2046
2045,2046,2064,2038,2038,2054,2028,2037
2047,2049,2073,2040,2053,2051,2042,2032
2050,2050,2064,2040,2042,2049,2026,2032
2052,2050,2063,2036,2046,2046,2022,2023
2044,2051,2054,2040,2049,2052,2060,2018
2051,2050,2045,2045,2047,2045,2051,2019
2046,2054,2058,2047,2033,2048,2041,2022
2048,2050,2052,2048,2021,2043,2049,2014
2053,2054,2054,2038,2004,2051,2060,2018
2058,2061,2060,2050,2001,2056,2064,2017
2057,2058,2059,2051,2004,2052,2037,2017
2059,2058,2060,2052,2022,2047,2053,2021
2058,2049,2052,2039,2008,2034,2050,2025
2055,2044,2051,2035,2004,2030,2046,2033
2048,2047,2053,2044,2049,2054,2055,2044
2052,2058,2047,2053,2067,2055,2052,2046
2056,2050,2049,2050,2076,2046,2044,2056
2054,2053,2051,2049,2089,2048,2049,2068
2057,2057,2049,2053,2092,2045,2034,2069
2050,2050,2045,2052,2082,2055,2062,2068
2041,2050,2045,2044,2046,2068,2057,2070
2046,2044,2045,2042,2012,2068,2060,2080
2045,2046,2045,2036,1998,2062,2045,2081
2048,2049,2036,2029,1987,2048,2031,2074
2035,2039,2033,2028,1992,2016,2040,2085
2045,2050,2047,2052,2040,2006,2054,2095
2047,2047,2052,2064,2079,2032,2073,2088
2053,2058,2052,2059,2084,2061,2057,2071
2055,2056,2051,2060,2091,2076,2061,2062
2053,2047,2048,2054,2069,2071,2053,2061
2050,2050,2050,2049,2055,2056,2036,2052
2055,2053,2050,2050,2050,2060,2030,2041
2055,2055,2058,2050,2048,2066,2029,2040
2053,2057,2050,2051,2043,2058,2033,2033
2048,2051,2041,2049,2041,2037,2027,2024
2045,2046,2040,2045,2037,2029,2025,2025
2047,2045,2036,2047,2038,2039,2033,2018
2046,2049,2039,2048,2047,2050,2045,2015
2050,2048,2033,2043,2040,2053,2051,2009
2047,2036,2027,2041,2036,2043,2032,2007
2037,2035,2023,2038,2030,2044,2037,2010
2037,2044,2028,2045,2036,2049,2044,2014
2046,2049,2025,2042,2029,2047,2039,2014
2048,2052,2035,2044,2035,2042,2044,2024
2056,2050,2028,2050,2027,2043,2056,2029
2051,2053,2034,2047,2031,2040,2050,2032
2044,2056,2037,2047,2044,2049,2049,2035
2055,2060,2035,2049,2055,2055,2030,2043
2052,2049,2038,2049,2056,2063,2062,2052
2055,2046,2039,2041,2062,2067,2061,2045
2049,2048,2034,2045,2097,2065,2056,2062
2046,2037,2033,2045,2088,2064,2040,2066
2041,2033,2038,2038,2077,2058,2028,2063
2039,2039,2043,2042,2068,2055,2046,2070
2037,2036,2041,2050,2047,2048,2038,2075
2027,2032,2040,2039,2027,2037,2018,2078
2025,2034,2044,2047,2049,2044,2039,2084
2039,2052,2047,2051,2090,2053,2049,2083
2040,2047,2046,2044,2072,2058,2049,2075
2035,2044,2051,2037,2044,2057,2047,2067
2040,2047,2059,2038,2074,2054,2043,2068
2048,2050,2056,2041,2081,2057,2033,2062
2045,2048,2054,2043,2085,2055,2023,2048
2042,2041,2054,2052,2073,2054,2048,2050
2038,2043,2039,2045,1991,2039,2038,2037
2037,2040,2040,2037,1928,2030,2035,2033
2038,2042,2046,2039,1969,2034,2026,2034
2039,2043,2051,2042,1996,2029,2037,2038
2051,2049,2051,2051,2004,2037,2030,2033
2049,2050,2050,2054,2011,2037,2026,2023
2041,2043,2040,2034,1998,2040,2016,2009
2030,2027,2031,2014,1955,2042,2013,2004
2026,2025,2028,2006,1934,2056,2021,2009
2038,2034,2028,2002,1936,2078,2027,2011
2035,2027,2033,2008,1976,2088,2045,2026
2053,2051,2056,2056,2046,2061,2058,2054
2071,2067,2064,2085,2090,2054,2077,2056
2064,2062,2059,2074,2103,2093,2082,2047
2066,2054,2057,2067,2114,2094,2074,2051
2061,2050,2054,2065,2097,2085,2065,2052
2056,2051,2056,2061,2074,2068,2072,2059
2062,2044,2050,2058,2074,2063,2035,2059
2056,2043,2048,2052,2065,2061,2042,2065
2050,2039,2044,2055,2060,2059,2052,2072
2046,2044,2047,2052,2045,2060,2056,2080
2054,2048,2051,2042,2050,2029,2051,2087
2058,2051,2049,2038,2063,2004,2035,2079
2054,2043,2044,2044,2061,2006,2026,2077
2048,2041,2042,2042,2051,2028,2052,2081
2053,2041,2044,2045,2053,2040,2046,2079
2051,2041,2046,2043,2049,2053,2050,2080
2051,2039,2042,2041,2039,2049,2033,2076
2058,2040,2038,2035,2042,2046,2037,2072
2046,2040,2041,2039,2037,2039,2044,2062
2049,2045,2042,2037,2033,2035,2038,2053
2052,2047,2051,2042,2037,2035,2018,2058
2056,2055,2051,2042,2038,2049,2022,2044
2052,2048,2042,2038,2036,2065,2059,2035
2053,2053,2043,2037,2037,2072,2069,2036
2044,2047,2042,2034,2038,2070,2043,2028
2038,2048,2040,2033,2033,2060,2051,2030
2045,2044,2048,2032,2011,2047,2022,2026
2042,2037,2040,2024,1967,2041,2019,2019
2039,2029,2032,2010,1950,2035,2022,2011
2036,2029,2021,2007,1943,2032,2025,2016
2046,2039,2031,2018,1971,1995,2040,2034
2051,2042,2041,2034,2024,1990,2031,2039
2055,2044,2034,2029,2030,2021,2027,2039
2047,2042,2032,2023,2013,2047,2050,2036
2044,2036,2024,2013,2009,2061,2041,2028
2044,2037,2025,2012,2026,2091,2049,2040
2045,2039,2040,2043,2082,2094,2065,2063
2059,2056,2059,2074,2144,2077,2099,2079
2060,2058,2062,2079,2153,2084,2100,2080
2051,2056,2059,2067,2121,2067,2085,2077
2053,2041,2048,2054,2092,2040,2075,2078
2050,2043,2050,2054,2070,2037,2065,2083
2040,2045,2048,2047,2064,2038,2068,2097
2052,2045,2049,2046,2058,2038,2070,2089
2048,2037,2045,2039,2050,2037,2032,2090
2049,2035,2037,2038,2046,2045,2052,2094
2056,2043,2043,2041,2046,2049,2060,2091
2060,2041,2035,2031,2035,2049,2060,2085
2060,2039,2041,2029,2031,2049,2076,2084
2048,2036,2033,2026,2036,2045,2053,2072
2059,2041,2038,2026,2037,2058,2052,2061
2051,2036,2035,2032,2049,2068,2068,2047
2046,2032,2037,2033,2051,2074,2079,2042
2043,2033,2040,2040,2063,2075,2067,2036
2049,2038,2044,2043,2059,2075,2073,2039
2046,2040,2047,2049,2059,2074,2075,2036
2057,2042,2047,2044,2059,2062,2046,2034
2059,2042,2043,2045,2061,2075,2046,2027
2053,2039,2042,2045,2070,2076,2050,2023
2049,2036,2042,2044,2062,2072,2040,2005
2038,2022,2025,2039,2049,2073,2014,2007
2037,2022,2026,2027,2044,2069,2010,2012
2046,2037,2038,2036,2027,2039,2032,2009
2046,2032,2045,2033,2017,1981,2022,2020
2049,2039,2048,2047,2023,1975,2035,2026
2044,2038,2047,2043,2047,2000,2031,2023
2040,2033,2046,2043,2050,2016,2039,2024
2042,2034,2050,2050,2043,2021,2035,2034
2046,2045,2052,2043,2038,2021,2049,2042
2048,2050,2051,2039,2039,2025,2037,2042
2047,2047,2051,2042,2034,2029,2028,2049
2040,2043,2048,2044,2042,2026,2046,2058
2043,2046,2041,2034,2041,2025,2040,2064
2042,2048,2044,2038,2039,2021,2035,2066
2043,2047,2050,2044,2041,2029,2050,2077
2042,2048,2052,2040,2047,2028,2049,2075
2044,2040,2046,2038,2047,2027,2039,2076
2041,2040,2038,2039,2039,2029,2051,2080
2051,2048,2047,2037,2038,2032,2047,2078
2051,2045,2040,2036,2038,2040,2047,2077
2046,2039,2040,2034,2007,2041,2057,2071
2046,2039,2038,2036,2019,2045,2075,2059
2044,2038,2038,2036,2008,2052,2068,2062
2051,2039,2045,2041,1986,2049,2076,2062
2048,2047,2046,2044,1963,2040,2054,2058
2047,2049,2047,2041,1965,2025,2028,2036
2052,2047,2040,2042,1991,2032,2046,2034
2048,2040,2046,2043,2010,2053,2033,2022
2049,2043,2039,2025,2004,2075,2052,2023
2046,2037,2037,2023,2050,2110,2059,2016
2049,2039,2039,2027,2053,2113,2050,2020
2052,2043,2042,2023,2048,2105,2031,2019
2046,2039,2034,2028,2063,2074,2049,2023
2054,2039,2040,2051,2123,2075,2073,2038
2064,2047,2052,2052,2073,2086,2079,2044
2075,2048,2060,2031,1984,2068,2057,2049
2062,2046,2054,2013,1954,2043,2062,2047
2060,2050,2053,2029,1987,2048,2087,2050
2061,2048,2051,2053,2085,2070,2076,2049
2053,2048,2051,2069,2149,2064,2050,2048
2048,2042,2043,2066,2134,2052,2047,2048
2034,2042,2038,2061,2128,2043,2022,2055
2034,2042,2040,2045,2123,2027,2024,2062
2043,2046,2044,2037,2068,1993,2036,2074
2051,2060,2049,2046,2040,2000,2046,2080
2056,2058,2048,2053,2038,2038,2047,2081
2054,2052,2049,2052,2054,2061,2058,2078
2045,2042,2051,2055,2076,2070,2048,2081
2041,2039,2042,2052,2073,2055,2056,2086
2045,2040,2041,2047,2067,2044,2052,2088
2050,2037,2040,2045,2055,2036,2031,2086
2052,2035,2040,2042,2053,2026,2023,2078
2054,2039,2039,2041,2050,2020,2017,2078
2052,2042,2043,2040,2046,2023,2008,2069
2054,2042,2042,2039,2029,2025,2021,2056
2047,2039,2045,2036,2034,2031,2021,2054
2052,2043,2043,2038,2036,2020,2016,2051
2058,2043,2042,2040,2036,2017,2001,2046
2059,2044,2039,2043,2039,2020,2000,2036
2048,2037,2043,2045,2046,2029,1997,2032
2051,2044,2039,2034,2038,2034,1985,2021
2045,2033,2036,2030,2017,2037,2002,2009
2042,2031,2030,2024,2016,2023,1991,2013
2040,2033,2032,2026,2018,2005,2000,2009
2037,2026,2031,2020,2014,2007,2020,2002
2035,2024,2035,2028,2026,2022,2049,2005
2044,2040,2045,2030,2030,2035,2051,2011
2055,2044,2046,2038,2037,2031,2060,2012
2053,2050,2053,2047,2048,2055,2058,2022
2047,2036,2051,2046,2052,2077,2073,2030
2045,2040,2042,2042,2048,2069,2080,2030
2049,2038,2046,2045,2040,2062,2063,2049
2051,2035,2046,2048,2045,2063,2046,2056
2054,2038,2044,2052,2047,2066,2063,2062
2052,2038,2046,2050,2040,2071,2043,2073
2052,2036,2047,2048,2035,2076,2061,2085
2055,2041,2044,2044,2037,2080,2060,2087
2058,2038,2049,2047,2021,2077,2053,2089
2052,2035,2044,2039,2016,2067,2066,2084
2041,2030,2042,2032,2014,2066,2050,2074
2028,2026,2033,2028,1992,2077,2058,2076
2029,2029,2031,2032,1973,2080,2047,2073
2043,2034,2043,2025,1959,2078,2055,2069
2042,2036,2042,2019,1963,2064,2041,2060
2044,2041,2043,2024,1997,2013,2044,2057
2050,2042,2050,2042,2059,1973,2053,2066
2049,2049,2050,2055,2099,2003,2063,2059
2052,2052,2060,2059,2106,2053,2063,2059
2054,2052,2050,2058,2106,2074,2062,2049
2058,2050,2052,2053,2092,2065,2058,2042
2049,2048,2050,2050,2075,2057,2080,2038
2046,2041,2043,2047,2055,2036,2049,2036
2035,2039,2037,2035,2057,2026,2020,2028
2037,2035,2038,2039,2104,2027,2038,2026
2046,2035,2037,2045,2120,2019,2056,2034
2050,2035,2036,2041,2110,2008,2044,2024
2041,2022,2031,2035,2112,2027,2045,2027
2041,2026,2042,2043,2106,2031,2058,2033
2049,2041,2049,2054,2099,2040,2068,2036
2049,2040,2045,2052,2078,2034,2050,2038
2049,2039,2047,2048,2034,2015,2032,2029
2042,2036,2043,2030,1915,1987,2020,2023
2039,2034,2037,2021,1919,1964,2003,2033
2039,2036,2039,2032,1969,1965,2007,2029
2034,2034,2034,2036,1996,1954,2014,2036
2041,2039,2035,2034,2019,1950,2024,2042
2038,2041,2036,2034,2026,1920,2019,2044
2049,2047,2036,2039,2035,1912,2012,2057
2052,2047,2043,2043,2034,1939,2031,2065
2044,2045,2049,2042,2037,2021,2050,2070
2040,2045,2044,2040,2047,2094,2077,2074
2036,2041,2041,2035,2050,2147,2075,2078
2031,2029,2031,2033,2045,2180,2056,2075
2029,2034,2040,2038,2037,2159,2042,2078
2039,2044,2040,2036,2030,2172,2075,2073
2042,2048,2043,2038,2031,2184,2075,2061
2041,2052,2041,2036,2034,2191,2064,2063
2047,2057,2047,2043,2048,2152,2069,2058
2052,2057,2050,2047,2044,2060,2058,2052
2057,2061,2056,2046,2043,2035,2042,2050
2051,2068,2052,2043,2041,2053,2022,2037
2051,2056,2050,2044,2037,2065,2053,2037
2048,2057,2049,2035,2040,2061,2051,2032
2048,2051,2048,2036,2041,2071,2053,2041
2048,2051,2048,2039,2043,2083,2065,2045
2053,2054,2048,2040,2047,2091,2062,2036
2051,2053,2050,2044,2047,2097,2060,2044
2057,2056,2052,2043,2051,2086,2057,2047
2048,2050,2043,2040,2045,2044,2060,2050
2052,2046,2038,2045,2049,2020,2050,2053
2056,2052,2044,2048,2050,2008,2050,2054
2056,2042,2044,2042,2040,1998,2068,2061
2056,2051,2044,2035,2037,2007,2068,2065
2060,2048,2047,2037,2029,2017,2062,2067
2057,2051,2046,2041,2042,2024,2057,2069
2052,2050,2043,2046,2056,2036,2056,2055
2050,2056,2049,2053,2063,2051,2055,2063
2050,2056,2053,2061,2083,2068,2085,2074
2056,2061,2058,2065,2089,2073,2080,2080
2053,2061,2056,2064,2086,2075,2089,2084
2047,2050,2049,2053,2071,2079,2074,2094
2046,2042,2043,2045,2056,2089,2082,2094
2046,2041,2044,2037,2041,2069,2087,2100
2049,2039,2044,2032,2030,2026,2061,2100
2040,2032,2036,2036,2033,2036,2060,2090
2031,2033,2038,2039,2051,2058,2065,2088
2043,2044,2045,2051,2049,2073,2067,2083
2039,2043,2044,2046,2034,2084,2087,2081
2035,2039,2041,2036,2034,2113,2085,2066
2032,2035,2037,2026,2032,2114,2081,2056
2029,2033,2038,2034,2040,2129,2091,2051
2035,2039,2037,2029,2037,2119,2090,2049
2035,2039,2042,2029,2041,2094,2061,2043
2038,2040,2040,2034,2031,2054,2017,2030
2036,2044,2047,2031,2019,1982,1986,2023
2038,2047,2043,2036,2024,2000,2003,2027
2042,2051,2046,2036,2026,1987,2005,2030
2048,2047,2043,2035,2034,1982,2028,2025
2041,2040,2042,2038,2034,2011,2033,2020
2033,2038,2038,2042,2043,2034,2037,2012
2032,2022,2035,2036,2040,2060,2031,2012
2027,2018,2031,2039,2042,2074,2049,2016
2036,2031,2042,2046,2045,2081,2044,2021
2038,2037,2040,2042,2055,2088,2053,2018
2027,2041,2046,2042,2057,2089,2057,2016
2032,2046,2053,2045,2051,2063,2018,2019
2036,2047,2050,2042,2043,2021,2025,2011
2026,2045,2050,2040,2041,2012,1999,2011
2021,2044,2057,2042,2041,2015,1998,2006
2029,2044,2052,2044,2040,2023,2000,2020
2032,2050,2052,2043,2044,2014,1969,2025
2030,2042,2052,2045,2036,2009,2011,2037
2027,2040,2050,2039,2046,2018,2035,2052
2028,2039,2048,2041,2045,2021,2034,2060
2028,2039,2049,2041,2048,2026,2057,2074
2033,2038,2048,2043,2044,2022,2055,2081
2035,2032,2044,2028,2043,2024,2041,2085
2037,2036,2043,2036,2047,2022,2055,2099
2052,2041,2050,2037,2036,2006,2055,2096
2055,2047,2053,2039,2044,1998,2056,2096
2055,2052,2047,2040,2041,2008,2039,2093
2056,2052,2047,2039,2038,2022,2051,2094
2062,2049,2057,2041,2049,2045,2064,2084
2058,2054,2050,2045,2048,2068,2059,2075
2061,2054,2052,2050,2050,2098,2070,2066
2056,2053,2053,2053,2063,2138,2070,2057
2057,2057,2057,2058,2068,2158,2073,2049
2055,2053,2054,2055,2058,2139,2072,2045
2046,2050,2050,2047,2036,2004,2039,2022
2032,2044,2053,2045,2006,1890,2017,2011
2020,2038,2038,2021,1975,1877,1996,1997
2011,2027,2031,2023,1977,1913,2017,1992
2005,2026,2027,2024,1990,1966,2032,1992
2005,2021,2031,2024,2001,2043,2064,1988
2008,2030,2043,2035,2044,2110,2072,1999
2012,2035,2054,2042,2059,2154,2086,2004
2021,2038,2051,2047,2064,2196,2089,2002
2024,2037,2056,2043,2058,2213,2080,2007
2036,2047,2061,2045,2059,2163,2074,2027
2048,2057,2066,2059,2081,2151,2086,2045
2066,2068,2079,2079,2090,2102,2078,2054
2064,2065,2078,2089,2088,2034,2058,2060
2061,2062,2073,2075,2068,1955,2057,2076
2057,2058,2062,2055,2039,1974,2072,2083
2060,2053,2053,2054,2040,2059,2102,2105
2056,2046,2051,2046,2038,2100,2084,2109
2048,2033,2034,2025,2020,2105,2051,2115
2046,2031,2032,2028,2029,2068,2060,2128
2045,2035,2044,2054,2069,2055,2061,2118
2047,2032,2041,2054,2073,2051,2053,2109
2038,2030,2042,2042,2057,2039,2042,2090
2041,2031,2042,2041,2059,2070,2032,2076
2033,2036,2041,2038,2049,2094,2044,2062
2021,2037,2050,2038,2061,2120,2072,2041
2013,2043,2055,2044,2066,2096,2060,2015
1997,2044,2058,2050,2061,2060,2062,1993
1983,2045,2060,2045,2055,2061,2054,1947
1969,2039,2054,2041,2052,2058,2029,1912
1951,2040,2050,2041,2047,2075,2017,1889
1947,2037,2052,2040,2050,2065,1991,1859
1939,2038,2055,2039,2046,2022,1989,1840
1933,2038,2048,2044,2042,2020,2002,1833
1931,2033,2045,2039,2054,2060,2016,1837
1947,2026,2041,2041,2060,2109,2039,1870
1966,2026,2038,2032,2056,2144,2070,1893
1973,2015,2030,2027,2033,2124,2060,1914
1973,2013,2030,2029,2041,2103,2051,1927
1984,2026,2050,2045,2044,2068,2042,1951
2004,2039,2056,2054,2060,2050,2032,1956
2028,2044,2059,2053,2049,2028,2017,1972
2046,2054,2056,2045,2043,2003,2018,1977
2042,2053,2056,2049,2036,2004,2010,1993
2052,2057,2056,2052,2037,2013,2025,2028
2075,2060,2053,2043,2049,2028,2026,2066
2079,2054,2045,2039,2044,2054,2047,2098
2083,2049,2045,2034,2044,2076,2061,2120
2086,2051,2042,2048,2033,2098,2093,2133
2085,2050,2047,2039,2040,2129,2102,2133
2074,2050,2050,2037,2043,2134,2094,2111
2052,2054,2056,2039,2053,2103,2107,2096
2036,2060,2059,2046,2062,2143,2110,2087
2031,2054,2054,2049,2055,2192,2104,2069
2015,2035,2044,2032,2022,2243,2088,2055
2012,2039,2039,2016,1981,2221,2100,2071
2021,2048,2050,2004,1950,2100,2100,2080
2036,2052,2051,2008,1941,2046,2077,2097
2045,2061,2055,2018,1969,2046,2078,2094
2049,2055,2064,2038,2018,2012,2072,2100
2061,2057,2058,2040,2049,2040,2050,2081
2056,2051,2058,2046,2060,2063,2037,2068
2057,2043,2054,2045,2075,2071,2039,2050
2057,2048,2056,2047,2067,2007,2008,2041
2058,2048,2056,2050,2080,1961,2049,2045
2060,2057,2060,2054,2093,1978,2070,2048
2061,2056,2062,2064,2093,2013,2066,2039
2053,2057,2065,2058,2096,2100,2077,2019
2042,2055,2059,2058,2088,2094,2034,2020
2047,2050,2061,2057,2072,2054,2014,2034
2040,2045,2052,2042,2039,1917,1973,2030
2037,2035,2049,2036,2030,1900,1991,2040
2035,2043,2047,2039,2046,1967,2019,2061
2049,2045,2045,2034,2050,2009,2019,2060
2045,2042,2043,2032,2044,2021,2044,2045
2042,2035,2039,2038,2045,2018,2030,2044
2041,2039,2043,2040,2039,2007,2033,2058
2039,2043,2046,2042,2045,2013,2051,2048
2043,2045,2058,2043,2042,2020,2044,2045
2040,2054,2060,2044,2039,2017,2040,2028
2044,2053,2060,2045,2018,2031,2065,2030
2043,2053,2060,2050,2044,2043,2068,2043
2044,2055,2062,2053,2052,2039,2068,2047
2049,2047,2061,2052,2055,2033,2049,2053
2042,2050,2069,2055,2052,2011,2062,2056
2037,2044,2056,2044,2017,1990,2038,2058
2030,2034,2052,2043,2023,1998,2036,2061
2021,2025,2044,2033,2040,2000,2025,2052
2014,2027,2037,2026,2030,2004,2000,2055
2018,2028,2040,2023,2052,2012,2007,2067
2030,2032,2041,2043,2088,2038,2016,2073
2041,2035,2042,2047,2080,2066,2041,2059
2042,2039,2043,2040,2061,2090,2031,2054
2036,2041,2038,2037,2027,2123,2027,2055
2031,2034,2037,2033,2009,2132,2036,2042
2029,2033,2035,2029,2014,2119,2037,2038
2040,2033,2038,2027,2026,2072,2055,2051
2050,2039,2037,2037,2035,2019,2058,2063
2056,2039,2038,2033,2036,2013,2055,2056
2051,2042,2037,2034,2048,2039,2060,2047
2057,2044,2035,2028,2066,2039,2052,2039
2057,2050,2039,2036,2064,2031,2055,2040
2061,2048,2038,2037,2066,2017,2072,2040
2059,2043,2034,2031,2049,2003,2032,2030
2050,2040,2040,2034,2042,2000,2045,2019
2057,2044,2045,2039,2046,2018,2053,2026
2061,2052,2043,2045,2051,2026,2048,2032
2072,2054,2053,2044,2052,2036,2056,2024
2071,2072,2056,2044,2053,2034,2072,2031
2075,2079,2060,2042,2050,2029,2068,2031
2072,2080,2062,2041,2053,2026,2051,2028
2063,2076,2062,2037,2049,2032,2066,2029
2057,2072,2065,2036,2050,2048,2049,2036
2055,2066,2068,2042,2043,2060,2041,2035
2055,2063,2065,2049,2056,2073,2046,2043
2057,2073,2072,2051,2061,2065,2074,2051
2058,2065,2066,2047,2069,2080,2081,2066
2051,2058,2060,2045,2068,2084,2073,2063
2053,2047,2060,2044,2055,2064,2076,2075
2044,2048,2057,2038,2045,2047,2047,2070
2044,2038,2056,2031,2049,2049,2046,2073
2047,2037,2053,2028,2046,2054,2052,2078
2056,2045,2060,2036,2046,2058,2049,2080
2061,2047,2057,2043,2047,2061,2039,2078
2062,2044,2055,2039,2040,2054,2054,2064
2059,2045,2056,2039,2042,2045,2041,2055
2063,2046,2055,2039,2041,2027,2026,2045
2057,2047,2057,2040,2043,2028,2041,2049
2064,2049,2058,2041,2038,2024,2038,2043
2058,2056,2058,2043,2044,2029,2041,2038
2054,2055,2055,2044,2043,2026,2029,2023
2053,2051,2059,2043,2052,2026,2025,2013
2058,2055,2052,2044,2044,2025,2028,2015
2059,2051,2052,2044,2049,2034,2038,2012
2052,2049,2048,2047,2051,2039,2045,2010
2054,2054,2049,2048,2047,2039,2050,2007
2040,2038,2040,2044,2050,2039,2011,1998
2033,2037,2040,2035,2041,2036,2013,2004
2034,2043,2049,2034,2036,2039,2028,1997
2036,2037,2042,2035,2036,2043,2030,1996
2033,2041,2049,2035,2032,2052,2042,1984
2023,2044,2045,2041,2039,2047,2026,1994
2032,2040,2043,2039,2041,2052,2037,2004
2034,2044,2050,2042,2046,2057,2049,2006
2034,2048,2045,2042,2065,2061,2039,2012
2041,2049,2044,2049,2082,2074,2043,2013
2045,2048,2051,2048,2089,2090,2059,2025
2039,2046,2053,2054,2101,2106,2059,2026
2043,2054,2046,2052,2106,2110,2064,2033
2042,2052,2053,2053,2095,2108,2069,2055
2046,2046,2053,2052,2094,2099,2053,2076
2052,2047,2056,2056,2092,2090,2077,2094
2052,2047,2053,2052,2074,2073,2048,2096
2046,2044,2054,2042,2046,2057,2049,2097
2045,2051,2054,2044,2006,2039,2052,2092
2052,2056,2057,2042,2012,2046,2082,2080
2051,2054,2050,2038,2044,2050,2078,2071
2046,2051,2050,2036,2038,2047,2079,2057
2046,2047,2051,2039,2051,2057,2083,2038
2035,2048,2045,2034,2051,2062,2087,2028
2029,2038,2038,2032,2043,2068,2075,2021
2031,2041,2035,2037,2041,2019,2049,2020
2028,2042,2036,2037,2037,1999,2051,2007
2036,2049,2036,2042,2045,1983,2026,2003
2038,2054,2049,2048,2041,1949,2019,2006
2035,2051,2045,2050,2038,1925,2029,2006
2030,2047,2046,2040,2027,1952,2033,1999
2024,2044,2038,2026,2016,2019,2030,1992
2023,2038,2034,2030,2013,2059,2033,1982
2019,2033,2027,2033,2017,2071,2022,1973
2017,2029,2031,2035,2016,2035,2031,1982
2019,2037,2034,2042,2028,2029,2040,1980
2018,2040,2036,2036,2037,2034,2040,1981
2030,2046,2040,2042,2021,2031,2050,1990
2036,2043,2041,2036,2006,2022,2056,1987
2033,2041,2042,2033,1995,2019,2027,1984
2030,2030,2036,2022,1986,2024,2022,1989
2028,2034,2040,2030,2006,2045,2030,2003
2038,2043,2056,2050,2047,2064,2043,2027
2047,2055,2061,2051,2074,2062,2025,2037
2051,2060,2053,2050,2065,2064,2047,2071
2057,2059,2059,2050,2058,2070,2046,2078
2050,2051,2052,2042,2030,2055,2046,2066
2043,2047,2046,2028,2024,2050,2028,2079
2042,2038,2039,2028,2032,2056,2012,2070
2040,2040,2039,2034,2047,2066,2033,2069
2041,2041,2046,2041,2090,2072,2041,2069
2047,2048,2051,2045,2116,2076,2060,2062
2044,2053,2049,2046,2127,2076,2047,2068
2042,2054,2051,2054,2125,2076,2061,2062
2052,2055,2052,2053,2131,2078,2064,2050
2053,2054,2057,2054,2128,2086,2073,2056
2052,2051,2049,2050,2108,2076,2059,2049
2052,2050,2048,2049,2077,2072,2078,2043
2050,2051,2052,2039,1999,2066,2080,2041
2052,2043,2046,2019,1912,2051,2072,2032
2046,2043,2045,2024,1944,2058,2068,2032
2046,2045,2043,2031,1982,2058,2057,2023
2045,2040,2041,2040,2020,2060,2051,2017
2053,2046,2043,2042,2030,2058,2048,2011
2048,2050,2048,2047,2010,2045,2039,1999
2040,2045,2049,2047,1992,2045,2029,1990
2039,2040,2045,2050,2013,2043,2033,1981
2034,2049,2055,2052,2028,2021,2025,1985
2034,2044,2051,2052,2018,2000,2031,1986
2026,2044,2047,2042,2013,2002,2026,1990
2030,2046,2051,2047,2026,2006,2034,2002
2029,2045,2051,2051,2037,2013,2048,2016
2039,2047,2055,2045,2032,2013,2038,2020
2042,2041,2047,2048,2048,2035,2034,2013
2038,2042,2049,2047,2084,2044,2032,1998
2024,2044,2043,2037,2103,2044,2034,2012
2030,2047,2044,2040,2098,2050,2030,2020
2042,2050,2046,2044,2094,2062,2048,2031
2043,2053,2047,2045,2078,2087,2068,2044
2037,2052,2049,2042,2069,2094,2066,2059
2028,2040,2045,2042,2068,2100,2065,2073
2015,2028,2033,2033,2064,2093,2050,2084
2012,2026,2037,2033,2052,2072,2046,2077
2019,2036,2038,2038,2042,2047,2058,2065
2031,2045,2040,2036,2045,2044,2072,2068
2034,2048,2045,2040,2049,2056,2072,2052
2041,2057,2043,2040,2048,2056,2090,2047
2034,2044,2047,2040,2050,2062,2084,2054
2040,2045,2043,2041,2049,2075,2075,2060
2049,2039,2043,2044,2047,2073,2081,2064
2048,2041,2033,2044,2038,2038,2064,2050
2052,2036,2034,2039,2042,2035,2058,2043
2051,2036,2030,2031,2035,2040,2041,2019
2037,2041,2033,2029,2028,2060,2053,1999
2036,2042,2035,2032,2025,2076,2049,1989
2036,2040,2034,2033,2032,2105,2039,1981
2039,2038,2038,2041,2045,2145,2041,1977
2034,2032,2039,2035,2052,2160,2042,1985
2037,2030,2035,2027,2045,2134,2053,1988
2046,2044,2045,2037,2038,2028,2050,2008
2050,2053,2042,2039,2047,2006,2054,2021
2050,2042,2043,2034,2042,2044,2048,2032
2052,2051,2043,2037,2050,2054,2053,2025
2053,2049,2044,2036,2048,1998,2035,2021
2050,2050,2041,2035,2042,1964,2028,2024
2051,2052,2044,2043,2040,1986,2023,2024
2053,2052,2045,2042,2053,2014,2032,2036
2054,2058,2049,2043,2057,2031,2045,2043
2056,2052,2048,2050,2062,2038,2061,2050
2059,2054,2050,2049,2062,2037,2047,2061
2064,2048,2048,2045,2043,2010,2036,2066
2051,2045,2044,2040,2042,2032,2045,2069
2046,2045,2045,2034,2045,2032,2031,2059
2036,2030,2036,2032,2031,2018,2032,2057
2030,2032,2032,2023,2030,2028,2053,2053
2039,2041,2044,2028,2033,2051,2084,2062
2044,2047,2043,2036,2034,2068,2096,2066
2051,2052,2044,2036,2042,2062,2084,2057
2050,2060,2048,2040,2034,2038,2051,2047
2052,2057,2045,2039,2036,2014,2053,2034
2051,2055,2041,2039,2035,2024,2040,2028
2046,2052,2040,2033,2033,2064,2047,2026
2044,2049,2044,2031,2040,2120,2053,2012
2034,2047,2042,2032,2040,2123,2056,2009
2035,2041,2039,2032,2039,2061,2044,2004
2030,2041,2037,2037,2042,2015,2036,1998
2032,2040,2044,2031,2026,2013,2042,1990
2032,2046,2036,2038,2031,2030,2033,1979
2032,2043,2042,2039,2041,2043,2032,1979
2026,2034,2034,2036,2032,2044,2046,1980
2024,2034,2031,2032,2032,2048,2060,1987
2034,2048,2037,2043,2047,2067,2060,1986
2030,2047,2041,2047,2055,2080,2080,1986
2038,2047,2045,2056,2060,2088,2075,1981
2032,2048,2050,2055,2062,2088,2082,1981
2041,2052,2049,2048,2066,2081,2071,1980
2033,2050,2041,2046,2058,2063,2078,1993
2037,2044,2045,2043,2057,2056,2078,2011
2033,2036,2039,2037,2037,2040,2062,2029
2042,2037,2042,2031,2038,2014,2055,2053
2047,2039,2038,2030,2026,2019,2042,2062
2050,2041,2039,2036,2033,2031,2047,2081
2053,2041,2041,2039,2051,2049,2059,2092
2056,2044,2042,2049,2054,2062,2081,2088
2052,2045,2050,2043,2043,2057,2067,2084
2046,2038,2039,2040,2040,2043,2037,2080
2039,2038,2040,2033,2036,2040,2056,2090
2058,2055,2054,2037,2048,2049,2069,2101
2054,2056,2055,2043,2050,2057,2068,2098
2053,2054,2051,2044,2032,2073,2085,2088
2057,2052,2054,2046,2065,2082,2091,2086
2060,2056,2054,2041,2057,2078,2092,2074
2053,2050,2052,2048,2057,2074,2085,2062
2054,2054,2046,2055,2042,2079,2071,2045
2055,2054,2046,2055,2044,2075,2064,2042
2046,2049,2040,2046,2042,2063,2037,2037
2049,2045,2042,2044,2036,2054,2037,2026
2048,2043,2037,2020,1995,2021,2022,2024
2046,2042,2039,2022,2030,2047,2042,2024
2052,2048,2041,2026,2034,2059,2070,2023
2060,2054,2045,2036,2000,2053,2060,2020
2050,2048,2036,2023,1987,2035,2028,2022
2051,2046,2045,2029,1985,2016,2030,2024
2053,2054,2050,2029,1955,2011,2031,2025
2046,2054,2045,2021,1956,2043,2053,2015
2050,2046,2044,2027,1973,2070,2058,2012
2039,2047,2048,2024,1985,2077,2048,2016
2038,2041,2040,2019,1994,2059,2072,2028
2042,2037,2039,2026,2029,2063,2081,2041
2047,2043,2045,2044,2070,2080,2084,2052
2049,2041,2048,2046,2102,2097,2093,2053
2051,2040,2046,2054,2140,2105,2083,2069
2052,2045,2049,2058,2148,2090,2079,2066
2047,2046,2047,2049,2112,2052,2058,2075
2041,2038,2049,2047,2086,2015,2052,2074
2040,2041,2047,2038,2058,2024,2044,2078
2038,2041,2043,2031,2019,2028,2056,2077
2037,2029,2037,2017,2002,2033,2049,2082
2038,2030,2034,2013,2005,2050,2059,2083
2041,2041,2036,2014,2005,2040,2038,2076
2045,2039,2037,2015,2014,2012,2042,2081
2045,2048,2044,2030,2018,1995,2038,2068
2051,2046,2047,2036,2017,1979,2043,2064
2045,2050,2049,2044,2021,1954,2030,2052
2040,2050,2048,2041,2011,1965,2041,2042
2047,2050,2046,2034,2023,1988,2054,2038
2047,2049,2043,2035,2036,2018,2046,2035
2048,2045,2042,2039,2048,2046,2057,2038
2052,2052,2046,2043,2068,2057,2065,2038
2061,2055,2045,2054,2088,2070,2061,2038
2054,2054,2046,2052,2097,2091,2056,2040
2052,2052,2046,2054,2100,2074,2053,2030
2053,2055,2044,2057,2096,2050,2044,2029
2042,2044,2038,2045,2084,2026,2035,2017
2041,2041,2038,2049,2071,2023,2013,2019
2043,2045,2052,2054,2078,2042,2056,2037
2055,2053,2053,2054,2079,2064,2047,2035
2048,2053,2053,2057,2078,2073,2056,2035
2052,2058,2053,2061,2081,2081,2066,2042
2065,2062,2056,2058,2065,2068,2080,2044
2058,2063,2058,2055,2061,2052,2064,2047
2053,2062,2053,2050,2061,2037,2047,2039
2048,2060,2046,2043,2060,2038,2051,2046
2045,2050,2044,2040,2061,2039,2047,2051
2044,2055,2044,2041,2066,2048,2063,2056
2043,2055,2042,2046,2053,2049,2063,2072
2047,2057,2039,2037,2032,2055,2068,2077
2047,2050,2042,2038,2036,2051,2061,2075
2041,2049,2035,2039,2037,2036,2044,2079
2038,2044,2033,2029,2037,2026,2032,2079
2039,2034,2032,2034,2043,2030,2031,2082
2039,2045,2042,2037,2056,2045,2052,2082
2049,2054,2040,2035,2050,2050,2045,2082
2045,2054,2042,2038,2052,2046,2050,2081
2046,2052,2045,2036,2040,2051,2046,2078
2060,2045,2041,2031,2033,2045,2062,2062
2046,2050,2034,2028,2030,2038,2045,2052
2050,2054,2040,2030,2032,2039,2043,2039
2053,2056,2043,2036,2038,2038,2027,2035
2051,2057,2045,2041,2055,2055,2031,2030
2054,2063,2044,2043,2058,2052,2026,2036
2054,2057,2044,2034,2036,2041,2007,2031
2050,2052,2042,2027,2027,2033,2028,2030
2051,2056,2045,2036,2038,2040,2031,2032
2054,2050,2045,2039,2039,2047,2027,2032
2055,2052,2041,2036,2033,2045,2015,2022
2045,2044,2033,2032,2033,2042,2022,2024
2057,2045,2043,2040,2029,2042,2050,2027
2063,2050,2047,2036,2038,2040,2032,2030
2063,2049,2049,2037,2040,2043,2040,2032
2064,2052,2048,2039,2050,2041,2043,2027
2062,2055,2049,2045,2051,2048,2031,2039
2061,2054,2043,2047,2057,2047,2046,2044
2057,2050,2044,2043,2057,2050,2037,2040
2054,2041,2042,2041,2059,2048,2049,2052
2048,2045,2042,2042,2057,2054,2035,2059
2047,2046,2044,2045,2059,2052,2053,2065
2049,2045,2045,2042,2068,2073,2052,2078
2043,2041,2042,2040,2067,2075,2065,2084
2047,2045,2042,2041,2065,2073,2068,2088
2050,2045,2042,2038,2066,2065,2048,2091
2051,2040,2040,2034,2061,2044,2025,2092
2040,2030,2032,2031,2056,2025,2031,2095
2036,2036,2044,2039,2056,2011,2040,2091
2047,2040,2042,2039,2049,1975,2030,2087
2047,2036,2044,2040,2039,1950,2020,2082
2043,2036,2046,2037,2036,1938,2024,2066
2042,2036,2044,2037,2034,1939,2028,2059
2050,2046,2046,2045,2034,1950,2040,2059
2050,2054,2051,2044,2045,1988,2081,2063
2063,2048,2053,2049,2043,2032,2082,2051
2061,2051,2054,2041,2033,2092,2079,2041
2064,2054,2050,2041,2037,2138,2075,2042
2056,2046,2046,2042,2044,2131,2078,2043
2057,2048,2044,2035,2040,2098,2080,2029
2055,2042,2047,2034,2036,2075,2064,2025
2050,2045,2041,2036,2033,2062,2059,2026
2042,2046,2045,2034,2035,2048,2054,2021
2041,2041,2037,2036,2027,2043,2057,2028
2041,2039,2046,2033,2041,2058,2054,2028
2050,2056,2052,2042,2050,2072,2060,2025
2052,2055,2047,2044,2055,2075,2061,2031
2047,2053,2042,2039,2051,2074,2062,2037
2046,2058,2042,2045,2045,2067,2058,2037
2051,2057,2047,2045,2052,2064,2046,2045
2058,2058,2048,2047,2048,2056,2037,2055
2056,2053,2045,2047,2061,2048,2029,2064
2058,2051,2036,2053,2111,2051,2044,2067
2056,2050,2046,2049,2138,2049,2056,2061
2053,2054,2045,2054,2133,2038,2045,2071
2056,2051,2046,2054,2144,2056,2035,2075
2053,2047,2046,2061,2146,2087,2046,2074
2043,2041,2041,2060,2139,2106,2044,2086
2044,2036,2035,2052,2129,2122,2058,2092
2042,2030,2038,2048,2104,2122,2065,2096
2046,2036,2042,2044,1974,2089,2051,2091
2049,2047,2036,2026,1880,2042,2050,2082
2047,2048,2030,2021,1898,2070,2042,2081
2051,2049,2036,2022,1961,2135,2046,2072
2049,2056,2037,2030,1991,2137,2060,2071
2057,2048,2037,2028,1997,2044,2053,2070
2054,2053,2043,2027,1994,1968,2049,2060
2057,2060,2041,2040,2006,2000,2029,2056
2051,2057,2046,2036,2017,2034,2046,2057
2056,2060,2050,2038,2021,2030,2041,2049
2062,2063,2046,2040,2020,2006,2034,2045
2059,2062,2046,2037,2019,1998,2021,2038
2058,2055,2047,2035,2026,2005,2048,2032
2057,2057,2045,2042,2041,2024,2039,2030
2054,2054,2043,2040,2056,2028,2048,2023
2046,2035,2034,2039,2053,2038,2044,2020
2048,2032,2032,2035,2055,2050,2051,2035
2054,2047,2040,2042,2064,2066,2074,2035
2058,2040,2040,2042,2058,2099,2079,2037
2056,2043,2040,2035,2063,2093,2059,2046
2053,2051,2042,2046,2053,2075,2051,2049
2063,2052,2043,2045,2046,2042,2036,2054
2066,2050,2050,2045,2033,2022,2045,2056
2066,2054,2047,2043,2018,1992,2042,2054
2060,2050,2042,2038,1997,1981,2059,2065
2059,2047,2044,2046,2034,2007,2038,2077
2060,2046,2045,2049,2075,2016,2016,2081
2057,2043,2047,2051,2066,2019,2021,2084
2053,2042,2046,2047,2053,2025,2025,2090
2061,2040,2046,2045,2042,2020,2032,2091
2057,2042,2045,2043,2045,2027,2024,2090
2050,2026,2037,2041,2021,2037,2036,2094
2051,2030,2038,2036,2030,2051,2069,2110
2061,2046,2050,2053,2049,2051,2075,2108
2066,2048,2042,2045,2030,2024,2080,2096
2055,2038,2041,2041,2008,2009,2046,2079
2052,2044,2036,2034,1999,2016,2045,2074
2055,2047,2040,2049,2020,2032,2042,2073
2058,2054,2037,2050,2056,2050,2059,2054
2053,2046,2040,2049,2042,2034,2050,2038
2048,2036,2035,2033,2033,2041,2030,2038
2046,2036,2035,2038,2073,2121,2024,2036
2046,2036,2044,2054,2112,2140,2033,2041
2049,2036,2042,2054,2098,2115,2059,2043
2049,2037,2043,2046,2066,2086,2063,2034
2046,2035,2036,2038,2053,2075,2042,2037
2047,2036,2032,2038,2049,2065,2050,2031
2045,2027,2026,2033,2042,2055,2049,2020
2039,2027,2031,2041,2024,2045,2050,2028
2054,2041,2039,2050,2011,2052,2071,2038
2053,2043,2043,2044,2012,2059,2082,2050
2061,2053,2042,2045,1994,2041,2060,2060
2068,2054,2042,2043,1983,2040,2059,2064
2075,2058,2049,2042,1970,2049,2053,2072
2076,2064,2059,2047,1981,2069,2065,2068
2079,2062,2051,2046,1998,2074,2062,2078
2073,2056,2046,2043,1992,2064,2053,2084
2069,2059,2050,2044,1998,2045,2018,2072
2068,2050,2037,2033,2058,2030,2037,2061
2052,2040,2029,2029,2123,2007,2024,2070
2043,2034,2028,2040,2141,2025,1999,2073
2049,2037,2032,2048,2122,2069,2006,2077
2049,2030,2030,2040,2099,2103,2019,2071
2040,2018,2020,2040,2092,2082,2012,2072
2040,2020,2031,2047,2109,2048,2032,2070
2038,2034,2041,2055,2105,2005,2008,2074
2043,2043,2040,2055,2095,1997,2012,2075
2047,2053,2046,2055,2083,2014,2001,2079
2055,2062,2049,2052,2071,2035,2034,2077
2060,2064,2045,2048,2071,2055,2014,2066
2066,2056,2046,2048,2074,2080,2040,2067
2066,2056,2053,2056,2082,2108,2063,2064
2066,2056,2051,2047,2076,2113,2058,2061
2066,2056,2049,2051,2077,2119,2053,2063
2069,2060,2053,2056,2074,2121,2081,2060
2067,2060,2052,2056,2062,2097,2064,2057
2062,2054,2049,2049,2056,2070,2070,2042
2064,2050,2047,2045,2051,2051,2067,2038
2061,2047,2045,2047,2041,2031,2045,2022
2060,2043,2041,2034,2027,2025,2035,2026
2056,2047,2041,2031,2035,2026,2010,2026
2058,2062,2052,2038,2045,2011,2014,2032
2062,2069,2053,2049,2060,1997,2020,2035
2064,2068,2056,2050,2055,2008,2024,2029
2062,2072,2048,2050,2057,2027,2045,2037
2063,2064,2053,2049,2064,2037,2044,2041
2058,2066,2053,2052,2068,2039,2039,2052
2054,2065,2059,2047,2059,2039,2045,2057
2056,2057,2052,2047,2067,2038,2043,2068
2062,2057,2053,2051,2072,2040,2054,2072
2058,2057,2057,2049,2072,2045,2026,2083
2065,2065,2057,2056,2070,2051,2016,2086
2060,2062,2053,2052,2067,2046,2044,2095
2056,2067,2053,2052,2072,2046,2054,2108
2056,2059,2050,2053,2065,2046,2050,2101
2056,2053,2051,2042,2055,2030,2040,2096
2043,2047,2049,2038,2051,2030,2002,2092
2046,2055,2049,2046,2053,2039,2024,2093
2050,2063,2060,2058,2059,2048,2025,2091
2060,2065,2058,2054,2059,2041,2039,2090
2056,2062,2052,2053,2057,2035,2047,2082
2061,2063,2053,2051,2051,2032,2012,2067
2056,2061,2055,2042,2046,2044,2021,2064
2059,2056,2048,2047,2052,2049,2039,2065
2058,2051,2046,2044,2056,2049,2039,2066
2058,2056,2048,2043,2051,2049,2042,2058
2064,2057,2049,2048,2047,2052,2052,2051
2055,2056,2046,2048,2052,2049,2052,2044
2052,2054,2050,2047,2045,2037,2048,2046
2055,2055,2045,2043,2047,2038,2031,2040
2054,2057,2049,2043,2047,2036,2031,2033
2056,2057,2044,2043,2053,2037,2042,2030
2048,2043,2037,2043,2042,2033,2032,2034
2047,2045,2037,2050,2054,2040,2042,2045
2052,2058,2048,2057,2062,2042,2030,2041
2056,2056,2048,2047,2068,2054,2043,2043
2061,2052,2045,2054,2072,2068,2058,2042
2060,2054,2051,2054,2072,2066,2061,2049
2056,2050,2050,2053,2059,2052,2062,2057
2060,2056,2049,2050,2052,2036,2048,2055
2065,2060,2050,2052,2059,2019,2022,2052
2057,2064,2054,2055,2060,2006,2004,2060
2055,2058,2054,2054,2052,2001,2028,2062
2053,2055,2051,2048,2054,2018,2010,2071
2056,2052,2044,2045,2057,2037,2045,2083
2055,2049,2049,2049,2056,2051,2075,2090
2050,2050,2048,2042,2057,2061,2082,2091
2052,2051,2052,2045,2051,2054,2057,2094
2056,2053,2049,2044,2042,2048,2057,2087
2049,2044,2045,2036,2040,2058,2045,2089
2046,2046,2047,2039,2043,2061,2056,2094
2056,2057,2059,2042,2046,2057,2049,2088
2056,2053,2057,2044,2040,2046,2041,2078
2050,2049,2056,2039,2036,2043,2041,2070
2048,2048,2052,2040,2031,2040,2057,2060
2051,2054,2049,2035,2030,2033,2048,2062
2063,2050,2057,2047,2025,2024,2046,2056
2056,2052,2061,2047,2034,2024,2041,2052
2064,2057,2056,2046,2042,2033,2046,2052
2065,2056,2060,2047,2042,2037,2049,2047
2067,2052,2057,2045,2041,2032,2052,2041
2070,2058,2059,2047,2048,2029,2046,2040
2060,2054,2059,2045,2045,2026,2047,2045
2059,2049,2055,2043,2045,2026,2039,2031
2060,2047,2054,2044,2039,2020,2043,2026
2052,2040,2047,2038,2038,2019,2022,2025
2046,2033,2046,2035,2034,2030,2024,2032
2054,2040,2049,2038,2036,2051,2020,2026
2051,2046,2050,2041,2047,2079,2024,2036
2058,2049,2048,2049,2066,2105,2054,2039
2064,2055,2052,2046,2071,2090,2054,2042
2060,2053,2050,2054,2071,2045,2043,2048
2062,2055,2051,2055,2080,2049,2053,2059
2064,2058,2053,2053,2076,2070,2063,2064
2066,2058,2053,2059,2085,2081,2068,2071
2062,2056,2056,2058,2083,2081,2080,2079
2053,2056,2055,2060,2076,2068,2056,2078
2057,2046,2058,2059,2082,2068,2054,2085
2055,2047,2050,2057,2080,2075,2066,2096
2065,2051,2048,2061,2072,2069,2049,2099
2060,2057,2054,2056,2058,2056,2057,2105
2056,2059,2057,2051,2042,2034,2044,2096
2051,2048,2049,2046,2034,2023,2042,2091
2045,2045,2044,2045,2032,2029,2016,2097
2051,2052,2050,2045,2035,2016,2025,2093
2055,2055,2053,2050,2031,2023,2032,2088
2051,2049,2049,2049,2040,2034,2024,2084
2056,2050,2046,2048,2034,2048,2029,2082
2055,2049,2040,2045,2027,2056,2042,2074
2055,2048,2040,2045,2030,2068,2057,2062
2053,2050,2049,2046,2037,2096,2066,2056
2054,2047,2043,2045,2034,2116,2060,2044
2053,2044,2037,2045,2040,2164,2074,2037
2054,2047,2037,2047,2039,2140,2065,2033
2054,2046,2040,2047,2039,2068,2038,2031
2050,2045,2038,2046,2038,1963,2033,2025
2050,2045,2044,2051,2046,1959,2031,2025
2051,2046,2043,2046,2046,1990,2026,2024
2053,2047,2045,2042,2042,2002,2031,2022
2046,2043,2034,2043,2041,2010,2017,2020
2047,2043,2044,2051,2050,2018,2052,2025
2056,2054,2043,2053,2056,2023,2041,2028
2057,2052,2042,2053,2055,2021,2053,2032
2053,2052,2046,2050,2055,2019,2051,2038
2060,2054,2043,2055,2057,2024,2056,2042
2051,2049,2047,2054,2053,2032,2043,2048
2047,2046,2045,2046,2047,2037,2057,2055
2055,2049,2045,2051,2053,2040,2062,2054
2058,2042,2045,2050,2059,2054,2066,2061
2047,2046,2042,2054,2051,2043,2060,2071
2049,2042,2048,2054,2054,2041,2077,2074
2049,2038,2041,2052,2053,2039,2058,2082
2043,2038,2036,2048,2043,2039,2040,2080
2040,2037,2033,2046,2046,2044,2056,2072
2035,2034,2034,2047,2048,2046,2056,2077
2033,2029,2029,2044,2049,2048,2049,2074
2033,2032,2037,2050,2046,2051,2057,2076
2039,2041,2044,2053,2050,2046,2021,2079
2044,2046,2039,2048,2046,2034,2050,2074
2048,2051,2042,2046,2046,2028,2037,2076
2049,2050,2041,2048,2043,2033,2035,2069
2049,2053,2043,2053,2035,2031,2045,2063
2046,2053,2044,2053,2035,2051,2057,2056
2050,2058,2046,2053,2040,2063,2040,2049
2049,2054,2047,2052,2042,2061,2039,2048
2055,2051,2046,2051,2035,2060,2038,2039
2053,2051,2044,2048,2039,2061,2048,2035
2063,2062,2050,2052,2041,2082,2050,2043
2065,2064,2053,2051,2041,2097,2047,2043
2061,2062,2056,2050,2041,2103,2061,2034
2063,2066,2060,2056,2043,2092,2060,2033
2064,2063,2061,2056,2045,2050,2055,2025
2057,2052,2048,2050,2041,2026,2033,2014
2048,2045,2046,2052,2042,2034,2030,2026
2059,2052,2054,2061,2055,2048,2046,2030
2060,2049,2052,2058,2054,2027,2065,2038
2061,2051,2049,2054,2049,2021,2068,2034
2055,2050,2051,2056,2042,2005,2052,2036
2056,2050,2049,2056,2038,2004,2069,2037
2049,2053,2048,2051,2038,1992,2043,2040
2051,2050,2049,2052,2039,1999,2056,2052
2058,2055,2051,2053,2040,2015,2074,2067
2055,2049,2052,2055,2036,2029,2079,2074
2059,2052,2048,2054,2034,2039,2073,2082
2061,2059,2049,2062,2045,2030,2073,2082
2051,2052,2047,2062,2049,2020,2033,2091
2055,2053,2055,2052,2045,2036,2030,2085
2045,2045,2045,2052,2033,2016,2032,2088
2043,2046,2043,2044,2016,1980,2025,2079
2032,2027,2030,2033,2009,1968,2024,2082
2034,2031,2029,2038,2038,1993,2038,2085
2046,2040,2038,2048,2057,2008,2052,2084
2050,2047,2045,2048,2055,2029,2054,2077
2053,2049,2050,2054,2052,2029,2032,2072
2052,2052,2048,2055,2050,2026,2034,2072
2052,2047,2043,2051,2049,2023,2050,2060
2049,2046,2043,2049,2041,2048,2061,2051
2047,2044,2042,2048,2041,2082,2067,2046
2049,2039,2039,2050,2046,2077,2033,2046
2042,2042,2044,2052,2057,2060,2061,2045
2044,2041,2046,2044,2050,2049,2057,2036
2044,2048,2045,2042,2056,2045,2060,2027
2047,2035,2041,2039,2049,2035,2050,2022
2046,2040,2042,2045,2054,2045,2064,2033
2049,2043,2050,2051,2057,2048,2068,2034
2054,2043,2042,2046,2040,2049,2053,2020
2043,2031,2042,2040,2028,2051,2040,2009
2039,2034,2037,2047,2040,2064,2041,2016
2045,2045,2043,2050,2050,2086,2045,2029
2052,2047,2047,2058,2055,2106,2074,2034
2056,2049,2052,2056,2063,2111,2067,2049
2062,2053,2053,2055,2057,2088,2070,2045
2057,2051,2048,2050,2050,2054,2050,2053
2057,2055,2047,2046,2040,2021,2026,2056
2048,2050,2048,2047,2048,2024,2041,2062
2052,2050,2052,2052,2063,2055,2036,2065
2052,2054,2049,2059,2080,2070,2044,2070
2047,2052,2047,2059,2085,2074,2061,2077
2049,2052,2052,2054,2072,2063,2049,2085
2052,2055,2050,2052,2056,2053,2064,2090
2047,2050,2050,2047,2055,2059,2065,2091
2044,2054,2044,2047,2063,2071,2073,2096
2047,2052,2049,2047,2050,2064,2062,2093
2048,2050,2049,2044,2049,2047,2044,2091
2050,2055,2054,2048,2052,2026,2046,2086
2047,2057,2048,2045,2049,2021,2043,2086
2052,2056,2052,2049,2046,2018,2017,2087
2052,2054,2047,2040,2039,2028,2018,2080
2051,2052,2047,2039,2040,2039,2036,2066
2049,2051,2050,2044,2046,2054,2028,2062
2057,2051,2052,2054,2039,2048,2029,2059
2056,2053,2049,2049,2007,2035,2041,2046
2063,2054,2047,2049,2028,2022,2048,2045
2058,2054,2043,2050,2035,2020,2031,2042
2057,2052,2044,2047,2027,2020,2036,2039
2052,2048,2042,2050,2005,2006,2037,2029
2056,2051,2042,2046,2008,2011,2058,2028
2051,2046,2038,2049,2065,2042,2056,2020
2049,2040,2040,2050,2120,2064,2050,2022
2051,2031,2040,2056,2111,2058,2035,2023
2052,2036,2044,2051,2098,2053,2069,2032
2065,2053,2061,2065,2117,2068,2081,2040
2066,2056,2057,2070,2106,2068,2067,2040
2065,2053,2047,2059,2090,2059,2055,2038
2058,2050,2048,2052,2065,2041,2045,2043
2060,2052,2049,2040,1960,2029,2038,2045
2059,2040,2046,2036,1952,2053,2040,2053
2056,2035,2040,2048,1984,2086,2064,2050
2049,2035,2042,2042,2009,2107,2057,2049
2042,2041,2044,2037,2005,2091,2029,2043
2043,2040,2040,2036,2007,2000,2022,2055
2045,2042,2048,2042,2026,1944,2041,2070
2050,2044,2047,2045,2052,1986,2034,2080
2051,2045,2046,2054,2071,2051,2085,2080
2054,2051,2050,2052,2069,2067,2074,2088
2051,2040,2049,2049,2060,2062,2049,2076
2041,2029,2039,2042,2056,2047,2032,2077
2042,2028,2041,2042,2051,2043,2043,2085
2050,2043,2051,2047,2050,2042,2044,2091
2053,2050,2045,2048,2052,2053,2037,2085
2062,2052,2048,2049,2043,2057,2049,2079
2061,2050,2045,2050,2041,2056,2051,2078
2060,2046,2051,2046,2032,2053,2060,2071
2057,2052,2052,2050,2029,2044,2050,2061
2065,2050,2043,2047,2029,2036,2039,2052
2065,2052,2050,2043,2019,2032,2045,2041
2062,2050,2047,2046,2033,2026,2054,2034
2064,2050,2042,2049,2034,2023,2039,2032
2058,2051,2046,2047,2034,2027,2039,2027
2060,2045,2042,2049,2044,2030,2027,2028
2059,2046,2041,2046,2047,2040,2028,2023
2062,2046,2048,2053,2062,2054,2027,2024
2049,2046,2041,2050,2054,2053,2055,2021
2040,2034,2038,2046,2046,2049,2044,2013
2043,2034,2044,2049,2046,2062,2054,2021
2051,2043,2044,2053,2051,2062,2046,2025
2053,2044,2045,2052,2047,2066,2054,2032
2056,2039,2052,2058,2055,2072,2049,2041
2060,2044,2046,2054,2065,2088,2075,2044
2058,2045,2052,2062,2069,2093,2072,2052
2056,2047,2050,2055,2067,2085,2069,2052
2057,2048,2049,2055,2060,2084,2076,2058
2058,2042,2053,2052,2064,2089,2063,2058
2052,2038,2047,2052,2062,2083,2058,2055
2045,2039,2042,2054,2058,2060,2058,2060
2044,2035,2043,2053,2052,2056,2064,2072
2048,2040,2046,2050,2051,2048,2052,2085
2052,2040,2043,2050,2043,2026,2033,2074
2051,2034,2050,2047,2046,2018,2034,2078
2046,2028,2042,2053,2041,2023,2025,2083
2043,2030,2040,2047,2048,2023,2040,2081
2049,2038,2039,2051,2048,2037,2035,2084
2048,2044,2043,2052,2046,2041,2034,2078
2050,2042,2046,2046,2045,2047,2026,2070
2049,2047,2045,2046,2047,2053,2021,2070
2056,2047,2046,2049,2043,2058,2033,2069
2052,2049,2049,2047,2044,2058,2041,2064
2056,2047,2042,2046,2046,2053,2035,2053
2056,2044,2044,2044,2040,2057,2020,2049
2062,2042,2043,2041,2033,2052,2045,2043
2061,2040,2043,2042,2037,2051,2039,2043
2067,2042,2042,2041,2040,2039,2028,2039
2053,2040,2041,2040,2037,2019,2039,2032
2053,2040,2040,2044,2042,2015,2032,2032
2056,2044,2043,2040,2041,2014,2038,2030
2059,2044,2045,2046,2044,2009,2043,2021
2058,2034,2034,2042,2037,2013,2005,2019
2052,2044,2039,2044,2043,2033,2056,2016
2053,2050,2047,2055,2045,2042,2052,2020
2059,2050,2047,2050,2046,2052,2053,2018
2052,2042,2046,2041,2035,2057,2060,2029
2051,2039,2047,2043,2037,2069,2058,2022
2048,2035,2036,2039,2040,2086,2055,2029
2048,2038,2036,2042,2056,2101,2062,2032
2045,2036,2041,2052,2052,2124,2065,2039
2041,2043,2043,2053,2054,2152,2061,2045
2044,2036,2041,2046,2058,2110,2054,2044
2048,2041,2041,2050,2053,1996,2044,2051
2047,2043,2042,2050,2054,1954,2039,2058
2042,2042,2040,2055,2057,2005,2052,2065
2039,2038,2043,2054,2066,2039,2056,2075
2046,2033,2048,2053,2053,2045,2047,2080
2041,2041,2040,2049,2045,2043,2016,2080
2040,2044,2042,2043,2045,2039,2038,2088
2051,2048,2048,2040,2043,2046,2046,2089
2061,2054,2051,2045,2044,2050,2038,2086
2061,2052,2048,2048,2044,2053,2039,2081
2059,2052,2048,2046,2042,2049,2033,2072
2052,2047,2045,2042,2042,2042,2029,2064
2047,2050,2045,2044,2041,2036,2023,2057
2053,2050,2047,2040,2040,2046,2031,2048
2063,2045,2048,2048,2046,2066,2048,2049
2055,2050,2047,2051,2052,2074,2068,2044
2056,2046,2050,2056,2054,2078,2075,2033
2061,2053,2050,2056,2056,2073,2070,2033
2058,2052,2056,2055,2054,2063,2065,2031
2061,2052,2051,2052,2051,2046,2053,2026
2059,2046,2052,2049,2058,2030,2059,2024
2056,2051,2051,2049,2055,2026,2053,2029
2060,2049,2052,2043,2045,2038,2039,2028
2060,2047,2046,2039,2051,2045,2056,2027
2054,2050,2053,2044,2060,2066,2077,2037
2058,2056,2055,2052,2056,2071,2066,2038
2058,2052,2059,2053,2061,2074,2076,2041
2058,2057,2059,2055,2063,2076,2063,2044
2058,2053,2059,2053,2064,2057,2064,2041
2060,2055,2050,2049,2058,2051,2070,2046
2058,2056,2047,2049,2056,2053,2065,2054
2059,2051,2049,2044,2060,2063,2076,2066
2053,2045,2051,2045,2054,2060,2062,2068
2060,2049,2054,2048,2049,2051,2054,2078
2055,2054,2049,2053,2058,2034,2050,2076
2058,2050,2050,2046,2056,2005,2040,2084
2055,2046,2054,2049,2051,2003,2048,2079
2050,2049,2049,2050,2048,2011,2041,2085
2042,2044,2041,2046,2044,2026,2028,2081
2036,2036,2035,2032,2026,2033,2022,2075
2035,2031,2030,2027,2021,2042,2039,2085
2049,2041,2037,2042,2040,2056,2054,2078
2054,2042,2037,2041,2048,2058,2047,2077
2048,2050,2045,2037,2043,2056,2036,2075
2053,2047,2043,2048,2057,2051,2039,2069
2052,2046,2046,2049,2050,2052,2061,2069
2052,2045,2046,2050,2047,2052,2053,2062
2053,2042,2043,2047,2048,2048,2061,2057
2046,2042,2039,2045,2052,2048,2051,2043
2044,2041,2043,2046,2051,2056,2064,2051
2050,2035,2042,2042,2049,2054,2068,2043
2046,2033,2046,2050,2052,2056,2073,2035
2045,2034,2042,2041,2046,2043,2062,2035
2042,2033,2045,2037,2034,2039,2058,2026
2041,2036,2039,2042,2041,2043,2069,2028
2042,2032,2041,2036,2043,2036,2062,2028
2038,2023,2039,2039,2041,2021,2035,2027
2036,2028,2041,2035,2042,2033,2029,2035
2045,2041,2051,2044,2057,2045,2053,2025
2049,2035,2052,2050,2061,2053,2054,2024
2048,2041,2044,2055,2061,2059,2058,2024
2046,2041,2043,2052,2060,2062,2047,2020
2040,2034,2042,2041,2046,2052,2035,2023
2035,2022,2042,2038,2044,2024,2025,2034
2038,2031,2045,2038,2044,2026,2049,2036
2040,2037,2048,2045,2048,2032,2063,2045
2039,2040,2053,2046,2052,2036,2078,2054
2045,2038,2048,2046,2053,2046,2095,2073
2044,2039,2051,2051,2060,2057,2088,2083
2049,2037,2052,2046,2059,2058,2104,2096
2049,2034,2054,2045,2060,2064,2104,2098
2041,2037,2056,2042,2060,2052,2088,2093
2049,2039,2051,2045,2060,2039,2065,2086
2041,2029,2049,2048,2045,2033,2035,2089
2044,2036,2049,2046,2051,2044,2042,2091
2051,2047,2055,2041,2053,2073,2058,2078
2045,2049,2053,2048,2050,2098,2061,2073
2047,2053,2056,2053,2063,2099,2052,2069
2051,2055,2056,2056,2054,2070,2033,2060
2047,2056,2056,2052,2044,2045,2025,2057
2046,2050,2058,2045,2039,2034,2036,2049
2048,2051,2053,2044,2035,2031,2015,2047
2050,2049,2052,2043,2032,2034,2033,2043
2051,2050,2058,2043,2029,2033,2032,2038
2052,2054,2058,2042,2032,2042,2034,2042
2052,2054,2050,2047,2039,2049,2042,2037
2053,2055,2053,2044,2043,2054,2037,2034
2048,2057,2054,2049,2040,2064,2036,2035
2051,2060,2053,2042,2044,2059,2027,2029
2050,2050,2050,2035,2037,2062,2039,2013
2043,2046,2044,2037,2034,2066,2028,2016
2045,2045,2047,2040,2050,2077,2036,2019
2053,2050,2052,2046,2056,2052,2041,2024
2054,2053,2049,2043,2060,2034,2068,2021
2053,2050,2044,2048,2052,2040,2075,2022
2051,2047,2051,2049,2048,2050,2059,2029
2058,2049,2051,2051,2052,2058,2057,2036
2051,2051,2056,2056,2054,2060,2069,2044
2050,2047,2056,2049,2051,2060,2064,2046
2052,2046,2053,2050,2047,2052,2063,2050
2049,2043,2056,2051,2051,2051,2061,2067
2052,2046,2052,2043,2043,2048,2066,2069
2054,2041,2048,2050,2042,2043,2058,2075
2053,2037,2056,2046,2048,2039,2033,2076
2049,2047,2060,2051,2064,2037,2065,2088
2052,2046,2053,2055,2071,2037,2054,2078
2048,2036,2040,2043,2057,2029,2027,2080
2046,2035,2043,2039,2043,2031,2022,2077
2041,2037,2047,2043,2036,2036,2020,2072
2042,2036,2050,2047,2034,2055,2014,2070
2043,2042,2052,2039,2046,2063,2045,2063
2046,2041,2049,2036,2052,2061,2037,2063
2043,2040,2048,2041,2054,2076,2051,2070
2043,2045,2050,2048,2053,2095,2064,2060
2041,2050,2055,2047,2055,2104,2077,2047
2052,2048,2051,2041,2046,2097,2062,2039
2050,2044,2047,2043,2049,2079,2043,2036
2049,2046,2045,2045,2051,2071,2058,2036
2049,2042,2058,2047,2058,2076,2052,2028
2047,2039,2054,2053,2056,2059,2057,2022
2046,2042,2046,2050,2058,2033,2043,2027
2051,2042,2047,2042,2053,2013,2028,2024
2050,2046,2051,2046,2053,2008,2012,2019
2043,2036,2044,2040,2051,2004,2018,2018
2048,2039,2041,2045,2056,2006,2032,2028
2056,2051,2052,2055,2061,2028,2041,2032
2052,2046,2047,2056,2057,2044,2027,2029
2056,2049,2047,2049,2044,2055,2042,2027
2050,2046,2044,2053,2050,2057,2038,2033
2050,2052,2050,2054,2054,2063,2032,2044
2054,2049,2047,2056,2058,2052,2053,2049
2054,2046,2048,2056,2059,2052,2057,2049
2054,2046,2050,2053,2057,2048,2060,2053
2049,2049,2052,2059,2053,2053,2065,2062
2048,2049,2046,2054,2056,2051,2058,2072
2052,2055,2043,2055,2057,2051,2067,2076
2046,2043,2043,2053,2049,2052,2050,2074
2047,2036,2044,2050,2054,2051,2050,2082
2052,2037,2046,2052,2060,2060,2058,2089
2052,2042,2041,2044,2049,2048,2062,2082
2040,2032,2033,2044,2046,2046,2037,2084
2040,2038,2036,2045,2045,2045,2065,2084
2049,2040,2034,2049,2047,2037,2058,2081
2044,2044,2037,2052,2056,2027,2064,2072
2047,2043,2043,2056,2057,2018,2057,2065
2047,2043,2035,2052,2050,2023,2040,2060
2046,2040,2042,2050,2046,2032,2042,2047
2046,2037,2038,2053,2046,2038,2044,2040
2045,2044,2041,2048,2055,2047,2030,2038
2049,2044,2041,2051,2056,2058,2041,2042
2051,2034,2045,2054,2066,2056,2059,2041
2051,2040,2041,2050,2059,2041,2067,2034
2057,2047,2047,2054,2068,2032,2062,2032
2056,2050,2049,2061,2069,2038,2053,2025
2050,2042,2054,2052,2063,2048,2058,2024
2043,2043,2044,2052,2055,2062,2042,2015
2039,2034,2038,2040,2039,2064,2058,2016
2035,2024,2035,2033,2030,2060,2050,2009
2025,2030,2035,2041,2040,2067,2039,2013
2027,2037,2034,2046,2044,2083,2024,2019
2030,2031,2043,2051,2040,2098,2038,2026
2039,2033,2049,2043,2026,2084,2056,2027
2048,2045,2044,2040,2002,2064,2041,2029
2043,2047,2049,2042,2008,2065,2061,2036
2044,2045,2050,2046,2020,2068,2054,2043
2048,2050,2054,2041,2037,2081,2056,2051
2055,2051,2047,2049,2041,2082,2045,2056
2045,2051,2047,2056,2040,2025,2044,2060
2047,2049,2048,2059,2034,1983,2040,2069
2045,2047,2048,2056,2033,1990,2049,2071
2034,2039,2046,2059,2032,2010,2037,2074
2044,2040,2046,2051,2030,2021,2042,2069
2041,2038,2043,2044,2028,2019,2036,2068
2040,2034,2048,2043,2025,2021,2043,2076
2041,2043,2050,2047,2049,2030,2046,2089
2051,2058,2058,2052,2064,2038,2058,2085
2047,2065,2060,2059,2062,2031,2065,2089
2054,2064,2059,2057,2057,2046,2046,2088
2052,2062,2057,2056,2052,2052,2046,2078
2052,2066,2056,2058,2050,2052,2068,2067
2050,2061,2056,2051,2053,2046,2055,2058
2047,2055,2052,2052,2054,2041,2036,2054
2042,2049,2056,2050,2050,2050,2026,2045
2042,2047,2057,2054,2043,2059,2045,2040
2044,2045,2049,2057,2050,2085,2038,2040
2048,2050,2054,2056,2053,2115,2023,2039
2047,2057,2056,2048,2050,2138,2038,2041
2049,2056,2045,2048,2053,2088,2037,2030
2047,2053,2051,2044,2034,1962,2015,2022
2045,2049,2054,2047,2024,1906,2000,2016
2043,2039,2040,2039,2016,1961,2023,2016
2037,2039,2040,2043,2027,2031,2014,2022
2050,2048,2047,2048,2029,2056,2030,2030
2048,2048,2047,2049,2039,2072,2043,2025
2044,2053,2043,2045,2037,2078,2046,2036
2051,2053,2047,2055,2042,2086,2047,2039
2049,2055,2051,2044,2045,2090,2045,2045
2048,2055,2045,2053,2051,2082,2040,2059
2050,2057,2046,2054,2055,2084,2039,2058
2051,2052,2045,2051,2061,2080,2023,2069
2047,2055,2049,2058,2064,2071,2052,2072
2045,2053,2048,2061,2072,2049,2032,2067
2045,2052,2052,2057,2074,2024,2023,2079
2036,2052,2047,2055,2061,2016,2020,2075
2044,2050,2040,2056,2049,2025,2003,2084
2036,2044,2043,2050,2056,2042,2011,2088
2038,2042,2038,2042,2039,2033,2024,2079
2030,2035,2030,2049,2038,2027,2030,2083
2028,2044,2039,2052,2039,2033,2040,2080
2033,2044,2041,2053,2038,2043,2032,2078
2028,2050,2037,2053,2038,2046,2048,2072
2032,2045,2046,2045,2037,2042,2056,2066
2042,2048,2042,2039,2041,2036,2058,2067
2042,2051,2046,2039,2052,2044,2066,2061
2040,2054,2045,2046,2050,2041,2068,2054
2041,2057,2039,2052,2047,2037,2068,2050
2044,2053,2039,2051,2040,2032,2065,2038
2041,2049,2041,2048,2049,2038,2060,2029
2045,2051,2042,2050,2045,2030,2048,2037
