CH1,CH2,CH3,CH4,CH5,CH6,CH7,CH8
2052,2046,2049,2063,2050,2039,2047,2055
2043,2044,2038,2057,2052,2037,2058,2059
2041,2047,2048,2036,2044,2035,2059,2062
2043,2045,2058,2008,2031,2034,2052,2068
2044,2056,2065,1998,2038,2039,2053,2082
2052,2049,2063,1999,2031,2038,2066,2091
2057,2062,2055,2004,2027,2033,2062,2090
2054,2063,2061,2007,2022,2020,2058,2091
2055,2068,2066,2018,2023,2005,2038,2088
2049,2059,2062,2025,2021,2007,2037,2084
2038,2058,2064,2033,2019,2008,2042,2078
2046,2063,2064,2042,2006,2005,2032,2071
2046,2058,2057,2038,1994,2012,2021,2067
2045,2062,2051,2037,2022,2038,2029,2068
2058,2064,2057,2056,2059,2062,2041,2064
2058,2063,2066,2059,2087,2079,2072,2058
2055,2060,2073,2069,2110,2095,2078,2050
2057,2060,2069,2069,2106,2093,2070,2041
2054,2059,2060,2064,2077,2077,2044,2034
2051,2057,2055,2052,2066,2063,2041,2033
2044,2056,2051,2044,2065,2055,2038,2030
2045,2058,2051,2044,2056,2055,2054,2032
2047,2055,2056,2041,2049,2059,2062,2030
2052,2059,2057,2046,2044,2056,2060,2023
2054,2056,2049,2044,2041,2043,2058,2020
2041,2038,2038,2039,2035,2044,2048,2023
2038,2038,2043,2044,2045,2050,2060,2027
2054,2049,2050,2044,2052,2053,2065,2028
2052,2050,2047,2054,2050,2050,2056,2028
2049,2050,2051,2055,2062,2055,2056,2032
2052,2058,2048,2061,2061,2052,2068,2038
2060,2057,2055,2069,2063,2049,2076,2040
2053,2055,2051,2069,2060,2053,2067,2046
2057,2048,2046,2064,2059,2052,2064,2044
2045,2043,2045,2058,2053,2053,2066,2048
2044,2037,2040,2055,2057,2056,2052,2056
2040,2038,2032,2051,2062,2057,2049,2060
2043,2046,2025,2047,2061,2052,2048,2066
2037,2032,2029,2044,2055,2045,2046,2070
2033,2035,2028,2044,2053,2046,2038,2075
2041,2041,2025,2035,2043,2045,2032,2077
2041,2028,2016,2030,2034,2042,2041,2083
2040,2027,2020,2019,2030,2043,2041,2076
2049,2045,2040,2025,2028,2050,2047,2079
2050,2051,2051,2030,2043,2051,2053,2074
2051,2058,2058,2044,2056,2053,2055,2063
2047,2056,2053,2045,2058,2054,2037,2054
2050,2056,2053,2050,2057,2052,2057,2046
2046,2056,2052,2041,2053,2050,2043,2048
2052,2064,2059,2047,2052,2046,2049,2042
2061,2064,2065,2050,2041,2048,2032,2040
2061,2061,2074,2052,2040,2042,2040,2042
2060,2066,2083,2053,2047,2042,2051,2031
2050,2064,2084,2052,2053,2043,2024,2026
2048,2054,2071,2051,2046,2043,2031,2019
2058,2057,2068,2052,2051,2052,2051,2018
2055,2047,2059,2049,2044,2054,2024,2012
2044,2039,2044,2039,2045,2051,2043,2018
2043,2036,2040,2052,2045,2054,2039,2027
2060,2050,2052,2054,2049,2063,2050,2025
2056,2048,2050,2056,2057,2058,2050,2029
2056,2051,2053,2054,2062,2052,2046,2024
2053,2051,2056,2058,2059,2047,2068,2036
2060,2054,2054,2062,2062,2050,2058,2037
2059,2056,2060,2063,2077,2052,2056,2035
2059,2054,2059,2068,2080,2052,2048,2039
2056,2055,2065,2067,2084,2058,2062,2046
2051,2063,2073,2072,2088,2056,2062,2056
2054,2061,2061,2068,2084,2057,2059,2057
2052,2056,2058,2067,2087,2054,2059,2070
2055,2051,2056,2062,2088,2062,2058,2072
2046,2044,2055,2062,2083,2052,2055,2075
2047,2048,2053,2056,2087,2043,2044,2079
2036,2039,2043,2038,2058,2036,2046,2081
2042,2040,2036,2027,2017,2043,2046,2083
2052,2047,2044,2038,2027,2045,2049,2077
2048,2049,2048,2038,2049,2044,2032,2057
2048,2055,2052,2040,2050,2047,2052,2065
2053,2058,2055,2039,2052,2049,2057,2061
2058,2056,2050,2040,2054,2052,2056,2063
2059,2056,2046,2038,2044,2047,2031,2049
2056,2051,2044,2035,2038,2046,2041,2038
2049,2055,2044,2032,2031,2049,2051,2027
2050,2054,2049,2040,2046,2057,2025,2029
2056,2051,2046,2044,2059,2062,2034,2029
2051,2046,2039,2038,2057,2061,2042,2019
2041,2045,2039,2043,2048,2047,2041,2019
2034,2042,2042,2040,2050,2044,2032,2017
2029,2040,2036,2049,2061,2042,2038,2013
2023,2029,2029,2038,2050,2040,2033,2011
2034,2030,2027,2046,2055,2048,2037,2019
2037,2043,2043,2062,2075,2060,2055,2022
2044,2041,2046,2071,2077,2065,2045,2022
2045,2034,2044,2070,2075,2066,2038,2029
2043,2036,2034,2067,2066,2059,2052,2034
2042,2031,2024,2055,2047,2052,2063,2030
2038,2024,2013,2030,2017,2037,2046,2029
2033,2021,2001,2020,2032,2038,2040,2031
2032,2019,1997,2027,2069,2041,2041,2032
2032,2021,2002,2032,2123,2044,2048,2042
2029,2021,1994,2035,2126,2044,2036,2050
2029,2024,1991,2035,2123,2044,2038,2060
2033,2026,1995,2036,2111,2044,2040,2071
2036,2033,2000,2033,2121,2048,2041,2074
2036,2034,2009,2029,2105,2039,2037,2070
2037,2031,2018,2016,2076,2037,2024,2071
2027,2032,2020,2009,2057,2035,2025,2078
2036,2044,2045,2010,2019,2040,2036,2082
2048,2053,2056,1999,1920,2027,2030,2076
2057,2062,2066,1988,1829,2012,2026,2069
2060,2064,2072,1996,1864,2016,2037,2062
2062,2076,2089,2022,1961,2024,2036,2065
2069,2085,2097,2041,2028,2033,2039,2059
2070,2080,2096,2053,2069,2047,2035,2052
2077,2086,2089,2070,2102,2072,2051,2046
2069,2090,2082,2070,2119,2068,2047,2041
2065,2087,2071,2060,2101,2066,2043,2039
2060,2084,2075,2066,2089,2067,2021,2037
2066,2087,2075,2052,2053,2056,2044,2025
2068,2084,2076,2028,1980,2041,2036,2018
2060,2084,2072,2012,1976,2042,2034,2020
2053,2072,2067,2023,1997,2049,2033,2011
2047,2066,2065,2036,2018,2051,2034,2012
2055,2070,2070,2057,2053,2062,2044,2028
2061,2078,2068,2060,2064,2054,2043,2033
2060,2074,2070,2064,2082,2052,2047,2038
2058,2072,2067,2072,2092,2056,2036,2037
2057,2069,2065,2072,2088,2056,2049,2043
2059,2076,2067,2062,2094,2054,2052,2050
2066,2073,2067,2060,2094,2059,2058,2041
2060,2070,2065,2063,2098,2056,2057,2049
2051,2065,2064,2061,2104,2060,2047,2057
2054,2062,2063,2056,2104,2051,2049,2058
2050,2060,2062,2047,2072,2051,2045,2066
2043,2059,2053,2033,2063,2039,2030,2069
2043,2057,2055,2033,2033,2047,2036,2070
2043,2052,2046,2023,1971,2055,2054,2076
2044,2049,2039,2024,2000,2066,2030,2072
2035,2043,2032,2031,2064,2078,2047,2074
2037,2048,2033,2035,2077,2090,2049,2078
2049,2058,2043,2034,2056,2091,2059,2077
2046,2060,2039,2026,2030,2077,2053,2065
2046,2049,2034,2015,2018,2060,2018,2057
2041,2052,2033,2018,2029,2046,2028,2048
2038,2048,2031,2022,2038,2044,2033,2041
2044,2050,2037,2030,2045,2047,2033,2036
2048,2052,2040,2032,2066,2059,2045,2027
2046,2050,2036,2043,2104,2081,2032,2025
2052,2050,2038,2050,2102,2082,2032,2029
2058,2051,2037,2051,2075,2072,2017,2027
2051,2055,2038,2046,2057,2067,2031,2026
2050,2049,2040,2041,2058,2067,2031,2020
2050,2051,2034,2041,2068,2067,2027,2024
2042,2050,2032,2037,2068,2063,2016,2013
2035,2038,2020,2036,2069,2043,2004,2011
2038,2039,2029,2045,2073,2017,2030,2010
2046,2053,2038,2049,2078,2021,2033,2022
2048,2052,2039,2053,2064,2021,2029,2019
2049,2056,2037,2058,2065,2026,2034,2021
2039,2051,2042,2059,2066,2034,2021,2020
2038,2050,2043,2059,2066,2044,2049,2027
2041,2046,2040,2058,2069,2042,2049,2025
2045,2044,2051,2063,2074,2045,2062,2037
2040,2049,2050,2055,2059,2044,2052,2045
2046,2051,2045,2047,2047,2044,2051,2049
2049,2052,2038,2030,2024,2050,2044,2064
2049,2052,2034,2018,1979,2033,2037,2069
2045,2047,2028,2009,1970,2006,2000,2065
2045,2046,2030,2010,2001,1994,2006,2063
2047,2050,2037,2020,2039,2006,2029,2069
2041,2045,2038,2025,2044,2004,2013,2067
2030,2033,2035,2028,2026,2008,2029,2073
2031,2047,2047,2043,2023,2022,2014,2080
2049,2068,2059,2056,2016,2035,2034,2083
2048,2073,2065,2057,2055,2041,2052,2077
2052,2076,2068,2061,2081,2042,2046,2065
2054,2071,2072,2060,2083,2043,2049,2060
2062,2066,2071,2061,2079,2052,2056,2059
2062,2078,2066,2065,2063,2047,2063,2049
2059,2084,2068,2061,2036,2049,2046,2043
2066,2081,2066,2057,2035,2047,2042,2043
2066,2075,2059,2065,2045,2055,2059,2039
2059,2068,2048,2038,2016,2035,2038,2023
2051,2061,2041,2028,2029,2028,2033,2018
2044,2061,2040,2036,2061,2027,2024,2026
2045,2061,2051,2040,2053,2018,2029,2023
2038,2062,2051,2032,2039,2016,2027,2012
2032,2050,2038,2026,2029,2017,2001,2014
2038,2052,2041,2030,2028,2028,2013,2023
2047,2067,2054,2038,2048,2042,2034,2024
2050,2068,2053,2040,2058,2049,2049,2024
2054,2065,2051,2039,2066,2062,2031,2034
2051,2063,2047,2042,2076,2072,2035,2036
2053,2060,2043,2047,2098,2070,2038,2045
2055,2060,2050,2047,2094,2065,2058,2046
2051,2056,2048,2051,2097,2059,2054,2056
2051,2062,2054,2062,2106,2054,2056,2053
2048,2059,2053,2064,2144,2052,2048,2063
2045,2058,2049,2061,2150,2054,2048,2059
2045,2055,2049,2063,2179,2054,2041,2072
2042,2047,2050,2064,2164,2048,2039,2076
2046,2045,2045,2055,2143,2047,2045,2079
2042,2047,2039,2041,2112,2043,2031,2078
2031,2035,2031,2017,2051,2030,2029,2070
2026,2038,2032,2018,2043,2036,2024,2064
2032,2042,2036,2031,2040,2049,2032,2069
2036,2046,2037,2029,1961,2049,2030,2060
2036,2052,2035,2012,1872,2047,2023,2057
2040,2052,2037,2018,1922,2049,2051,2050
2035,2043,2038,2019,1983,2060,2021,2043
2041,2052,2046,2031,2018,2059,2040,2036
2044,2048,2046,2040,2054,2074,2050,2031
2043,2049,2043,2036,2056,2080,2051,2029
2040,2056,2043,2037,2054,2084,2069,2027
2041,2048,2040,2036,2048,2088,2060,2026
2039,2049,2042,2043,2053,2086,2048,2022
2044,2053,2041,2039,2049,2092,2058,2018
2042,2048,2038,2037,2049,2082,2060,2018
2039,2050,2043,2039,2057,2078,2062,2015
2049,2046,2043,2037,2053,2035,2050,2010
2031,2039,2030,2029,2046,1983,2038,2007
2024,2036,2030,2034,2050,1991,2043,2011
2035,2046,2044,2042,2059,2021,2041,2021
2040,2044,2040,2045,2064,2047,2032,2024
2038,2044,2038,2043,2064,2058,2047,2020
2038,2042,2046,2050,2073,2057,2055,2031
2040,2049,2040,2049,2077,2057,2056,2036
2046,2047,2044,2057,2082,2057,2034,2043
2047,2050,2052,2050,2081,2050,2059,2044
2045,2053,2053,2055,2083,2047,2063,2055
2050,2052,2049,2055,2066,2036,2045,2070
2051,2049,2050,2051,2037,2017,2021,2070
2048,2045,2043,2043,1996,1994,2043,2080
2048,2045,2046,2034,1974,1985,2033,2081
2044,2043,2044,2032,1973,1973,2014,2076
2040,2045,2039,2028,1979,1970,2010,2070
2034,2035,2030,2022,1990,1989,1978,2056
2029,2038,2036,2027,1997,2028,2015,2054
2032,2041,2041,2033,2013,2054,2025,2058
2036,2044,2034,2030,2024,2071,1997,2058
2039,2042,2039,2026,2023,2077,2009,2046
2032,2036,2031,2014,2010,2046,2032,2042
2039,2042,2043,2039,2056,2020,2038,2055
2051,2056,2054,2061,2106,2023,2064,2051
2053,2060,2059,2067,2103,2031,2066,2045
2048,2057,2053,2061,2083,2039,2057,2042
2051,2055,2056,2045,2041,2040,2050,2033
2056,2058,2048,2041,2000,2029,2041,2028
2056,2053,2048,2040,1977,2016,2037,2024
2054,2050,2045,2029,1974,2011,2036,2017
2049,2047,2041,2035,1990,2049,2031,2013
2052,2050,2050,2048,2033,2074,2033,2013
2053,2054,2056,2057,2050,2092,2042,2014
2045,2042,2048,2056,2054,2096,2044,2005
2040,2044,2041,2049,2049,2091,2052,2015
2047,2053,2054,2062,2059,2067,2032,2021
2047,2056,2058,2061,2075,2077,2050,2024
2049,2054,2049,2046,2052,2101,2036,2025
2052,2055,2050,2048,2046,2131,2052,2030
2056,2054,2046,2045,2046,2136,2047,2034
2052,2054,2049,2045,2034,2081,2041,2041
2056,2058,2050,2039,2044,2010,2046,2040
2058,2060,2049,2042,2051,2016,2036,2050
2061,2057,2050,2045,2051,2056,2053,2060
2048,2050,2047,2038,2070,2064,2037,2064
2043,2044,2041,2031,2086,2058,2045,2061
2042,2039,2037,2035,2106,2060,2059,2072
2041,2041,2040,2045,2116,2064,2064,2080
2043,2040,2045,2046,2118,2052,2047,2081
2032,2026,2034,2046,2127,2030,2034,2078
2037,2023,2035,2040,2114,2015,2034,2084
2044,2035,2036,2051,2081,2015,2029,2090
2047,2037,2040,2047,2064,2021,2020,2086
2047,2038,2043,2037,2054,2020,2031,2074
2048,2038,2040,2039,2056,2014,2028,2070
2047,2040,2040,2040,2059,2018,2000,2056
2053,2038,2036,2044,2068,2019,2024,2047
2049,2039,2042,2044,2055,1980,2009,2039
2048,2043,2042,2045,2051,1971,2013,2024
2040,2041,2044,2038,2046,2008,2034,2004
2042,2051,2045,2041,2041,2031,2022,1998
2040,2046,2041,2032,2034,2042,2028,1989
2036,2042,2038,2034,2037,2055,2034,1989
2037,2041,2037,2034,2055,2056,2030,1994
2046,2046,2040,2040,2059,2062,2053,1990
2037,2037,2034,2037,2054,2045,2045,1990
2029,2034,2028,2037,2057,2053,2044,1998
2040,2040,2036,2048,2070,2071,2066,2007
2048,2045,2045,2046,2065,2101,2042,2017
2048,2039,2044,2049,2060,2108,2044,2019
2038,2043,2042,2051,2100,2106,2077,2022
2041,2045,2045,2060,2131,2117,2082,2035
2040,2041,2044,2062,2120,2123,2081,2040
2041,2033,2042,2054,2112,2123,2077,2040
2038,2034,2043,2045,2085,2122,2072,2042
2039,2030,2043,2043,2048,2120,2061,2052
2042,2035,2043,2049,2085,2101,2058,2068
2039,2040,2038,2053,2138,2083,2051,2070
2045,2043,2040,2039,2079,2050,2056,2071
2043,2041,2041,2019,2055,2042,2052,2070
2042,2039,2044,2041,2095,2066,2038,2074
2039,2043,2049,2045,2083,2064,2047,2073
2035,2035,2038,2044,2063,2032,2057,2080
2035,2034,2033,2037,2043,2010,2055,2088
2054,2045,2041,2031,1984,2010,2041,2089
2052,2050,2047,2025,1964,2019,2043,2084
2051,2048,2049,2027,2026,2036,2031,2071
2046,2052,2047,2030,2059,2045,2037,2069
2048,2050,2045,2031,2087,2068,2051,2053
2059,2056,2050,2043,2105,2094,2055,2051
2064,2054,2053,2050,2111,2141,2051,2045
2059,2053,2052,2046,2120,2163,2058,2037
2055,2055,2045,2045,2108,2127,2047,2031
2056,2047,2041,2033,2054,2023,2002,2022
2042,2035,2041,2018,2006,1952,2001,2005
2041,2029,2034,2004,1891,1963,1997,2007
2030,2029,2034,1988,1818,1987,1989,2003
2024,2029,2031,1999,1905,2032,2004,1986
2008,2011,2019,2005,1981,2019,2009,1972
2011,2022,2028,2010,2023,1992,2001,1994
2030,2031,2044,2028,2074,2012,2017,1995
2032,2035,2050,2037,2080,2040,2022,2003
2036,2046,2047,2041,2057,2051,2035,1997
2036,2044,2051,2048,2066,2055,2039,2007
2046,2047,2060,2048,2056,2049,2033,1999
2042,2048,2060,2041,2040,2033,2021,2006
2040,2041,2050,2038,2034,2046,2044,2012
2039,2044,2050,2039,2031,2045,2046,2026
2044,2042,2051,2039,2037,2034,2021,2037
2051,2045,2048,2048,2065,2042,2018,2045
2054,2052,2054,2057,2092,2060,2032,2053
2064,2062,2064,2077,2136,2064,2040,2065
2066,2064,2064,2077,2149,2059,2047,2079
2069,2060,2066,2070,2129,2037,2047,2094
2071,2056,2059,2059,2093,2017,2049,2107
2069,2065,2065,2060,2074,2007,2058,2103
2078,2072,2076,2057,2064,1995,2062,2090
2071,2069,2072,2047,2053,1983,2037,2072
2051,2061,2067,2028,2030,1965,2028,2064
2049,2063,2064,2033,2056,1970,2034,2062
2055,2053,2050,2023,2034,1977,2044,2059
2055,2054,2052,2024,1974,2043,2062,2060
2064,2064,2062,2045,2044,2101,2096,2057
2073,2065,2067,2056,2071,2104,2092,2052
2068,2065,2066,2057,2082,2098,2073,2045
2064,2065,2064,2064,2089,2085,2078,2033
2058,2056,2055,2055,2087,2069,2068,2022
2045,2048,2045,2052,2072,2079,2069,2020
2039,2039,2040,2040,2042,2078,2069,2019
2027,2031,2032,2028,2013,2037,2044,2007
2024,2024,2019,2018,2007,2017,2036,2002
2015,2009,2018,2022,2010,2029,2057,2007
2021,2017,2026,2040,2040,2070,2065,2027
2037,2034,2030,2050,2067,2101,2074,2036
2042,2036,2029,2055,2058,2115,2052,2041
2048,2034,2030,2058,2061,2111,2051,2036
2040,2031,2035,2054,2030,2030,2058,2035
2044,2034,2036,2051,2016,2001,2048,2034
2035,2036,2035,2054,2045,2038,2047,2037
2034,2032,2032,2061,2072,2081,2067,2048
2042,2036,2032,2040,2025,2066,2068,2053
2036,2031,2027,2020,2017,2032,2059,2054
2030,2022,2020,2000,1975,1996,2034,2057
2024,2023,2021,1985,1889,1974,2027,2059
2026,2026,2026,1985,1892,1982,2040,2060
2033,2033,2033,2011,1966,2012,2041,2073
2045,2037,2034,2034,2018,2028,2028,2065
2033,2030,2028,2033,2031,2039,2030,2072
2026,2024,2033,2038,2026,2053,2047,2074
2044,2038,2053,2044,2008,2070,2072,2082
2050,2036,2052,2039,1992,2059,2042,2072
2059,2036,2050,2032,1990,2040,2041,2061
2049,2040,2053,2033,2035,2063,2026,2041
2039,2038,2057,2042,2072,2075,2028,2024
2036,2049,2064,2056,2084,2084,2020,2024
2038,2054,2070,2069,2101,2090,2032,2019
2037,2061,2069,2055,2044,2064,2033,2017
2041,2049,2061,2044,2014,2011,2040,2028
2045,2049,2071,2047,2051,2013,2033,2019
2045,2059,2067,2051,2055,2028,2054,2014
2039,2053,2063,2053,2048,2042,2055,2014
2038,2046,2064,2049,2050,2045,2053,2015
2043,2042,2058,2041,2050,2032,2040,2015
2033,2031,2052,2040,2051,2036,2035,2015
2035,2035,2051,2054,2053,2045,2073,2017
2051,2049,2055,2051,2040,2030,2067,2013
2049,2051,2064,2058,2053,2024,2068,2017
2044,2056,2065,2057,2059,2024,2077,2023
2047,2056,2064,2057,2062,2020,2070,2036
2048,2058,2066,2057,2072,2021,2062,2036
2048,2060,2068,2058,2073,2016,2061,2049
2054,2067,2078,2064,2060,2000,2061,2055
2058,2072,2076,2057,2062,1999,2062,2059
2053,2069,2074,2059,2057,1999,2040,2060
2053,2066,2062,2061,2060,2010,2055,2066
2049,2055,2054,2055,2056,2026,2051,2067
2043,2047,2046,2056,2051,2042,2028,2079
2042,2042,2045,2056,2054,2044,2033,2082
2045,2039,2036,2047,2052,2050,2021,2078
2026,2025,2027,2044,2053,2058,2002,2077
2031,2029,2026,2045,2053,2061,2025,2076
2037,2033,2021,2041,2059,2064,2074,2074
2045,2032,2019,2038,2056,2075,2068,2068
2038,2030,2013,2035,2047,2090,2063,2059
2043,2028,2010,2037,2041,2114,2066,2052
2042,2027,2008,2041,2035,2101,2070,2052
2044,2026,2004,2040,2024,2091,2083,2044
2041,2019,1996,2038,2005,2088,2082,2028
2036,2023,1992,2035,2000,2089,2062,2016
2033,2021,1992,2031,1996,2065,2058,2016
2038,2020,1996,2031,1990,1999,2044,2011
2039,2025,1990,2034,1992,1963,2040,2018
2038,2029,2007,2043,2000,1992,2051,2014
2046,2039,2017,2051,2017,2030,2060,2017
2045,2041,2021,2052,2034,2050,2050,2013
2041,2038,2033,2052,2059,2057,2049,2015
2044,2050,2045,2063,2089,2076,2059,2021
2050,2047,2042,2065,2109,2074,2062,2028
2046,2040,2050,2058,2097,2075,2060,2017
2043,2048,2053,2048,2081,2082,2061,2017
2044,2047,2059,2046,2101,2103,2057,2023
2049,2052,2062,2045,2128,2109,2068,2025
2050,2052,2061,2039,2131,2100,2051,2031
2048,2048,2048,2029,2105,2062,2043,2033
2047,2042,2041,2024,2122,2022,2046,2046
2045,2037,2038,2033,2141,2017,2053,2053
2046,2032,2038,2046,2154,2033,2072,2071
2044,2029,2031,2045,2118,2039,2064,2072
2040,2033,2036,2038,2040,2044,2064,2068
2038,2034,2044,2022,1913,2041,2044,2071
2033,2035,2040,2009,1935,2055,2042,2073
2041,2034,2048,2023,1992,2066,2064,2079
2039,2040,2049,2030,2021,2079,2058,2078
2039,2036,2043,2024,2037,2089,2042,2078
2037,2041,2035,2023,2048,2095,2035,2078
2044,2045,2044,2024,2047,2105,2054,2067
2048,2047,2055,2034,2046,2105,2051,2064
2047,2052,2058,2042,2039,2097,2040,2056
2056,2059,2065,2050,2050,2052,2040,2039
2058,2066,2079,2060,2053,2034,2056,2030
2053,2069,2090,2058,2047,2046,2062,2033
2059,2075,2093,2062,2036,2049,2047,2038
2063,2079,2103,2062,2039,2063,2068,2036
2064,2077,2101,2063,2050,2068,2079,2037
2066,2077,2102,2070,2069,2076,2068,2030
2064,2073,2100,2072,2075,2078,2043,2023
2052,2061,2081,2054,2056,2060,2033,2018
2047,2053,2066,2054,2039,2088,2055,2022
2051,2056,2069,2052,2050,2115,2059,2028
2053,2063,2070,2058,2077,2109,2041,2031
2048,2061,2065,2056,2086,2016,2020,2024
2046,2069,2076,2062,2086,1973,2034,2029
2052,2071,2072,2065,2055,2006,2032,2032
2060,2062,2071,2045,1960,2019,2024,2031
2046,2057,2062,2048,1980,2039,2037,2040
2043,2053,2061,2052,2012,2027,2028,2046
2044,2052,2056,2044,2023,2018,2040,2048
2039,2047,2053,2045,2031,2024,2036,2058
2038,2055,2050,2049,2054,2030,2020,2063
2040,2050,2050,2046,2049,2048,2020,2059
2034,2043,2044,2037,2056,2061,2013,2061
2040,2046,2045,2055,2080,2074,2035,2072
2048,2046,2044,2061,2090,2076,2040,2071
2047,2040,2032,2055,2088,2085,2047,2071
2055,2051,2039,2056,2085,2086,2044,2067
2045,2048,2037,2055,2068,2087,2042,2060
2051,2046,2033,2044,2056,2083,2057,2056
2046,2042,2024,2049,2060,2084,2050,2050
2042,2042,2026,2049,2069,2084,2038,2045
2039,2039,2025,2047,2068,2082,2045,2039
2042,2041,2023,2054,2074,2083,2040,2031
2049,2044,2023,2054,2076,2070,2042,2024
2046,2050,2026,2056,2072,2026,2062,2017
2042,2048,2022,2052,2059,2006,2047,2019
2032,2044,2018,2044,2049,2004,2040,2005
2029,2033,2011,2034,2041,2012,2023,2004
2033,2032,2014,2035,2029,2020,2049,2001
2039,2037,2026,2043,2060,2041,2037,2006
2036,2036,2035,2044,2089,2042,2030,2002
2037,2042,2043,2051,2094,2041,2040,2012
2042,2053,2046,2058,2104,2048,2042,2022
2047,2046,2049,2052,2074,2041,2052,2021
2045,2052,2065,2056,2059,2032,2050,2031
2054,2058,2087,2064,2063,2027,2061,2037
2054,2064,2092,2058,2041,2027,2054,2037
2057,2062,2085,2039,1981,2018,2065,2040
2059,2062,2079,2039,1988,2031,2052,2049
2051,2059,2064,2036,1992,2025,2051,2053
2048,2049,2047,2016,1966,2009,2046,2050
2047,2042,2042,2004,1964,2012,2058,2054
2042,2052,2051,2029,2029,2048,2072,2072
2057,2072,2073,2059,2084,2070,2078,2078
2060,2078,2079,2067,2119,2092,2058,2080
2053,2073,2068,2068,2119,2094,2057,2074
2050,2057,2047,2053,2095,2069,2028,2062
2034,2043,2032,2039,2075,2058,2039,2064
2037,2049,2035,2029,2065,2054,2054,2060
2044,2050,2037,2031,2060,2033,2034,2056
2042,2060,2037,2031,2062,2022,2014,2049
2047,2061,2039,2022,2060,2039,2045,2041
2044,2059,2035,2023,2059,2049,2039,2036
2046,2050,2030,2016,2058,2046,2056,2034
2049,2053,2029,2017,2057,2043,2055,2028
2048,2059,2038,2030,2060,2063,2055,2032
2052,2053,2034,2030,2060,2072,2052,2030
2052,2056,2040,2032,2049,2061,2048,2031
2050,2046,2039,2028,2045,2045,2054,2027
2052,2048,2034,2031,2040,2032,2049,2024
2050,2049,2037,2033,2041,2040,2053,2021
2047,2046,2041,2035,2044,2052,2049,2009
2045,2044,2035,2028,2042,2062,2024,2006
2042,2037,2039,2028,2040,2076,2031,2007
2046,2049,2047,2040,2055,2085,2037,2019
2050,2047,2042,2042,2042,2082,2042,2019
2050,2049,2040,2042,2047,2065,2044,2024
2042,2043,2046,2042,2065,2044,2061,2021
2043,2048,2045,2050,2060,2040,2063,2025
2042,2050,2051,2049,2059,2046,2066,2032
2044,2044,2051,2040,2050,2047,2063,2030
2040,2038,2043,2039,2057,2046,2054,2031
2036,2037,2037,2043,2070,2041,2048,2039
2034,2032,2031,2040,2072,2040,2052,2043
2032,2031,2026,2047,2081,2052,2058,2050
2039,2031,2018,2051,2078,2049,2064,2062
2044,2025,2012,2040,2076,2047,2062,2067
2033,2023,2008,2041,2065,2044,2056,2073
2037,2023,2008,2036,2050,2043,2050,2063
2029,2016,2000,2028,2038,2040,2028,2063
2033,2024,2004,2033,2035,2048,2051,2067
2040,2031,1995,2026,2027,2044,2052,2057
2038,2033,1987,2021,2023,2036,2045,2058
2041,2043,1991,2019,2019,2027,2047,2045
2045,2039,1988,2019,2005,2020,2038,2034
2046,2039,1993,2024,2009,2011,2046,2033
2047,2038,2005,2026,2028,2020,2060,2029
2049,2050,2010,2041,2052,2035,2038,2033
2053,2045,2011,2036,2051,2044,2029,2024
2054,2050,2018,2039,2042,2044,2032,2016
2053,2054,2026,2032,2047,2042,2026,2021
2052,2046,2030,2031,2052,2040,2023,2016
2053,2055,2053,2041,2059,2045,2027,2010
2054,2067,2066,2047,2055,2041,2030,2007
2054,2061,2065,2041,2045,2031,2028,1995
2039,2042,2051,2036,2037,2030,2023,1996
2036,2036,2052,2036,2045,2038,2033,2002
2037,2036,2042,2028,2048,2045,2021,2006
2040,2034,2019,2026,2049,2056,2020,2015
2039,2033,2021,2035,2057,2072,2024,2021
2044,2035,2025,2035,2062,2075,2041,2028
2039,2030,2023,2031,2055,2075,2050,2023
2031,2019,2008,2017,2037,2058,2048,2022
2030,2016,2008,2014,2049,2062,2050,2026
2035,2019,2008,2028,2062,2067,2072,2032
2035,2017,2008,2029,2073,2069,2064,2045
2040,2021,2004,2029,2068,2074,2071,2056
2044,2023,2012,2025,2051,2070,2065,2065
2044,2036,2020,2031,2049,2083,2069,2070
2041,2042,2028,2040,2073,2080,2047,2071
2037,2038,2018,2036,2071,2062,2065,2060
2025,2034,2017,2032,2057,2059,2042,2065
2033,2036,2024,2033,2048,2064,2048,2066
2039,2041,2037,2031,2035,2057,2046,2068
2042,2040,2038,2034,2034,2060,2038,2070
2043,2042,2044,2045,2042,2070,2064,2068
2053,2057,2062,2054,2064,2082,2050,2054
2058,2063,2072,2056,2071,2075,2045,2046
2056,2064,2073,2060,2076,2090,2059,2036
2060,2057,2073,2061,2077,2123,2049,2035
2057,2063,2076,2060,2078,2141,2053,2021
2054,2062,2070,2062,2074,2146,2039,2020
2054,2054,2070,2058,2071,2076,2038,2017
2055,2054,2066,2055,2044,1977,2022,2018
2050,2054,2051,2046,2038,1987,2027,2008
2044,2051,2045,2057,2049,2033,2024,2011
2053,2045,2033,2054,2047,2063,2037,1998
2046,2042,2029,2058,2066,2077,2036,1999
2050,2046,2023,2058,2068,2073,2032,2000
2056,2051,2019,2061,2055,2060,2018,2011
2056,2047,2027,2076,2063,2068,2026,2010
2054,2049,2036,2079,2053,2055,2040,2022
2050,2049,2034,2086,2043,2045,2038,2021
2051,2046,2044,2089,2042,2033,2042,2026
2047,2047,2050,2089,2035,1987,2020,2038
2043,2042,2053,2091,2025,1976,2026,2042
2049,2049,2049,2079,2027,1973,2032,2048
2043,2056,2054,2064,2017,1973,2031,2050
2048,2058,2057,2069,2050,1986,2023,2062
2050,2064,2066,2073,2092,2003,2036,2070
2051,2068,2089,2081,2081,2010,2022,2068
2060,2075,2105,2088,2069,2012,2013,2072
2062,2076,2101,2068,2051,2001,2015,2067
2045,2052,2089,2052,2030,2014,2025,2067
2046,2053,2093,2039,2021,2045,2030,2071
2050,2062,2086,2039,2024,2080,2050,2072
2052,2060,2074,2027,2020,2077,2054,2055
2051,2055,2053,2009,2040,2066,2027,2058
2055,2056,2052,2003,2056,2058,2041,2050
2060,2062,2062,2005,2056,2049,2041,2058
2061,2064,2065,2007,2041,2032,2047,2046
2065,2062,2052,2003,2053,2042,2042,2028
2063,2060,2044,2014,2054,2054,2054,2019
2060,2049,2034,2019,2062,2066,2037,2012
2053,2040,2023,2018,2050,2069,2040,2005
2046,2032,2022,2029,2037,2070,2048,2001
2038,2025,2020,2036,2053,2046,2029,2008
2035,2026,2023,2050,2071,2060,2035,2008
2024,2016,2017,2047,2057,2066,2034,2007
2025,2016,2034,2057,2060,2076,2019,2013
2039,2034,2048,2071,2079,2088,2042,2023
2049,2039,2054,2060,2067,2092,2045,2026
2043,2047,2071,2062,2052,2083,2064,2023
2055,2058,2090,2061,2061,2077,2046,2030
2064,2075,2105,2068,2089,2080,2052,2042
2068,2082,2103,2073,2089,2083,2065,2044
2069,2080,2094,2070,2093,2077,2054,2040
2056,2064,2080,2061,2107,2069,2037,2036
2057,2047,2060,2047,2116,2057,2067,2056
2053,2042,2057,2040,2120,2042,2076,2067
2048,2042,2062,2040,2099,2037,2070,2074
2047,2048,2059,2027,2073,2029,2059,2076
2048,2047,2051,2016,2042,2026,2056,2081
2037,2040,2036,1995,1997,2027,2050,2080
2040,2027,2025,1991,1991,2020,2024,2072
2027,2034,2027,1993,1989,2020,2036,2076
2033,2048,2043,1986,1847,2012,2041,2071
2050,2060,2039,1997,1856,2028,2044,2074
2055,2061,2044,2022,1940,2045,2046,2073
2053,2057,2051,2040,1997,2058,2047,2061
2047,2058,2048,2033,2024,2055,2036,2049
2052,2050,2042,2016,1988,2046,2014,2037
2048,2047,2033,2002,1998,2045,2002,2019
2042,2039,2029,2008,2009,2035,2007,2010
2035,2040,2037,2015,1989,2000,2024,2004
2034,2045,2060,2029,2033,1996,2041,2014
2033,2047,2069,2059,2128,2044,2066,2022
2049,2052,2076,2076,2153,2079,2083,2024
2051,2055,2076,2076,2134,2097,2090,2023
2056,2056,2072,2069,2105,2091,2080,2017
2052,2047,2057,2052,2088,2074,2079,2019
2054,2049,2054,2052,2082,2068,2073,2023
2063,2058,2056,2062,2069,2078,2061,2032
2060,2060,2051,2055,2064,2080,2070,2026
2060,2051,2040,2051,2051,2074,2036,2024
2060,2045,2022,2040,2057,2067,2048,2027
2053,2039,2011,2040,2058,2056,2035,2024
2048,2027,1993,2039,2057,2062,2059,2032
2049,2028,1999,2049,2075,2073,2071,2033
2053,2039,2007,2057,2101,2083,2071,2043
2051,2047,2009,2062,2111,2078,2060,2050
2051,2044,2000,2063,2101,2040,2040,2064
2044,2034,1991,2069,2090,2023,2049,2064
2041,2030,1980,2065,2084,2025,2047,2074
2051,2029,1964,2030,2060,2032,2049,2070
2046,2031,1960,2014,2052,2041,2052,2065
2029,2019,1955,2005,2023,2023,2031,2064
2032,2014,1965,2001,2017,2025,2038,2067
2034,2031,1990,2021,2017,2040,2057,2068
2049,2047,2011,2024,2015,2028,2052,2075
2055,2061,2039,2027,2006,2020,2059,2074
2059,2064,2064,2046,1984,2011,2059,2066
2056,2057,2070,2036,1946,2001,2036,2044
2047,2042,2059,2031,1980,2014,2041,2027
2051,2055,2081,2038,2022,2042,2053,2028
2057,2065,2098,2050,2062,2062,2059,2030
2055,2068,2100,2054,2078,2077,2072,2031
2055,2070,2101,2059,2071,2078,2072,2029
2057,2064,2098,2043,2057,2066,2065,2021
2057,2066,2096,2050,2076,2070,2067,2028
2052,2066,2082,2047,2103,2084,2051,2016
2056,2061,2071,2053,2105,2086,2035,2010
2042,2043,2053,2046,2094,2071,2046,2000
2036,2040,2037,2041,2071,2068,2061,2005
2037,2044,2039,2060,2090,2058,2064,2012
2049,2047,2043,2076,2115,2032,2062,2024
2054,2050,2040,2063,2057,2030,2040,2030
2054,2042,2039,2060,2042,2038,2045,2032
2054,2046,2044,2068,2063,2049,2042,2039
2059,2050,2044,2073,2054,2051,2053,2049
2051,2048,2046,2078,2077,2061,2060,2050
2054,2052,2042,2078,2094,2091,2051,2057
2051,2043,2045,2079,2116,2099,2068,2059
2046,2042,2045,2072,2102,2094,2060,2060
2051,2037,2041,2048,2032,2088,2066,2072
2055,2046,2053,2061,2026,2084,2066,2086
2051,2050,2077,2061,2127,2070,2061,2089
2062,2057,2104,2074,2185,2086,2060,2088
2056,2059,2111,2082,2248,2066,2051,2086
2048,2046,2105,2062,2218,2027,2045,2073
2054,2057,2101,2057,2173,2026,2066,2070
2061,2055,2098,2085,2163,2045,2063,2069
2065,2062,2104,2092,2093,2032,2056,2057
2060,2058,2114,2072,1980,1998,2021,2052
2053,2053,2101,2059,1953,2006,2022,2038
2049,2043,2072,2037,1853,2005,2033,2032
2047,2039,2054,2015,1796,2009,2027,2026
2045,2043,2039,1993,1799,2022,2032,2031
2048,2036,2021,1990,1851,2019,2022,2027
2044,2034,2012,1970,1826,2001,2046,2018
2037,2038,2025,1970,1818,1968,2032,2005
2040,2047,2026,1964,1839,1924,2032,1995
2041,2050,2027,2009,1966,1975,2049,2013
2053,2062,2045,2075,2087,2042,2058,2022
2049,2039,2026,2068,2123,2062,2065,2012
2034,2027,2010,2052,2098,2086,2074,2010
2037,2036,2015,2029,2089,2068,2079,2014
2037,2034,2021,2014,2084,2060,2045,2015
2038,2038,2035,2015,2071,2063,2041,2017
2043,2039,2045,2017,2024,2065,2047,2014
2046,2049,2045,2013,1995,2084,2051,2024
2047,2047,2039,2002,1972,2075,2049,2025
2044,2039,2040,1993,1960,2066,2036,2025
2039,2036,2043,2018,2043,2063,2057,2048
2054,2053,2070,2065,2153,2084,2090,2070
2068,2066,2075,2073,2186,2103,2105,2089
2076,2070,2067,2071,2168,2106,2087,2088
2070,2062,2052,2042,2113,2081,2044,2085
2059,2049,2045,2026,2073,2080,2038,2081
2054,2043,2048,2016,2033,2062,2030,2076
2044,2028,2040,1991,1990,2045,2019,2068
2046,2027,2032,1986,1948,2042,2043,2064
2057,2043,2041,1982,1874,2068,2051,2064
2064,2049,2050,2023,1949,2098,2060,2072
2059,2055,2070,2056,2079,2114,2077,2070
2057,2060,2071,2054,2114,2092,2063,2059
2056,2060,2068,2050,2121,2067,2048,2050
2055,2063,2073,2053,2158,2095,2039,2049
2057,2069,2071,2053,2170,2116,2078,2047
2058,2068,2070,2044,2097,2109,2038,2040
2056,2055,2058,2025,2016,2097,2041,2022
2045,2048,2047,2008,1980,2065,2030,2020
2049,2045,2054,2024,2017,2019,2033,2020
2054,2052,2054,2009,1982,2025,2037,2022
2055,2050,2053,2031,2117,2068,2031,2016
2064,2062,2060,2054,2210,2074,2019,2015
2053,2043,2054,2039,2220,2042,2024,2010
2045,2036,2040,2020,2121,2025,2038,2012
2050,2035,2046,2019,2046,2006,2038,2012
2049,2039,2040,2013,1993,1993,2031,2017
2053,2034,2033,2022,1933,2005,2037,2021
2032,2019,2010,2017,1928,1980,2018,2016
2022,2015,2022,2036,1972,1995,2019,2017
2036,2030,2030,2040,2016,2028,2018,2024
2045,2040,2042,2031,1995,2022,2016,2037
2056,2046,2056,2008,1908,2028,2045,2042
2059,2050,2058,2009,1959,2084,2091,2062
2061,2057,2057,2045,2065,2132,2121,2067
2064,2052,2051,2045,2122,2137,2111,2074
2059,2045,2041,2034,2122,2105,2084,2081
2057,2045,2035,2015,2070,2083,2076,2086
2058,2042,2034,1995,1972,2063,2068,2087
2047,2036,2027,1991,1916,2046,2074,2085
2049,2037,2030,1993,1943,2060,2062,2078
2059,2045,2041,2009,2000,2058,2041,2075
2047,2037,2035,2005,1966,2008,2015,2050
2034,2029,2035,2019,2024,2009,2020,2037
2045,2037,2053,2075,2174,2057,2041,2039
2045,2041,2066,2103,2196,2064,2037,2034
2049,2050,2060,2092,2138,2052,2045,2036
2046,2051,2065,2078,2095,2067,2054,2029
2048,2054,2054,2045,1998,2045,2053,2024
2051,2052,2052,2027,1990,2041,2047,2025
2064,2050,2049,2035,2014,2032,2028,2029
2056,2044,2042,2046,2042,2024,2025,2016
2049,2037,2036,2041,2057,2029,2044,2010
2048,2039,2039,2065,2119,2033,2031,1997
2041,2040,2041,2077,2219,2019,2026,1981
2026,2024,2030,2052,2228,2009,2024,1974
2021,2016,2028,2036,2105,2013,2020,1981
2031,2022,2031,2011,1943,2001,2007,1987
2028,2022,2033,2033,1928,2049,2044,2018
2046,2037,2050,2064,1971,2089,2067,2035
2061,2042,2047,2053,1976,2095,2076,2042
2059,2042,2042,2024,1973,2064,2072,2056
2056,2036,2041,1998,1936,2014,2058,2057
2044,2032,2047,2005,1966,2031,2075,2051
2049,2045,2058,2038,2101,2054,2069,2056
2046,2040,2062,2051,2250,2065,2076,2062
2038,2040,2056,2070,2355,2049,2058,2066
2035,2038,2049,2076,2411,2061,2049,2073
2037,2030,2044,2097,2449,2104,2062,2077
2042,2033,2047,2097,2184,2087,2035,2075
2046,2036,2042,2094,1985,2066,2036,2060
2032,2024,2035,2090,2003,2079,2015,2061
2025,2026,2042,2093,2027,2070,1991,2063
2036,2042,2058,2076,1977,1986,1964,2066
2040,2050,2059,2063,1976,1990,2006,2076
2053,2056,2054,2073,2047,2004,2018,2070
2061,2061,2056,2062,2014,2002,2024,2060
2050,2055,2043,2021,1960,1992,2012,2055
2052,2047,2036,2028,2009,2002,2036,2042
2055,2050,2040,2054,2093,2026,2038,2033
2050,2048,2046,2053,2027,2022,2017,2023
2041,2044,2054,2057,2037,2031,2032,2013
2036,2043,2050,2057,2040,2020,2030,2009
2039,2038,2042,2040,2010,2027,2011,2006
2033,2037,2040,2029,1970,2031,2055,2007
2044,2050,2053,2038,1983,2040,2062,2022
2054,2058,2056,2045,1990,2026,2069,2023
2050,2052,2049,2029,1890,1984,2032,2014
2042,2049,2048,2020,1779,1997,2028,2011
2057,2064,2053,2026,1719,2041,2048,2015
2045,2052,2052,2018,1677,2069,2051,2024
2040,2043,2048,2008,1665,2075,2054,2034
2044,2052,2058,2016,1689,2064,2064,2054
2061,2075,2073,2048,1775,2106,2092,2083
2086,2090,2084,2090,2024,2139,2098,2088
2091,2078,2075,2085,2145,2100,2073,2080
2072,2060,2060,2078,2267,2039,2052,2060
2056,2047,2044,2070,2282,2057,2052,2048
2049,2042,2041,2049,2195,2066,2043,2053
2053,2043,2055,2082,2203,2063,2045,2077
2049,2056,2060,2094,2215,2073,2056,2076
2038,2049,2058,2069,1997,2006,2058,2084
2045,2051,2060,2039,1781,1968,2045,2072
2028,2034,2035,1986,1601,1961,2030,2068
2026,2029,2028,2022,1857,2018,2061,2071
2031,2032,2040,2066,2102,2029,2052,2066
2032,2030,2035,2075,2142,2005,2029,2056
2034,2028,2040,2064,2071,1988,2020,2045
2036,2037,2044,2054,2126,1978,2003,2026
2032,2034,2043,2028,2151,1943,2012,2030
2040,2045,2055,2021,2067,1965,2014,2029
2055,2059,2065,2057,2084,1989,2026,2040
2057,2060,2068,2056,2057,2001,2055,2042
2052,2059,2061,2040,2075,2003,2036,2038
2052,2056,2058,2035,2079,1993,2036,2029
2051,2057,2051,2038,2008,1999,2026,2028
2053,2066,2062,2052,1969,2030,2028,2031
2058,2065,2069,2083,2181,2069,2039,2039
2068,2065,2076,2121,2273,2111,2072,2042
2060,2060,2067,2132,2292,2107,2083,2042
2060,2053,2063,2118,2224,2060,2079,2041
2061,2062,2065,2094,2191,2068,2074,2037
2056,2057,2062,2089,2220,2135,2091,2045
2061,2060,2058,2091,2254,2185,2072,2050
2064,2067,2065,2080,2152,2170,2073,2046
2065,2055,2053,2014,1911,2066,2040,2032
2052,2049,2038,1983,1876,1934,2018,2029
2045,2041,2045,2020,1915,1936,2046,2036
2042,2051,2045,2044,2046,2003,2048,2049
2051,2052,2049,2053,2147,2006,2029,2057
2058,2054,2053,2077,2130,2022,2041,2071
2056,2047,2061,2106,2168,2033,2054,2068
2052,2049,2061,2072,2045,2031,2043,2056
2040,2035,2056,2050,2025,2031,2039,2062
2034,2047,2057,2051,2046,2039,2053,2068
2035,2038,2049,2042,1981,2039,2034,2073
2031,2029,2043,2041,1947,2052,2030,2082
2046,2045,2056,2088,2117,2086,2045,2086
2053,2055,2056,2071,2096,2083,2032,2074
2045,2054,2045,2036,2015,2074,2030,2068
2048,2052,2040,2025,1992,2089,2044,2068
2054,2053,2044,2050,2038,2069,2038,2070
2065,2064,2056,2076,2136,2097,2090,2072
2066,2056,2059,2076,2147,2104,2087,2051
2058,2044,2050,2072,2168,2118,2068,2043
2049,2040,2048,2076,2152,2123,2056,2032
2041,2039,2043,2056,2072,2104,2036,2025
2039,2041,2045,2037,2007,2102,2050,2024
2050,2047,2045,2040,2058,2117,2048,2026
2046,2039,2040,2054,2155,2128,2052,2024
2046,2041,2042,2051,2119,2086,2044,2014
2040,2036,2035,2031,2013,2008,2031,2017
2032,2032,2027,2008,1919,1951,2026,2022
2044,2051,2054,2027,1948,1988,2020,2028
2052,2061,2058,2044,2010,2047,2050,2034
2058,2056,2058,2051,2061,2106,2064,2039
2058,2054,2055,2064,2118,2144,2065,2048
2058,2054,2052,2069,2147,2153,2074,2047
2056,2043,2045,2084,2170,2132,2073,2044
2050,2054,2057,2108,2216,2128,2069,2050
2049,2056,2059,2118,2183,2128,2035,2055
2044,2055,2048,2087,2057,2112,2062,2055
2055,2054,2047,2064,2032,2072,2058,2070
2056,2053,2048,2068,2062,2033,2047,2079
2064,2054,2047,2040,1992,2010,2054,2087
2062,2053,2049,2038,1936,2003,2046,2093
2068,2064,2060,2050,1963,2027,2051,2086
2060,2050,2057,2064,2072,2051,2052,2080
2050,2047,2055,2071,2113,2057,2068,2081
2045,2051,2052,2066,2085,2008,2028,2073
2041,2037,2038,2009,1763,1907,2018,2051
2032,2029,2023,1945,1652,1892,2010,2045
2036,2030,2028,1974,1848,1971,2034,2046
2042,2045,2045,2032,2094,2042,2062,2052
2047,2051,2047,2069,2177,2065,2050,2052
2053,2052,2060,2075,2204,2066,2057,2041
2058,2057,2060,2086,2228,2077,2050,2049
2061,2064,2065,2101,2257,2098,2043,2057
2065,2070,2063,2109,2245,2101,2044,2046
2056,2055,2058,2116,2326,2075,2038,2032
2042,2046,2047,2129,2324,2067,2033,2024
2046,2042,2050,2126,2298,2031,2020,2020
2040,2041,2044,2088,2196,1973,1986,2013
2031,2018,2020,2010,1922,1964,1997,2014
2021,2010,2018,1959,1649,1960,2020,2013
2035,2021,2029,1938,1565,1972,2039,2001
2031,2016,2030,1940,1612,1987,2051,2000
2038,2031,2043,2024,1923,2039,2075,2025
2056,2065,2070,2110,2109,2064,2098,2054
2067,2079,2080,2090,2027,2056,2092,2064
2070,2076,2071,2055,1936,2050,2053,2057
2053,2057,2058,2037,1886,2033,2043,2056
2046,2039,2043,1997,1818,1986,2021,2054
2040,2027,2035,1996,1865,1992,2010,2062
2043,2033,2040,2025,1991,2044,2012,2074
2054,2033,2051,2052,2088,2076,2015,2088
2051,2035,2055,2067,2117,2092,2020,2089
2045,2041,2052,2065,2154,2106,2052,2087
2042,2044,2053,2059,2172,2142,2062,2085
2033,2033,2047,2062,2189,2155,2049,2076
2025,2026,2045,2063,2195,2142,2044,2073
2027,2036,2045,2091,2271,2170,2055,2073
2029,2053,2049,2107,2158,2159,2069,2058
2030,2046,2043,2034,1842,2107,2055,2048
2032,2040,2029,1974,1558,2062,2052,2046
2038,2043,2030,1980,1477,2021,2027,2033
2033,2039,2038,2007,1572,1963,2024,2041
2039,2056,2047,2037,1714,1933,2030,2053
2057,2059,2069,2074,1928,1973,2093,2058
2070,2067,2071,2111,2160,2075,2095,2049
2061,2061,2064,2101,2117,2084,2075,2041
2058,2054,2053,2047,1995,2006,2043,2027
2041,2044,2033,2016,2115,1959,2028,2009
2030,2032,2021,1977,2018,1913,2008,2000
2025,2029,2033,2020,2058,1928,2014,1994
2023,2035,2037,2068,2166,1965,2004,1993
2032,2035,2040,2067,2125,1974,2017,1996
2032,2036,2038,2064,2197,2034,2033,2006
2036,2032,2038,2116,2353,2094,2048,2018
2041,2037,2043,2110,2240,2076,2057,2024
2040,2038,2041,2069,2113,2028,2032,2022
2046,2041,2040,2063,2187,2028,2020,2031
2044,2041,2044,2074,2213,2042,2032,2035
2041,2035,2035,2080,2283,2030,2051,2040
2039,2034,2035,2069,2309,2034,2055,2065
2053,2047,2048,2098,2377,2062,2066,2082
2049,2043,2050,2089,2346,2063,2045,2075
2055,2053,2050,2074,2263,2045,2041,2081
2055,2053,2050,2065,2164,2036,2031,2087
2054,2055,2048,2047,2024,2027,2028,2086
2060,2047,2041,2021,1920,2009,2018,2084
2040,2039,2039,2001,1794,1997,2032,2075
2040,2035,2037,2004,1808,2046,2057,2082
2043,2033,2043,2020,1869,2079,2065,2086
2040,2023,2036,2027,1886,2078,2070,2078
2036,2018,2035,2013,1886,2064,2071,2071
2040,2031,2039,2025,1942,2064,2091,2065
2043,2038,2047,2035,1975,2075,2077,2068
2057,2060,2065,2058,2070,2095,2091,2077
2061,2059,2070,2058,2144,2099,2085,2075
2061,2065,2070,2062,2201,2115,2076,2067
2065,2068,2069,2065,2131,2120,2073,2051
2064,2060,2061,2043,2059,2089,2076,2046
2060,2058,2054,2053,2084,2007,2061,2027
2055,2053,2059,2075,2106,1949,2020,2012
2052,2050,2053,2077,2111,1997,2020,2009
2041,2045,2049,2061,2076,2051,2036,2004
2034,2036,2033,2029,1975,2031,2033,2003
2035,2046,2044,2071,2082,2064,2047,2020
2048,2058,2062,2089,2133,2086,2051,2018
2043,2052,2045,2056,2058,2094,2023,2017
2042,2045,2049,2044,2059,2131,2029,2027
2045,2046,2055,2068,2122,2155,2022,2030
2045,2046,2054,2073,2065,2092,2019,2030
2046,2049,2050,2072,1995,1989,2018,2033
2043,2044,2056,2078,2020,1973,2026,2046
2041,2040,2051,2068,2020,2009,2030,2056
2032,2032,2046,2066,2032,2035,2035,2061
2037,2036,2040,2057,2020,2020,2054,2076
2036,2040,2040,2047,2005,1999,2045,2078
2042,2043,2041,2058,2011,1990,2040,2080
2030,2041,2029,2046,2012,2000,2048,2080
2034,2036,2032,2051,2037,2020,2059,2084
2029,2032,2035,2055,2060,2043,2065,2086
2038,2041,2049,2063,2089,2081,2082,2098
2046,2044,2045,2062,2072,2100,2065,2085
2040,2045,2040,2037,2005,2096,2042,2079
2041,2043,2033,2018,1981,2086,2026,2067
2032,2036,2021,2012,1979,2078,2004,2045
2033,2041,2026,2003,1984,2051,2009,2044
2041,2050,2033,2018,2061,2023,2026,2048
2053,2056,2047,2043,2151,2022,2045,2055
2057,2067,2060,2057,2163,2015,2049,2053
2060,2066,2060,2018,2012,1959,2008,2034
2048,2062,2061,2003,1818,1964,2020,2030
2062,2081,2084,2054,1887,2021,2026,2035
2069,2091,2093,2073,1990,2054,2038,2030
2067,2080,2090,2093,2116,2066,2006,2026
2061,2064,2069,2088,2114,2068,2004,2014
2048,2055,2062,2091,2133,2075,2021,2011
2055,2064,2060,2086,2190,2070,2018,2016
2056,2065,2059,2073,2118,2061,2011,2010
2047,2058,2048,2031,1943,2031,2013,2014
2037,2048,2051,2056,2074,2056,2051,2024
2045,2052,2054,2076,2135,2048,2052,2033
2046,2052,2052,2049,2075,2016,2052,2039
2040,2050,2053,2051,2100,2019,2047,2038
2035,2048,2060,2068,2124,2048,2071,2048
2048,2054,2063,2077,2114,2061,2065,2067
2050,2055,2073,2075,2095,2069,2073,2081
2062,2067,2078,2076,2081,2079,2050,2091
2054,2068,2075,2069,2077,2084,2049,2086
2056,2068,2070,2061,2077,2083,2045,2086
2054,2068,2070,2054,2067,2067,2038,2082
2040,2051,2052,2043,2049,2030,2035,2071
2037,2046,2052,2043,2041,2020,2013,2072
2046,2063,2060,2055,2044,2034,2030,2078
2058,2064,2069,2066,2053,2045,2038,2070
2059,2061,2075,2076,2060,2066,2049,2068
2051,2056,2077,2078,2056,2076,2044,2061
2050,2049,2073,2075,2059,2055,2040,2041
2050,2045,2065,2073,2049,2044,2052,2034
2046,2045,2064,2078,2053,2046,2054,2034
2052,2050,2057,2075,2057,2045,2050,2030
2046,2042,2060,2076,2070,2049,2045,2028
2030,2040,2057,2078,2065,2036,2040,2024
2034,2040,2053,2073,2056,2037,2058,2023
2043,2046,2050,2079,2046,2050,2053,2033
2045,2044,2051,2080,2058,2065,2059,2031
2047,2045,2049,2080,2052,2069,2059,2032
2043,2044,2039,2079,2047,2068,2028,2028
2041,2042,2035,2072,2052,2064,2053,2026
2048,2048,2035,2077,2068,2084,2061,2032
2046,2056,2032,2072,2058,2064,2057,2029
2045,2049,2024,2061,2058,2050,2028,2029
2040,2048,2027,2053,2086,2049,2043,2022
2040,2048,2020,2042,2092,2054,2045,2024
2039,2043,2020,2048,2086,2057,2033,2036
2040,2048,2027,2054,2082,2059,2032,2041
2036,2053,2033,2054,2081,2049,2037,2046
2043,2048,2033,2054,2074,2054,2059,2056
2046,2051,2034,2054,2080,2062,2068,2065
2043,2050,2040,2054,2074,2064,2059,2069
2036,2045,2040,2053,2071,2057,2046,2076
2038,2042,2041,2048,2060,2043,2052,2072
2032,2036,2046,2040,2047,2032,2039,2069
2025,2027,2035,2032,2030,2014,2024,2069
2029,2027,2042,2036,2031,2024,2019,2067
2031,2044,2053,2044,2047,2037,2052,2066
2034,2049,2062,2050,2048,2045,2034,2061
2039,2053,2068,2052,2055,2045,2048,2051
2043,2052,2074,2058,2059,2058,2042,2050
2044,2052,2072,2059,2068,2077,2039,2043
2043,2059,2070,2064,2065,2090,2044,2038
2044,2055,2063,2064,2068,2096,2067,2047
2050,2057,2058,2055,2061,2070,2049,2042
2054,2060,2057,2054,2064,2021,2031,2031
2051,2063,2058,2058,2062,2019,2024,2029
2054,2057,2050,2055,2060,2035,2053,2024
2051,2053,2043,2057,2064,2055,2044,2019
2050,2049,2043,2054,2067,2061,2056,2020
2044,2048,2029,2056,2067,2061,2028,2008
2034,2041,2024,2048,2057,2055,2033,2009
2034,2034,2025,2051,2061,2052,2040,2011
2050,2049,2035,2060,2072,2064,2058,2026
2049,2051,2044,2066,2078,2065,2047,2029
2046,2052,2045,2064,2070,2059,2052,2032
2050,2049,2048,2063,2065,2051,2049,2028
2038,2049,2051,2061,2061,2049,2054,2040
2041,2049,2059,2066,2063,2053,2064,2047
2047,2048,2056,2067,2064,2050,2049,2051
2048,2050,2057,2065,2068,2046,2052,2059
2052,2054,2059,2065,2074,2047,2053,2067
2042,2054,2060,2068,2075,2044,2052,2073
2043,2052,2066,2064,2075,2047,2036,2080
2046,2053,2068,2068,2072,2062,2035,2083
2041,2053,2061,2073,2071,2078,2037,2086
2045,2057,2060,2069,2070,2080,2018,2081
2045,2047,2049,2059,2056,2070,2034,2080
2042,2046,2045,2058,2058,2057,2038,2088
2053,2055,2054,2067,2063,2056,2045,2082
2042,2055,2049,2059,2068,2045,2053,2071
2045,2054,2051,2060,2066,2031,2038,2064
2042,2055,2048,2060,2062,2020,2041,2057
2044,2058,2049,2069,2065,2019,2064,2059
2047,2059,2052,2072,2075,2026,2056,2049
2054,2054,2053,2073,2076,2029,2076,2042
2053,2056,2050,2065,2077,2036,2076,2034
2053,2060,2052,2071,2080,2046,2074,2029
2045,2054,2044,2070,2070,2050,2039,2034
2049,2057,2053,2069,2057,2043,2037,2023
2045,2050,2049,2061,2060,2033,2022,2023
2049,2049,2050,2058,2054,2022,2029,2031
2053,2052,2049,2055,2035,2000,2002,2029
2041,2040,2041,2050,2021,1996,2038,2025
2037,2036,2032,2043,2028,2017,2039,2025
2037,2043,2042,2043,2042,2040,2066,2028
2036,2047,2043,2060,2080,2066,2056,2031
2044,2054,2044,2074,2103,2073,2064,2038
2042,2048,2049,2077,2100,2072,2072,2038
2045,2046,2048,2075,2099,2071,2069,2042
2042,2044,2044,2080,2107,2073,2072,2049
2042,2043,2040,2074,2102,2071,2082,2052
2045,2042,2039,2073,2094,2073,2067,2056
2044,2043,2039,2078,2102,2084,2033,2056
2041,2046,2033,2070,2089,2102,2074,2050
2045,2039,2030,2065,2090,2072,2067,2056
2038,2032,2027,2058,2082,2043,2054,2062
2031,2033,2024,2058,2074,2033,2049,2064
2036,2032,2028,2056,2063,2015,2026,2068
2032,2026,2022,2052,2053,2010,2029,2074
2037,2028,2019,2051,2050,2007,2040,2084
2048,2040,2026,2055,2055,2001,2032,2079
2051,2045,2031,2055,2056,1988,2026,2069
2047,2043,2031,2053,2049,2005,2030,2066
2043,2046,2029,2049,2047,2040,2034,2056
2041,2037,2029,2047,2045,2067,2045,2050
2047,2042,2036,2049,2053,2087,2058,2049
2049,2050,2038,2053,2060,2087,2050,2054
2060,2052,2041,2055,2075,2076,2054,2049
2062,2065,2054,2065,2080,2079,2072,2046
2066,2074,2063,2068,2093,2118,2072,2046
2069,2073,2065,2069,2080,2120,2046,2032
2065,2082,2069,2067,2076,2138,2034,2022
2062,2074,2072,2068,2071,2178,2055,2024
2054,2072,2065,2066,2069,2148,2048,2017
2055,2057,2052,2053,2063,2060,2031,2010
2043,2055,2049,2053,2067,1976,2028,2010
2051,2060,2046,2049,2049,1977,2021,1999
2038,2046,2040,2046,2034,1992,2023,1996
2037,2044,2036,2044,2031,2008,2038,2002
2034,2038,2038,2053,2056,2038,2052,2019
2042,2045,2036,2064,2091,2057,2052,2029
2048,2041,2041,2062,2090,2063,2065,2040
2044,2043,2041,2056,2077,2058,2060,2045
2043,2038,2033,2054,2069,2051,2040,2048
2050,2043,2037,2057,2064,2044,2050,2058
2054,2039,2034,2059,2059,2066,2035,2068
2047,2041,2030,2056,2060,2080,2028,2068
2040,2043,2035,2058,2053,2083,2060,2068
2043,2044,2036,2052,2052,2087,2030,2061
2040,2045,2035,2056,2056,2064,2028,2061
2038,2039,2033,2059,2068,2037,2032,2066
2038,2040,2035,2059,2075,2070,2030,2073
2047,2055,2051,2065,2075,2107,2070,2073
2051,2052,2050,2061,2074,2129,2070,2066
2042,2048,2050,2060,2065,2122,2066,2068
2050,2056,2051,2065,2056,2065,2056,2064
2048,2057,2051,2066,2045,1942,2055,2048
2054,2052,2052,2064,2057,1938,2056,2048
2052,2049,2044,2063,2060,1978,2062,2040
2049,2050,2040,2058,2049,2002,2054,2027
2040,2045,2035,2059,2044,2017,2042,2024
2044,2048,2036,2057,2043,2022,2036,2017
2035,2050,2043,2055,2038,2004,2030,2016
2050,2053,2046,2053,2034,2007,2031,2015
2047,2061,2050,2062,2054,2037,2033,2013
2051,2060,2055,2064,2074,2056,2032,2016
2039,2050,2044,2060,2076,2047,2028,2019
2038,2048,2038,2059,2072,2039,2028,2016
2046,2059,2046,2059,2064,2053,2037,2018
2049,2058,2046,2056,2045,2060,2045,2026
2058,2057,2045,2046,2030,2052,2051,2039
2047,2054,2044,2040,2020,2047,2029,2029
2048,2056,2041,2034,2015,2006,2023,2040
2049,2062,2046,2040,2047,2009,2030,2059
2059,2064,2052,2059,2087,2036,2060,2067
2062,2068,2062,2065,2085,2038,2049,2068
2059,2068,2064,2063,2084,2055,2085,2067
2060,2068,2068,2061,2082,2083,2081,2065
2049,2065,2063,2058,2075,2103,2077,2066
2050,2058,2060,2061,2060,2107,2056,2075
2052,2064,2058,2061,2056,2091,2055,2087
2046,2066,2064,2054,2050,2046,2037,2080
2040,2053,2046,2049,2037,2002,2041,2076
2044,2045,2037,2037,2047,2015,2036,2074
2040,2051,2047,2043,2048,2038,2049,2074
2035,2047,2041,2045,2051,2045,2050,2066
2036,2051,2040,2049,2049,2045,2041,2064
2047,2053,2041,2049,2052,2047,2037,2057
2049,2053,2047,2054,2055,2044,2033,2056
2049,2056,2046,2052,2059,2044,2029,2051
2050,2052,2049,2059,2065,2048,2049,2046
2050,2052,2041,2060,2068,2052,2059,2043
2052,2050,2040,2065,2067,2062,2057,2047
2049,2054,2040,2060,2071,2067,2060,2052
2045,2053,2035,2063,2084,2063,2056,2039
2052,2051,2027,2057,2094,2070,2068,2030
2049,2049,2030,2049,2074,2077,2072,2022
2046,2047,2022,2043,2060,2080,2058,2015
2035,2031,2010,2035,2048,2068,2066,2010
2039,2034,2014,2038,2055,2071,2060,2020
2047,2043,2024,2049,2041,2065,2057,2024
2045,2046,2018,2045,2022,2069,2054,2026
2041,2044,2018,2042,2019,2067,2058,2028
2042,2046,2017,2043,2027,2054,2051,2035
2042,2045,2016,2039,2013,2046,2041,2030
2041,2046,2021,2043,2032,2039,2055,2041
2040,2048,2026,2050,2076,2024,2060,2048
2045,2051,2035,2060,2084,2003,2077,2054
2050,2056,2044,2062,2058,1991,2078,2059
2050,2055,2050,2062,2042,2006,2064,2064
2044,2056,2054,2057,2039,2028,2043,2073
2044,2054,2057,2057,2036,2052,2060,2074
2050,2053,2059,2054,2037,2045,2048,2076
2040,2047,2056,2045,2022,2030,2059,2070
2030,2039,2043,2032,2005,2019,2052,2073
2027,2041,2050,2029,1993,2033,2053,2080
2042,2052,2069,2038,1998,2039,2044,2081
2047,2056,2077,2038,2058,2050,2072,2073
2049,2058,2076,2061,2075,2056,2062,2068
2054,2070,2086,2063,2088,2043,2060,2068
2052,2072,2082,2058,2058,2036,2074,2064
2056,2071,2084,2052,2029,2043,2066,2048
2058,2066,2068,2038,1992,2033,2066,2027
2046,2060,2059,2029,1981,2022,2062,2025
2041,2064,2057,2027,1936,2015,2043,2027
2045,2053,2056,2027,1984,2032,2055,2026
2045,2053,2059,2060,2096,2086,2064,2022
2045,2054,2051,2074,2122,2090,2071,2018
2040,2049,2058,2061,2082,2084,2068,2021
2047,2055,2057,2052,2069,2082,2070,2017
2041,2043,2044,2053,2041,2069,2065,2018
2049,2045,2046,2047,2023,2072,2063,2033
2056,2058,2056,2038,1964,2072,2061,2033
2060,2058,2058,2029,1982,2068,2059,2034
2057,2058,2062,2035,2025,2072,2059,2044
2057,2053,2063,2048,2039,2072,2065,2042
2052,2053,2059,2041,2037,2061,2057,2054
2052,2053,2057,2041,2038,2058,2056,2057
2057,2058,2062,2054,2119,2082,2062,2068
2057,2056,2060,2067,2144,2093,2065,2067
2060,2061,2064,2073,2126,2089,2062,2077
2054,2060,2063,2058,2067,2050,2045,2070
2051,2061,2057,2029,1979,2021,2027,2071
2050,2064,2056,2054,2052,2009,2018,2078
2054,2060,2056,2063,2081,1968,2008,2071
2056,2054,2044,2039,2059,1952,1995,2069
2046,2040,2031,2031,2080,1997,2032,2067
2045,2039,2037,2040,2085,2021,2054,2083
2056,2063,2044,2055,2129,2042,2058,2074
2057,2062,2053,2057,2123,2048,2048,2080
2058,2063,2055,2051,2098,2040,2027,2076
2051,2061,2047,2045,2028,2035,2018,2069
2048,2053,2039,2013,1879,2046,1990,2051
2050,2059,2042,2025,1923,2076,1993,2039
2036,2056,2045,2032,1971,2074,2000,2028
2034,2047,2038,2028,1994,2058,2000,2016
2018,2044,2026,2014,2020,2051,1989,2019
2021,2036,2023,2004,2003,2026,1998,2012
2024,2038,2023,2002,1953,2014,2004,2009
2029,2038,2019,1995,1934,2053,2028,2002
2029,2038,2022,2006,1979,2105,2061,2001
2032,2038,2032,2019,2017,2102,2041,2012
2033,2032,2027,2031,2074,2104,2052,2024
2038,2031,2038,2053,2118,2093,2083,2045
2055,2050,2055,2076,2154,2096,2078,2042
2053,2057,2052,2076,2152,2134,2080,2037
2049,2056,2043,2066,2126,2136,2099,2045
2052,2053,2051,2047,2043,2101,2094,2052
2053,2057,2048,2028,1981,2069,2085,2051
2052,2062,2047,2029,1952,2021,2070,2042
2047,2053,2043,2027,1963,2001,2055,2050
2044,2052,2043,2034,1985,2043,2055,2060
2042,2053,2036,2028,1985,2076,2061,2058
2045,2046,2038,2032,1978,2096,2070,2075
2044,2047,2037,2029,1963,2096,2056,2074
2045,2054,2043,2031,1970,2073,2067,2097
2060,2063,2061,2049,2012,2060,2060,2108
2067,2069,2058,2060,2038,2067,2049,2100
2059,2061,2044,2064,2034,2034,2040,2100
2057,2060,2047,2069,2069,1931,2028,2091
2056,2061,2043,2058,2032,1953,2019,2073
2054,2058,2041,2064,2065,1997,2018,2065
2051,2049,2037,2054,2090,2030,2057,2066
2052,2045,2030,2047,2076,2054,2064,2060
2050,2033,2024,2010,1988,2008,2053,2057
2040,2034,2023,1998,1918,2007,2050,2047
2044,2033,2024,2005,1926,2014,2056,2048
2050,2033,2023,2004,1948,2028,2058,2043
2049,2027,2023,2008,1975,2023,2044,2042
2038,2027,2023,2015,1993,2002,2018,2031
2045,2026,2020,2030,2034,1905,2002,2017
2030,2018,2016,2023,2039,1900,2021,2006
2025,2013,2016,2022,2060,2009,2044,2002
2035,2023,2022,2055,2113,2099,2040,2006
2037,2029,2031,2062,2116,2113,2034,2009
2045,2036,2029,2056,2092,2117,2060,2021
2060,2046,2036,2051,2061,2113,2044,2018
2047,2039,2030,2039,2009,2075,2012,2006
2046,2033,2027,2023,1966,2020,2011,2014
2046,2036,2034,2022,1960,1978,2007,2029
2053,2054,2050,2044,2008,1968,2039,2058
2074,2077,2081,2092,2083,1976,2061,2074
2081,2080,2086,2104,2143,1977,2044,2082
2073,2075,2078,2100,2164,2007,2049,2079
2077,2072,2080,2083,2140,2044,2044,2083
2066,2073,2070,2062,2078,2044,2057,2072
2060,2062,2055,2042,2033,2044,2056,2071
2050,2054,2045,2024,2018,2044,2038,2076
2053,2055,2045,2027,2039,2069,2075,2086
2058,2058,2049,2025,2053,2072,2080,2085
2055,2049,2037,2023,2044,2056,2074,2084
2054,2045,2034,2030,2037,2020,2079,2089
2056,2059,2046,2028,2043,2006,2070,2087
2061,2060,2052,2023,2041,2029,2083,2081
2064,2061,2046,2026,2052,2058,2072,2075
2066,2059,2052,2035,2116,2074,2049,2074
2070,2064,2053,2041,2141,2074,2065,2067
2063,2064,2047,2034,2147,2078,2054,2061
2067,2061,2048,2043,2156,2101,2056,2067
2072,2061,2042,2044,2147,2105,2058,2060
2071,2052,2041,2037,2116,2094,2040,2047
2059,2045,2029,2035,2074,2076,2027,2037
2046,2042,2022,2021,1932,2063,2031,2024
2043,2038,2024,2016,1895,2063,2019,2026
2052,2045,2023,2020,1968,2038,2037,2029
2052,2049,2023,2029,2012,2025,2025,2024
2047,2036,2011,2024,2032,2046,2034,2023
2047,2038,2009,2036,2047,2061,2050,2027
2054,2048,2017,2042,2050,2059,2069,2031
2061,2045,2016,2030,2004,2042,2055,2035
2059,2041,2015,2020,1970,2015,2043,2033
2057,2044,2022,2021,1974,1998,2049,2036
2057,2042,2035,2020,1981,1997,2052,2040
2050,2039,2038,2027,2004,1998,2053,2048
2050,2039,2041,2018,2021,2007,2057,2045
2053,2041,2043,2027,2011,2014,2052,2053
2053,2047,2047,2032,2013,2021,2029,2067
2056,2050,2051,2039,2015,2031,2053,2078
2054,2052,2055,2043,2016,2040,2068,2084
2061,2048,2058,2042,2016,2041,2062,2086
2056,2049,2047,2033,1993,2034,2053,2087
2055,2044,2046,2025,2000,2034,2049,2084
2040,2034,2035,2022,2014,2036,2043,2081
2037,2026,2031,2023,2012,2033,2052,2085
2052,2045,2032,2039,2061,2059,2058,2091
2049,2044,2042,2056,2065,2061,2058,2087
2058,2050,2053,2059,2023,2045,2055,2090
2064,2046,2054,2050,2014,2044,2066,2084
2063,2050,2039,2054,2010,2051,2061,2065
2061,2050,2031,2051,2007,2049,2058,2061
2054,2038,2020,2048,2005,2041,2043,2046
2048,2031,2020,2055,2018,2040,2041,2041
2057,2036,2031,2067,2025,2043,2041,2045
2055,2043,2038,2081,2037,2042,2046,2038
2051,2039,2040,2080,2048,2046,2045,2032
2048,2036,2034,2074,2047,2052,2046,2027
2051,2037,2028,2064,2042,2066,2044,2028
2050,2039,2031,2064,2047,2062,2051,2022
2044,2030,2027,2062,2042,2054,2024,2024
2044,2034,2028,2060,2045,2049,2033,2020
2052,2041,2039,2054,2045,2050,2055,2023
2051,2042,2044,2043,2037,2043,2047,2025
2053,2043,2045,2037,2029,2030,2039,2030
2048,2045,2050,2025,2009,2031,2049,2034
2046,2039,2051,2026,2025,2049,2063,2040
2047,2045,2049,2022,2021,2061,2060,2045
2049,2035,2033,2003,2005,2050,2057,2048
2047,2029,2019,1996,1990,2028,2032,2054
2043,2026,2023,1982,1972,2008,2027,2062
2047,2034,2033,1980,1978,2016,2027,2073
2052,2049,2035,1980,1994,2035,2058,2080
2057,2063,2045,1982,2027,2054,2065,2087
2065,2065,2056,1995,2046,2052,2070,2100
2068,2071,2059,2002,2051,2040,2035,2103
2067,2066,2058,2000,2034,2022,2040,2098
2055,2063,2064,2000,2003,2020,2034,2087
2051,2064,2074,2011,2013,2028,2021,2088
2045,2063,2082,2023,2034,2049,2044,2090
2059,2063,2086,2032,2035,2062,2047,2090
2060,2065,2081,2034,2040,2063,2050,2089
2069,2065,2082,2041,2035,2056,2036,2082
2065,2071,2091,2043,2027,2060,2060,2072
2064,2081,2100,2047,2035,2065,2060,2070
2072,2085,2102,2055,2037,2073,2059,2062
2068,2082,2092,2058,2030,2067,2048,2063
2063,2078,2082,2049,2033,2052,2045,2065
2068,2078,2072,2045,2024,2044,2035,2053
2070,2075,2065,2052,2035,2044,2042,2047
2070,2068,2061,2064,2063,2038,2067,2044
2068,2062,2070,2080,2073,2048,2040,2037
2053,2050,2066,2084,2074,2042,2030,2037
2050,2039,2052,2087,2074,2036,2022,2031
2054,2043,2044,2092,2095,2041,2045,2049
2060,2045,2037,2100,2096,2044,2067,2051
2054,2045,2036,2090,2091,2047,2078,2057
2064,2042,2018,2082,2076,2044,2080,2062
2064,2043,2000,2047,1973,2021,2072,2063
2056,2042,1995,2042,1949,2004,2068,2065
2057,2039,2008,2065,1993,2035,2076,2070
2055,2035,2012,2068,2014,2033,2078,2078
2050,2031,2009,2058,2015,2012,2070,2073
2047,2023,1984,2050,2012,1999,2058,2081
2049,2019,1977,2047,1999,2005,2055,2084
2043,2014,1977,2049,2064,2001,2051,2076
2038,2008,1973,2035,2075,1994,2049,2085
2035,2006,1978,2017,2058,2002,2056,2087
2027,2003,1983,1981,2019,2007,2040,2075
2020,2001,1997,1971,2017,2069,2049,2081
2029,2027,2023,1982,2033,2095,2045,2090
2047,2048,2031,1969,1991,2070,2035,2087
2056,2044,2012,1965,1994,2060,2037,2092
2052,2040,1995,1970,2014,2068,2061,2076
2054,2038,1986,1975,2000,2054,2065,2068
2053,2035,1975,1968,1971,2038,2053,2059
2048,2032,1970,1975,1961,2035,2056,2061
2059,2036,1974,1980,1972,2035,2052,2055
2053,2035,1979,1982,1982,2042,2061,2055
2046,2033,1985,1982,1986,2054,2057,2048
2056,2039,2016,1990,2002,2053,2059,2053
2056,2050,2044,1999,2008,2037,2045,2044
2058,2060,2068,2018,2000,2036,2056,2040
2062,2075,2090,2046,2038,2060,2053,2045
2059,2064,2092,2042,2033,2055,2038,2033
2045,2045,2090,2042,2027,2051,2032,2027
2041,2045,2095,2050,2037,2055,2035,2038
2055,2061,2106,2048,2041,2055,2054,2042
2060,2066,2103,2042,2050,2069,2041,2043
2068,2066,2098,2047,2055,2079,2050,2052
2064,2068,2096,2047,2044,2088,2065,2060
2064,2064,2096,2051,2039,2086,2064,2058
2057,2061,2109,2061,2041,2076,2064,2061
2066,2067,2122,2074,2054,2066,2063,2065
2061,2059,2118,2078,2050,2062,2054,2065
2057,2051,2104,2075,2045,2036,2047,2071
2054,2043,2088,2061,2032,2016,2052,2075
2047,2040,2081,2040,2028,1999,2047,2084
2046,2044,2070,2045,2025,1993,2044,2092
2052,2048,2067,2046,2027,1985,2022,2096
2049,2049,2063,2056,2026,1995,2014,2080
2039,2040,2053,2058,2033,2022,2034,2088
2052,2048,2058,2078,2037,2050,2052,2090
2059,2066,2071,2087,2033,2066,2057,2099
2065,2067,2080,2100,2034,2067,2069,2091
2067,2064,2077,2107,2037,2070,2050,2086
2065,2054,2066,2106,2038,2072,2049,2076
2055,2051,2061,2099,2032,2054,2026,2051
2053,2045,2049,2081,2038,2048,2028,2050
2052,2031,2027,2080,2038,2042,2039,2044
2050,2023,2011,2078,2031,2032,2044,2041
2051,2024,2008,2063,2018,2022,2052,2044
2053,2022,2012,2063,2028,2022,2035,2043
2051,2038,2028,2072,2056,2031,2042,2040
2059,2050,2058,2082,2062,2037,2060,2040
2065,2059,2073,2081,2075,2055,2066,2037
2063,2064,2068,2076,2072,2057,2065,2035
2059,2051,2050,2055,2057,2055,2076,2034
2051,2045,2036,2035,2011,2049,2067,2040
2061,2049,2029,2019,1996,2054,2054,2042
2061,2049,2032,1986,1988,2055,2061,2051
2063,2058,2036,1977,1982,2052,2065,2053
2075,2058,2036,1974,1969,2048,2062,2061
2071,2058,2030,1969,1962,2039,2056,2058
2067,2051,2023,1953,1984,2032,2053,2057
2061,2046,2011,1954,2021,2037,2059,2055
2058,2035,2001,1960,2032,2036,2058,2062
2055,2030,2004,1973,2017,2029,2056,2070
2052,2028,2010,1980,2016,2034,2049,2074
2050,2027,2012,1988,2014,2030,2056,2080
2045,2024,2016,1987,2032,2036,2067,2075
2045,2022,2005,1990,2038,2047,2062,2096
2047,2015,1989,1987,2035,2041,2049,2091
2035,1999,1966,1986,2039,2058,2045,2090
2043,2002,1971,1997,2039,2087,2095,2106
2056,2019,1991,2016,2038,2119,2085,2106
2058,2023,1991,2016,2026,2110,2094,2095
2053,2021,1988,2018,2026,2089,2086,2092
2057,2025,2003,2032,2026,2062,2058,2092
2064,2035,2017,2047,2037,2070,2063,2084
2064,2041,2047,2066,2042,2049,2048,2068
2060,2042,2072,2070,2040,2056,2058,2052
2056,2045,2077,2077,2044,2114,2036,2034
2055,2047,2072,2082,2043,2170,2029,2028
2056,2039,2060,2077,2029,2143,2028,2019
2052,2041,2066,2084,2038,2022,2019,2018
2059,2054,2075,2110,2042,1956,2018,2026
2054,2054,2070,2117,2047,2027,2016,2027
2054,2052,2064,2120,2043,2096,2055,2022
2048,2041,2030,2099,1997,2058,2039,2009
2042,2046,2014,2078,1971,1946,2035,2016
2054,2063,2004,2078,1971,1946,2044,2017
2059,2068,2001,2071,1980,1973,2066,2026
2066,2072,2000,2067,2023,1982,2068,2039
2064,2071,1997,2054,2060,2009,2087,2037
2061,2049,1986,2032,2098,2040,2081,2043
2060,2035,1973,2016,2147,2062,2088,2061
2057,2032,1974,2008,2174,2049,2073,2061
2058,2038,1988,2007,2169,2034,2055,2060
2061,2048,2031,2026,2166,2021,2043,2059
2063,2052,2053,2054,2149,2004,2045,2058
2054,2049,2087,2078,2134,2000,2034,2054
2039,2043,2098,2085,2096,1996,2032,2059
2037,2034,2087,2060,1977,1996,2035,2066
2034,2020,2073,2043,1902,2003,2034,2073
2026,2014,2055,2042,1928,2025,2025,2068
2023,2013,2024,2041,1966,2039,2014,2077
2033,2026,2030,2036,1986,2052,2038,2074
2039,2038,2044,2067,1994,2055,2050,2064
2040,2054,2079,2102,2017,2067,2050,2061
2060,2076,2088,2131,2037,2074,2059,2062
2072,2076,2065,2152,2060,2078,2054,2049
2065,2076,2057,2155,2067,2069,2052,2050
2062,2069,2038,2138,2064,2061,2034,2043
2063,2057,2027,2109,2052,2076,2057,2030
2053,2057,2024,2082,2031,2083,2050,2026
2048,2059,2027,2063,2009,2075,2050,2012
2055,2074,2039,2048,2005,2070,2053,2017
2058,2087,2041,2030,2002,2053,2068,2024
2060,2080,2037,2026,2034,2032,2068,2023
2049,2065,2027,2024,2061,2029,2057,2023
2039,2047,2018,2014,2058,2025,2045,2017
2037,2042,2029,2023,2053,2042,2048,2020
2045,2059,2060,2041,2031,2058,2066,2031
2052,2071,2108,2062,2026,2048,2041,2037
2055,2090,2133,2074,2037,2053,2059,2049
2059,2078,2126,2067,2046,2045,2064,2053
2054,2081,2135,2058,2046,2053,2057,2053
2062,2087,2145,2066,2070,2067,2059,2063
2062,2088,2145,2073,2070,2089,2072,2075
2080,2090,2173,2099,2073,2107,2069,2081
2085,2103,2194,2125,2075,2106,2068,2076
2083,2103,2194,2142,2068,2095,2068,2074
2072,2093,2172,2157,2074,2062,2060,2084
2074,2085,2142,2158,2076,2026,2065,2099
2070,2073,2103,2153,2079,2034,2061,2085
2062,2058,2067,2137,2060,2045,2059,2077
2046,2045,2039,2107,2012,2033,2044,2068
2037,2036,2027,2085,1983,2018,2039,2068
2031,2039,2019,2075,1982,2010,2039,2064
2031,2039,2003,2049,1981,2015,2035,2062
2035,2034,1997,2046,2013,2033,2064,2060
2046,2053,2011,2056,2054,2042,2069,2051
2045,2048,2002,2039,2070,2054,2055,2045
2037,2033,1983,2012,2072,2072,2062,2036
2036,2027,1965,1980,2047,2072,2055,2030
2041,2035,1974,1970,2022,2056,2062,2028
2042,2040,2000,1971,2025,2065,2070,2032
2045,2053,2015,1980,2045,2068,2081,2034
2057,2058,2036,1967,2044,2067,2077,2040
2063,2058,2038,1960,2036,2061,2071,2037
2060,2065,2056,1982,2039,2061,2077,2036
2070,2073,2069,2012,2046,2057,2057,2030
2068,2075,2064,2021,2036,2042,2037,2022
2055,2055,2058,2034,2029,2028,2017,2014
2046,2053,2077,2051,2038,2040,2035,2017
2047,2063,2086,2039,2019,2038,2040,2019
2045,2054,2070,1987,2000,2031,2029,2027
2037,2046,2066,1972,1998,2035,2040,2041
2052,2071,2098,2001,2025,2048,2055,2049
2059,2093,2122,2045,2051,2062,2068,2058
2065,2104,2123,2066,2058,2053,2075,2057
2070,2099,2118,2076,2057,2049,2083,2057
2072,2095,2108,2075,2059,2045,2073,2068
2072,2093,2113,2080,2061,2037,2079,2070
2069,2090,2134,2084,2069,2045,2079,2079
2068,2088,2124,2081,2067,2057,2074,2082
2064,2061,2104,2064,2051,2058,2074,2090
2058,2045,2069,2050,2036,2055,2066,2095
2047,2034,2034,2025,2024,2045,2065,2080
2038,2019,1999,2008,2022,2035,2056,2077
2035,2025,2001,2012,2003,2035,2068,2085
2045,2029,1997,2019,1975,2029,2068,2074
2043,2031,1983,2023,1967,2028,2059,2069
2049,2035,2002,2029,1971,2032,2068,2060
2051,2043,2015,2018,1980,2020,2061,2053
2052,2046,2026,2054,2016,2013,2064,2058
2058,2045,2036,2068,2041,2020,2073,2055
2053,2041,2019,2044,2021,2017,2062,2037
2034,2017,2006,2022,2028,2044,2059,2024
2039,2038,2036,2055,2080,2063,2060,2035
2063,2069,2073,2080,2098,2069,2076,2038
2064,2079,2064,2087,2087,2072,2065,2040
2072,2074,2055,2079,2089,2081,2077,2037
2072,2066,2060,2081,2082,2076,2073,2036
2061,2048,2051,2083,2067,2061,2041,2020
2041,2032,2042,2075,2055,2062,2041,2023
2043,2035,2051,2067,2055,2067,2057,2028
2056,2050,2064,2063,2065,2072,2083,2036
2069,2064,2089,2080,2075,2076,2091,2050
2070,2075,2098,2090,2064,2070,2082,2049
2077,2083,2105,2103,2077,2058,2070,2048
2069,2083,2107,2108,2073,2049,2071,2048
2064,2084,2101,2108,2068,2051,2070,2058
2063,2079,2100,2104,2073,2052,2072,2072
2061,2085,2095,2104,2069,2062,2076,2073
2048,2078,2080,2089,2070,2066,2067,2082
2048,2070,2056,2076,2077,2065,2065,2079
2046,2063,2059,2048,2061,2061,2068,2080
2043,2056,2056,2032,2058,2060,2078,2085
2043,2053,2051,2006,2040,2050,2051,2085
2040,2041,2032,1972,2020,2039,2048,2079
2031,2025,2012,1947,2010,2031,2061,2086
2042,2041,2042,1967,2014,2042,2066,2085
2053,2059,2071,1991,2023,2041,2067,2085
2053,2068,2071,1979,2019,2042,2066,2083
2051,2066,2068,1991,2024,2034,2057,2079
2054,2071,2069,2020,2033,2046,2048,2073
2054,2072,2074,2028,2040,2046,2064,2061
2059,2071,2071,2027,2033,2048,2060,2056
2053,2068,2063,2032,2037,2047,2053,2040
2054,2064,2063,2037,2040,2064,2054,2038
2050,2060,2057,2035,2052,2103,2041,2030
2048,2053,2057,2033,2028,2120,2026,2019
2048,2056,2054,2029,2011,2117,2033,2015
2046,2055,2056,2024,1990,2099,2047,2025
2043,2055,2064,2037,2003,2030,2058,2034
2053,2056,2061,2053,2073,1973,2048,2038
2051,2043,2054,2057,2082,1989,2053,2041
2052,2050,2057,2059,2078,2029,2050,2042
2059,2049,2050,2047,2055,2049,2035,2047
2054,2054,2049,2044,2043,2065,2044,2046
2053,2059,2046,2047,2051,2070,2059,2037
2053,2055,2049,2041,2038,2070,2073,2045
2047,2045,2043,2024,1990,2067,2074,2047
2045,2046,2030,2022,2008,2069,2059,2049
2053,2042,2016,2021,2010,2053,2054,2064
2057,2052,2019,2036,2014,2023,2040,2076
2053,2040,2016,2031,1973,2032,2012,2082
2048,2038,2004,2019,1936,2050,2023,2068
2040,2018,1982,2004,1918,2084,2019,2061
2033,2013,1983,2004,1938,2123,2033,2076
2045,2024,1982,2033,2005,2129,2071,2086
2051,2020,1974,2051,2089,2139,2080,2091
2049,2018,1960,2051,2095,2089,2093,2100
2046,2029,1969,2061,2034,2006,2065,2095
2051,2038,1977,2062,2041,1979,2043,2080
2042,2035,1971,2050,2061,1995,2049,2058
2027,2024,1956,2036,2036,2012,2005,2049
2020,2013,1937,2029,1989,2016,2005,2040
2028,2015,1961,2038,1961,1987,2015,2045
2027,2023,1996,2059,1988,1973,2029,2043
2040,2048,2035,2078,2015,1990,2045,2046
2048,2065,2062,2093,2028,2018,2038,2035
2043,2058,2074,2097,2041,2061,2055,2034
2046,2062,2082,2082,2033,2080,2057,2031
2052,2064,2093,2065,2042,2067,2040,2020
2046,2050,2085,2058,2070,2057,2031,2016
2043,2047,2086,2070,2092,2047,2022,2026
2052,2058,2104,2106,2092,2041,2014,2032
2058,2070,2119,2138,2079,2046,2020,2038
2074,2084,2149,2160,2067,2051,2056,2042
2078,2093,2162,2164,2066,2014,2054,2044
2067,2095,2174,2151,2071,1988,2039,2043
2061,2092,2153,2128,2062,1989,2067,2036
2050,2083,2137,2100,2037,1988,2061,2037
2046,2073,2123,2061,1988,1967,2037,2046
2047,2062,2107,2010,1982,1970,2047,2054
2047,2058,2091,1986,2032,1994,2048,2063
2054,2045,2084,1975,2036,1998,2049,2065
2043,2036,2074,1973,2017,1984,2029,2075
2038,2037,2075,1977,2016,1992,2044,2084
2036,2043,2071,1981,2019,2008,2045,2086
2044,2042,2071,1994,2045,2031,2058,2084
2032,2038,2064,2004,2075,2044,2039,2084
2016,2012,2025,2005,2072,2043,2036,2079
2018,2006,2027,2020,2088,2053,2045,2088
2032,2029,2036,2043,2111,2032,2051,2089
2044,2036,2043,2032,2103,2030,2052,2087
2057,2051,2056,2022,2113,2073,2066,2092
2066,2054,2058,2020,2096,2097,2036,2076
2059,2049,2058,2017,2076,2096,2044,2068
2055,2053,2062,2028,2068,2075,2026,2063
2054,2055,2057,2042,2072,2072,2024,2054
2051,2052,2049,2042,2072,2096,2021,2056
2058,2050,2051,2046,2079,2124,2038,2055
2061,2048,2044,2032,2053,2128,2059,2048
2056,2037,2027,2014,2021,2126,2064,2040
2047,2042,2031,2016,2017,2082,2054,2024
2044,2046,2051,2026,2038,2054,2061,2028
2038,2056,2062,2035,2057,2058,2056,2032
2048,2044,2049,2037,2058,2062,2058,2021
2040,2039,2044,2036,2068,2058,2077,2023
2043,2036,2044,2044,2079,2010,2082,2038
2047,2035,2043,2033,2078,1989,2061,2031
2041,2032,2036,2005,2018,1996,2036,2016
2031,2035,2047,2000,1930,1985,2041,2016
2030,2041,2071,2000,1810,1975,2044,2019
2042,2046,2077,1997,1748,1948,2041,2025
2037,2050,2078,1998,1803,1917,2044,2044
2041,2055,2064,2043,1973,1999,2063,2059
2048,2050,2050,2079,2090,2085,2086,2077
2054,2046,2039,2070,2066,2107,2080,2078
2054,2043,2032,2061,2107,2114,2073,2076
2055,2046,2032,2061,2145,2102,2060,2083
2049,2043,2024,2051,2138,2097,2064,2081
2045,2038,2009,2038,2133,2091,2049,2087
2047,2033,2006,2037,2079,2059,2035,2081
2045,2033,2013,2046,2064,2065,2043,2074
2045,2045,2024,2060,2078,2077,2052,2077
2047,2050,2031,2059,2064,2071,2059,2076
2046,2049,2031,2035,1980,2039,2061,2071
2046,2053,2039,2032,1981,2028,2060,2061
2049,2059,2062,2051,2024,2041,2074,2063
2057,2059,2085,2069,2063,2036,2062,2058
2050,2056,2111,2069,2071,2019,2051,2047
2050,2050,2110,2060,2053,2021,2058,2052
2049,2051,2109,2048,2038,2019,2047,2043
2051,2047,2096,2033,2023,2009,2048,2045
2055,2052,2079,2031,2029,2008,2057,2037
2053,2050,2084,2044,2062,2017,2060,2041
2055,2057,2078,2069,2067,2015,2067,2047
2067,2058,2069,2072,2044,2016,2077,2045
2061,2052,2039,2052,1992,2018,2080,2038
2052,2034,2020,2047,1987,2012,2085,2035
2054,2042,2026,2048,2017,2020,2072,2037
2042,2044,2022,2046,2030,2041,2062,2030
2034,2037,2020,2052,2029,2061,2053,2036
2036,2033,2022,2052,2052,2084,2036,2044
2041,2029,2013,2054,2082,2120,2048,2043
2048,2038,2016,2049,2083,2165,2039,2044
2042,2027,2013,2033,2063,2147,2044,2046
2030,2021,2009,2027,2061,2078,2037,2052
2032,2019,2013,2021,2061,2014,2040,2051
2024,2013,2007,2004,2044,1961,2023,2055
2019,2012,2030,2010,2052,1996,2037,2068
2028,2024,2054,2019,2047,2035,2041,2081
2035,2036,2064,2007,1969,2044,2041,2085
2033,2029,2054,1997,1895,2036,2046,2079
2023,2012,2025,1997,1940,2028,2038,2075
2026,2010,2018,2009,1986,2033,2035,2074
2028,2021,2026,2022,2014,2043,2036,2071
2035,2023,2011,2027,2018,2049,2041,2069
2035,2028,2001,2039,2004,2056,2049,2065
2039,2034,2012,2031,1963,2037,2059,2062
2046,2043,2011,2030,1924,2010,2047,2054
2045,2041,2008,2013,1876,2001,2049,2052
2041,2043,2007,2006,1860,1998,2048,2043
2044,2045,2011,2009,1869,2005,2047,2043
2047,2049,2022,2022,1918,2039,2074,2041
2053,2058,2031,2041,1964,2060,2077,2042
2061,2057,2035,2042,2001,2054,2061,2047
2057,2058,2034,2039,2054,2066,2067,2047
2060,2055,2044,2064,2139,2094,2052,2044
2057,2055,2051,2069,2146,2076,2045,2036
2051,2043,2045,2055,2146,2074,2039,2025
2039,2035,2047,2040,2125,2077,2044,2027
2038,2045,2064,2032,2096,2078,2050,2020
2036,2048,2073,2023,2052,2068,2030,2017
2043,2061,2093,2012,2010,2025,2019,2034
2063,2078,2109,2014,1999,1964,2020,2050
2070,2085,2109,2029,2049,1980,2038,2062
2069,2086,2105,2045,2080,2022,2059,2068
2068,2085,2109,2051,2111,2056,2095,2071
2071,2089,2109,2067,2162,2078,2106,2084
2077,2086,2099,2087,2174,2089,2104,2099
2082,2080,2087,2091,2160,2084,2089,2102
2074,2076,2083,2096,2137,2071,2083,2106
2068,2069,2067,2090,2101,2054,2063,2107
2061,2061,2065,2073,2040,2034,2053,2112
2059,2048,2054,2072,2016,2040,2037,2101
2045,2038,2050,2064,2047,2032,2029,2098
2040,2036,2059,2060,2068,2041,2055,2098
2046,2049,2061,2062,2077,2050,2060,2096
2043,2049,2057,2054,2062,2045,2068,2080
2044,2043,2051,2047,2045,2050,2073,2074
2043,2041,2047,2044,2046,2061,2076,2058
2044,2039,2042,2043,2058,2070,2060,2051
2039,2036,2041,2046,2081,2069,2039,2051
2043,2044,2048,2059,2079,2063,2031,2046
2056,2053,2049,2057,2073,2064,2056,2044
2054,2049,2044,2049,2069,2064,2057,2047
2043,2043,2048,2048,2081,2077,2048,2045
2044,2052,2070,2054,2108,2078,2073,2037
2048,2058,2079,2054,2145,2066,2036,2030
2045,2043,2067,2044,2156,2049,2012,2029
2044,2045,2064,2054,2167,2040,2006,2023
2045,2050,2070,2050,2175,2050,2028,2031
2058,2059,2072,2063,2154,2070,2041,2039
2062,2068,2092,2063,2138,2076,2051,2047
2062,2065,2089,2059,2085,2068,2055,2049
2060,2061,2074,2051,2018,2039,2052,2054
2058,2058,2066,2040,1897,2024,2053,2051
2054,2058,2065,2032,1844,2016,2044,2053
2057,2060,2062,2034,1904,2013,2047,2050
2056,2065,2060,2046,1960,2012,2048,2050
2057,2066,2067,2047,1998,2012,2064,2059
2062,2055,2066,2050,2014,2014,2069,2075
2068,2046,2058,2053,2025,2035,2096,2079
2062,2044,2058,2062,2046,2059,2081,2081
2051,2028,2059,2073,2079,2060,2070,2083
2042,2016,2046,2075,2084,2053,2054,2084
2038,2008,2033,2073,2120,2054,2054,2076
2033,1997,2025,2076,2136,2049,2045,2073
2025,1995,2010,2069,2149,2060,2032,2074
2016,2001,1993,2078,2114,2068,2057,2072
2015,2009,1983,2078,2066,2068,2068,2067
2027,2012,1988,2085,2049,2066,2066,2064
2035,2026,1992,2078,2024,2055,2062,2062
2031,2025,1979,2059,1999,2002,2063,2075
2054,2048,2000,2070,2037,2016,2068,2070
2055,2058,2005,2053,2042,2035,2061,2058
2055,2064,2008,2030,2036,2028,2052,2048
2049,2054,1996,1995,1981,2042,2053,2032
2046,2042,1984,1975,1934,2054,2061,2027
2052,2053,2003,1974,1919,2055,2043,2029
2055,2059,2022,1977,1930,2056,2042,2032
2050,2068,2057,1992,1948,2020,2043,2034
2061,2081,2097,2025,2018,1995,2052,2040
2060,2086,2120,2052,2080,2031,2070,2038
2065,2084,2129,2082,2104,2064,2066,2044
2074,2096,2128,2094,2130,2090,2070,2042
2065,2089,2110,2066,2116,2099,2057,2043
2072,2090,2121,2045,2125,2090,2075,2050
2070,2091,2133,2034,2111,2058,2082,2050
2074,2096,2135,2060,2100,2044,2070,2061
2076,2089,2132,2069,2122,2034,2074,2066
2064,2080,2122,2075,2140,2018,2059,2067
2066,2076,2106,2049,2108,2012,2053,2070
2061,2065,2090,2045,2097,2051,2065,2070
2056,2065,2087,2048,2068,2055,2058,2080
2052,2061,2082,2046,2040,2052,2042,2082
2045,2051,2069,2033,1987,2035,2042,2077
2038,2046,2063,2038,2044,2029,2034,2096
2049,2051,2067,2041,2090,2041,2045,2098
2042,2040,2047,2018,2031,2067,2026,2093
2037,2028,2032,1995,1930,2060,2021,2103
2036,2037,2039,2013,2009,2016,2037,2108
2045,2041,2047,2032,2031,2021,2047,2105
2052,2041,2045,2031,2012,2067,2056,2082
2048,2040,2042,2033,1999,2100,2056,2067
2042,2034,2035,2040,2016,2089,2065,2056
2039,2034,2038,2041,2025,2032,2055,2049
2043,2037,2037,2047,2037,2011,2041,2044
2045,2042,2041,2048,2046,2010,2043,2041
2048,2040,2040,2036,2047,1999,2046,2032
2047,2030,2036,2030,2029,1979,2013,2028
2044,2030,2038,2035,2023,1989,2008,2021
2044,2033,2045,2034,2017,2010,1995,2026
2048,2046,2062,2042,2018,2014,2017,2026
2061,2054,2076,2045,2017,2005,2004,2023
2056,2049,2073,2045,2006,1999,2029,2033
2053,2050,2077,2057,2038,2014,2041,2042
2060,2061,2082,2069,2067,2016,2039,2041
2058,2058,2075,2063,2029,1984,2036,2040
2056,2056,2060,2055,2002,1953,2024,2036
2050,2049,2051,2043,1992,1965,2017,2030
2042,2041,2060,2043,2008,1992,2011,2037
2053,2055,2070,2066,2061,2032,2017,2047
2060,2060,2080,2086,2074,2045,2043,2064
2053,2055,2070,2079,2073,2073,2054,2067
2057,2048,2066,2070,2068,2092,2044,2067
2048,2041,2056,2062,2043,2105,2069,2059
2035,2034,2040,2047,2016,2107,2068,2064
2024,2024,2036,2039,2008,2100,2067,2073
2037,2026,2032,2032,1999,2109,2076,2073
2040,2032,2035,2039,2032,2117,2070,2079
2043,2038,2033,2050,2063,2103,2052,2083
2042,2036,2033,2050,2087,2104,2070,2097
2055,2045,2040,2047,2102,2124,2071,2098
2051,2052,2045,2052,2088,2108,2068,2083
2052,2048,2048,2046,2071,2075,2050,2071
2047,2047,2039,2037,2047,2049,2036,2055
2044,2037,2020,2018,2020,2017,2021,2040
2044,2042,2014,2000,1993,1993,2020,2022
2041,2041,2022,1990,1986,2000,2017,2035
2047,2048,2036,1994,1990,2030,2034,2036
2050,2044,2034,1992,2004,2044,2048,2032
2049,2048,2053,2011,2022,2065,2031,2023
2044,2053,2077,2031,2048,2091,2021,2020
2045,2056,2097,2045,2063,2117,2030,2019
2044,2051,2091,2053,2086,2158,2048,2015
2045,2057,2080,2049,2087,2178,2033,2008
2044,2040,2063,2047,2068,2167,2027,2010
2040,2037,2050,2056,2047,2120,2014,2005
2049,2040,2054,2063,2029,2000,2012,2009
2054,2033,2048,2066,2016,1894,2015,2015
2053,2034,2045,2057,2002,1896,2019,2021
2050,2037,2043,2070,2043,1940,2032,2032
2055,2035,2038,2067,2072,1982,2048,2040
2046,2032,2023,2060,2091,2001,2054,2034
2042,2026,2014,2048,2104,2001,2034,2024
2029,2013,2004,2038,2102,2014,2028,2021
2015,2013,2002,2029,2049,2030,2020,2031
2011,2008,1999,2006,1991,2025,2001,2034
2015,2006,1993,1994,1948,2037,1993,2034
2018,2010,1981,1975,1918,1999,1995,2049
2030,2015,1978,1997,1972,2014,2027,2073
2041,2029,1993,2036,2029,2063,2032,2080
2041,2027,1990,2054,2056,2107,2030,2081
2044,2024,1998,2047,2073,2148,2054,2078
2050,2042,2001,2046,2098,2148,2048,2077
2050,2047,2018,2037,2083,2033,2032,2068
2053,2047,2040,2045,2058,1947,2034,2076
2064,2066,2065,2058,2046,1956,2038,2074
2073,2070,2074,2055,2041,2001,2040,2065
2071,2075,2088,2069,2036,2034,2056,2054
2076,2086,2093,2079,2035,2057,2047,2050
2070,2090,2094,2087,2068,2054,2052,2041
2062,2092,2092,2086,2095,2036,2046,2032
2059,2083,2084,2082,2090,2028,2024,2047
2063,2077,2079,2085,2098,2032,2035,2047
2071,2081,2087,2076,2071,2036,2048,2035
2067,2081,2087,2080,2058,2030,2047,2033
2060,2077,2071,2067,2059,2035,2039,2020
2062,2072,2055,2053,2095,2029,2025,2010
2054,2062,2058,2041,2076,2024,2028,2013
2054,2063,2066,2058,2098,2058,2039,2028
2054,2062,2064,2053,2102,2050,2051,2026
2057,2062,2054,2043,2111,2049,2042,2030
2052,2049,2046,2035,2095,2050,2032,2029
2047,2039,2041,2029,2062,2055,2044,2033
2039,2039,2050,2028,2050,2056,2042,2040
2049,2044,2058,2030,2024,2055,2042,2054
2056,2060,2070,2036,1929,2009,2036,2066
2059,2067,2072,2033,1923,2014,2040,2079
2064,2069,2065,2037,1965,2034,2045,2082
2063,2060,2054,2032,1999,2055,2055,2080
2054,2047,2043,2028,2024,2068,2030,2070
2045,2035,2031,2033,2030,2070,2041,2062
2035,2039,2029,2030,2014,2061,2009,2066
2030,2030,2029,2025,1995,2037,2020,2063
2029,2025,2028,2021,1982,2025,2004,2068
2028,2030,2044,2023,1987,2036,2013,2064
2036,2046,2056,2039,2018,2055,2036,2067
2044,2058,2084,2069,2062,2074,2046,2065
2055,2065,2085,2072,2068,2069,2061,2062
2056,2065,2084,2071,2066,2066,2057,2057
2057,2068,2068,2065,2060,2061,2064,2049
2055,2066,2055,2057,2049,2062,2050,2039
2057,2058,2054,2050,2041,2068,2056,2038
2058,2061,2051,2050,2040,2047,2046,2027
2051,2053,2043,2042,2038,2032,2038,2017
2045,2049,2035,2045,2085,2064,2050,2017
2053,2044,2042,2050,2089,2080,2045,2010
2055,2046,2041,2053,2088,2077,2046,2014
2052,2042,2034,2053,2094,2074,2053,2015
2045,2041,2031,2051,2093,2078,2045,2008
2033,2033,2019,2052,2101,2083,2039,2017
2044,2043,2020,2055,2115,2104,2055,2019
2049,2050,2023,2055,2103,2102,2057,2023
2048,2054,2031,2060,2087,2082,2047,2026
2051,2052,2031,2059,2016,2056,2064,2032
2049,2051,2024,2050,1933,2054,2061,2030
2050,2041,2018,2043,1945,2060,2064,2023
2042,2027,2010,2023,1971,2033,2046,2019
2040,2019,2004,2034,2014,1999,2025,2029
2037,2018,2006,2054,2080,2009,2034,2040
2031,2014,1996,2045,2065,2045,2036,2042
2034,2012,1999,2050,2049,2070,2033,2053
2033,2023,2020,2057,2070,2086,2037,2061
2038,2041,2044,2067,2064,2076,2039,2068
2042,2054,2053,2073,2063,2044,2048,2074
2055,2049,2051,2076,2064,1988,2032,2074
2045,2032,2037,2067,2059,1953,2019,2075
2039,2032,2034,2064,2046,1968,2019,2064
2044,2045,2034,2061,2028,1972,2018,2054
2039,2047,2044,2052,2019,1975,2017,2056
2037,2055,2058,2054,2020,1996,2055,2047
2035,2062,2076,2055,2019,2004,2033,2039
2043,2066,2093,2055,2020,2017,2039,2029
2052,2074,2094,2044,2016,2032,2027,2024
2046,2064,2073,2028,2018,2083,2034,2016
2046,2062,2076,2026,2034,2128,2045,2017
2055,2078,2087,2039,2032,2122,2049,2014
2060,2086,2090,2017,2029,2104,2034,2018
2064,2081,2097,2011,2030,2049,2028,2025
2068,2084,2093,2028,2043,2013,2031,2026
2064,2083,2086,2021,2039,2019,2037,2026
2054,2063,2072,2024,2038,2035,2025,2008
2041,2052,2056,2027,2046,2048,2017,2006
2038,2048,2057,2048,2064,2070,2063,2011
2048,2058,2056,2054,2074,2075,2070,2016
2044,2052,2052,2046,2067,2071,2069,2017
2049,2056,2056,2050,2065,2064,2062,2022
2051,2052,2056,2045,2061,2056,2054,2020
2055,2058,2060,2032,2037,2043,2060,2030
2054,2055,2055,2023,2000,2029,2040,2025
2054,2052,2045,2022,1977,2018,2038,2031
2056,2048,2042,2024,1971,2001,2028,2037
2053,2048,2043,2029,1980,2015,2039,2040
2054,2049,2045,2044,2014,2017,2033,2053
2049,2051,2054,2066,2078,2006,2030,2059
2047,2052,2056,2086,2150,2040,2033,2065
2053,2057,2060,2101,2151,2053,2037,2070
2048,2054,2053,2092,2111,2038,2011,2058
2038,2038,2047,2075,2081,2051,2029,2058
2046,2040,2051,2071,2073,2067,2036,2066
2050,2054,2060,2073,2062,2070,2037,2067
2054,2053,2058,2067,2068,2072,2047,2063
2049,2054,2054,2063,2062,2064,2043,2053
2047,2051,2046,2054,2034,2054,2048,2044
2056,2050,2039,2034,1994,2060,2057,2043
2054,2049,2037,2026,2020,2064,2067,2030
2059,2053,2041,2041,2039,2057,2037,2030
2055,2054,2046,2045,2055,2057,2025,2021
2058,2054,2048,2055,2064,2054,2049,2024
2054,2055,2049,2053,2065,2049,2051,2022
2047,2057,2046,2049,2047,2038,2034,2023
2051,2055,2044,2052,2052,2035,2030,2011
2050,2049,2045,2048,2050,2040,2017,2015
2048,2048,2040,2045,2052,2036,2037,2013
2041,2036,2030,2039,2047,2037,2023,2011
2036,2034,2029,2045,2051,2037,2022,2025
2052,2052,2036,2047,2041,2042,2009,2030
2058,2049,2042,2052,2034,2041,2015,2021
2061,2056,2051,2057,2034,2036,2037,2017
2058,2055,2051,2058,2038,2034,2050,2025
2050,2054,2060,2060,2046,2037,2038,2032
2052,2053,2064,2060,2042,2033,2043,2030
2046,2053,2066,2053,2037,2026,2044,2033
2049,2049,2059,2053,2036,2028,2018,2043
2046,2052,2058,2056,2035,2038,2034,2057
2047,2055,2059,2054,2040,2061,2076,2072
2049,2050,2052,2053,2049,2058,2051,2071
2054,2047,2047,2050,2049,2065,2066,2070
2048,2044,2040,2051,2052,2074,2062,2075
2043,2042,2042,2051,2043,2078,2049,2073
2030,2027,2038,2039,2018,2087,2041,2064
2027,2024,2035,2032,2002,2088,2039,2065
2039,2037,2038,2045,1996,2080,2050,2072
2040,2036,2034,2042,2003,2056,2019,2066
2045,2040,2033,2055,2023,2001,2026,2075
2050,2049,2028,2069,2069,1992,2050,2066
2056,2056,2034,2077,2085,2026,2055,2065
2050,2054,2028,2078,2080,2045,2067,2055
2051,2059,2028,2074,2064,2042,2052,2039
2048,2057,2039,2065,2048,2037,2041,2032
2052,2062,2035,2061,2033,2029,2034,2024
2049,2054,2032,2059,2031,2029,2036,2028
2051,2051,2029,2056,2029,2023,2032,2018
2047,2045,2027,2042,2008,2020,2030,2013
2039,2043,2029,2031,1985,2015,2029,2012
2042,2041,2030,2026,1966,2019,2032,2009
2044,2039,2028,2010,1957,2020,2018,2008
2026,2026,2028,1995,1965,2038,2018,2006
2036,2033,2045,2027,2017,2083,2059,2028
2055,2050,2064,2062,2077,2100,2066,2030
2065,2055,2065,2069,2075,2090,2073,2032
2056,2049,2050,2059,2062,2094,2066,2035
2050,2043,2038,2053,2043,2090,2049,2036
2046,2036,2033,2052,2036,2085,2048,2040
2040,2030,2028,2048,2034,2069,2032,2050
2047,2031,2031,2051,2039,2034,2058,2058
2052,2034,2048,2053,2051,2023,2054,2068
2051,2041,2051,2056,2010,2055,2050,2061
2040,2036,2049,2037,1964,2070,2034,2056
2036,2026,2037,2015,1921,2069,2028,2054
2031,2023,2035,2004,1883,2040,2029,2052
2039,2031,2045,2028,1930,1949,2014,2067
2048,2049,2061,2066,2034,1908,2022,2085
2054,2042,2057,2082,2139,1982,2024,2072
2045,2041,2053,2104,2192,2058,2038,2080
2054,2054,2062,2104,2192,2110,2050,2086
2058,2054,2059,2082,2141,2075,2056,2085
2054,2054,2057,2069,2117,2067,2066,2069
2053,2052,2054,2064,2112,2056,2056,2056
2056,2056,2057,2067,2115,2055,2061,2051
2053,2051,2053,2063,2137,2070,2058,2050
2060,2052,2047,2053,2134,2070,2058,2047
2059,2052,2042,2057,2112,2054,2069,2042
2065,2045,2045,2053,2068,2045,2058,2044
2060,2048,2046,2047,1983,2029,2045,2041
2053,2048,2041,2038,1912,2013,2058,2040
2061,2048,2047,2035,1940,2014,2064,2036
2057,2054,2040,2050,1993,2020,2060,2029
2062,2047,2037,2071,2042,2032,2060,2034
2057,2046,2033,2066,2066,2027,2039,2017
2045,2035,2019,2060,2087,2042,2039,2025
2041,2036,2027,2080,2124,2069,2072,2030
2053,2044,2035,2080,2139,2079,2059,2028
2055,2040,2035,2076,2120,2086,2067,2035
2053,2038,2030,2067,2097,2078,2065,2027
2045,2032,2022,2063,2092,2083,2063,2024
2043,2032,2018,2057,2078,2081,2054,2033
2043,2022,2018,2047,2068,2080,2052,2039
2035,2022,2017,2041,2065,2085,2040,2043
2042,2025,2020,2042,2064,2093,2040,2054
2040,2036,2040,2052,2057,2089,2036,2065
2042,2047,2053,2058,2052,2087,2063,2068
2041,2042,2054,2067,2042,2073,2030,2078
2043,2049,2050,2066,2036,2074,2045,2082
2047,2049,2059,2068,2056,2060,2045,2090
2051,2052,2064,2074,2052,2042,2051,2083
2043,2048,2061,2075,2059,2036,2044,2076
2042,2052,2059,2068,2054,2007,2035,2080
2047,2058,2053,2070,2044,2006,2045,2081
2052,2059,2044,2064,2044,2019,2033,2075
2050,2053,2038,2060,2042,2035,2056,2065
2051,2053,2033,2059,2033,2036,2056,2059
2050,2050,2033,2060,2033,2031,2028,2052
2049,2051,2033,2053,2029,2024,2026,2042
2049,2053,2041,2063,2029,2012,2015,2043
2046,2057,2045,2058,2041,2021,2023,2034
2046,2054,2040,2055,2042,2039,2060,2032
2049,2045,2037,2055,2053,2056,2048,2028
2035,2042,2032,2054,2045,2065,2044,2023
2039,2040,2036,2052,2034,2072,2030,2025
2043,2041,2034,2042,2011,2067,2047,2020
2042,2046,2044,2044,1990,2059,2064,2032
2052,2044,2032,2035,1970,1998,2049,2026
2038,2031,2036,2033,1964,1984,2050,2027
2035,2044,2061,2070,2023,2024,2058,2037
2056,2061,2098,2099,2068,2045,2057,2040
2058,2072,2106,2111,2111,2064,2069,2043
2066,2069,2102,2116,2122,2085,2081,2042
2061,2059,2088,2102,2094,2081,2079,2041
2058,2052,2064,2097,2074,2065,2074,2044
2059,2050,2063,2106,2102,2069,2073,2052
2062,2060,2082,2126,2121,2085,2074,2059
2064,2058,2086,2131,2139,2084,2077,2066
2060,2053,2096,2120,2114,2074,2057,2076
2059,2050,2087,2108,2106,2062,2076,2077
2056,2059,2089,2122,2158,2031,2087,2088
2053,2054,2078,2126,2177,2021,2075,2087
2050,2049,2077,2114,2154,2045,2073,2087
2054,2052,2065,2092,2100,2062,2066,2083
2048,2030,2024,2059,2001,2050,2061,2077
2033,2017,2011,2032,1881,2039,2056,2074
2033,2018,2022,2041,1907,2065,2059,2069
2036,2022,2026,2064,1968,2098,2067,2063
2044,2027,2024,2070,1993,2128,2072,2064
2044,2029,2019,2062,2006,2135,2068,2061
2050,2031,2027,2068,2030,2102,2060,2054
2055,2038,2028,2070,2074,1981,2038,2044
2048,2038,2018,2057,2083,1938,2044,2036
2047,2030,2000,2056,2110,1995,2057,2034
2047,2031,1983,2070,2124,2050,2068,2040
2052,2032,1969,2063,2107,2113,2086,2037
2052,2024,1949,2060,2121,2159,2067,2027
2045,2020,1947,2056,2128,2168,2060,2022
2041,2013,1955,2040,2085,2150,2057,2016
2036,2007,1963,2026,2046,2109,2045,2015
2028,2009,1995,2028,2009,2033,2034,2014
2030,2034,2052,2047,1971,2026,2056,2023
2047,2055,2096,2084,1968,2051,2066,2034
2062,2072,2111,2080,1932,2041,2069,2032
2055,2058,2088,2045,1865,1999,2049,2030
2058,2056,2083,2040,1922,1975,2072,2044
2062,2065,2092,2034,1988,1976,2068,2054
2066,2060,2094,2019,2001,1987,2066,2052
2054,2054,2084,2005,1978,1985,2043,2047
2048,2049,2082,2017,1984,1978,2039,2048
2050,2054,2087,2039,2048,1990,2043,2051
2046,2056,2083,2053,2133,1999,2026,2052
2050,2054,2085,2067,2186,2013,2043,2055
2048,2058,2092,2060,2053,2025,2035,2054
2053,2053,2097,2030,1912,2016,2037,2063
2048,2044,2084,2007,1861,1997,2032,2064
2030,2021,2054,1977,1868,1980,2031,2071
2038,2019,2048,1988,1929,1939,2033,2087
2042,2035,2061,2028,2024,1955,2047,2087
2034,2028,2042,2025,2083,2042,2058,2069
2035,2028,2025,2028,2100,2103,2080,2074
2041,2033,2029,2040,2136,2122,2069,2071
2044,2037,2021,2019,2074,2069,2045,2064
2038,2045,2029,2015,2024,1985,2016,2079
2051,2055,2043,2027,2037,1979,2056,2089
2066,2069,2041,2036,2140,2042,2075,2088
2075,2068,2025,2028,2106,2086,2082,2068
2060,2041,1995,2000,2016,2104,2083,2056
2053,2029,1980,1988,2020,2102,2092,2052
2056,2040,1987,1993,2033,2086,2075,2048
2060,2053,2012,2014,2061,2092,2070,2050
2065,2067,2036,2037,2098,2102,2085,2048
2068,2071,2046,2046,2113,2096,2089,2045
2066,2072,2033,2033,2107,2075,2072,2043
2053,2048,2008,2009,1986,2020,2027,2015
2040,2028,1993,1978,1914,2004,2009,2001
2033,2021,1995,2025,2076,2014,2004,2009
2024,2014,2012,2067,2164,2019,2018,1999
2025,2022,2038,2096,2165,2042,2002,2006
2030,2043,2070,2106,2167,2084,2040,2010
2034,2050,2088,2113,2150,2108,2032,2012
2028,2039,2084,2144,2184,2110,2050,2030
2029,2043,2094,2169,2220,2109,2069,2045
2040,2042,2085,2174,2172,2128,2080,2062
2042,2043,2085,2188,2212,2169,2081,2074
2045,2048,2068,2189,2291,2190,2088,2075
2050,2048,2052,2181,2318,2173,2091,2086
2045,2035,2036,2149,2267,2117,2073,2082
2040,2034,2019,2088,2176,2018,2048,2088
2030,2033,2012,2046,1972,1954,2068,2092
2039,2028,2015,2022,1756,1936,2062,2092
2032,2024,1999,1995,1665,1944,2037,2080
2029,2018,1994,1990,1754,1976,2040,2081
2046,2033,2009,2012,1841,2008,2050,2081
2050,2043,2021,2013,1902,2049,2052,2064
2053,2046,2011,1980,1886,2054,2043,2064
2048,2036,1998,1933,1795,2024,2036,2055
2038,2020,1971,1889,1710,1979,2025,2040
2023,2014,1960,1883,1852,1963,2029,2037
2034,2010,1953,1929,2007,1976,2027,2035
2043,2021,1982,2005,2199,2075,2030,2036
2048,2036,2019,2050,2200,2131,2059,2034
2036,2039,2040,2054,2121,2156,2065,2038
2037,2042,2053,2085,2103,2165,2067,2036
2049,2060,2078,2139,2097,2157,2064,2041
2058,2073,2120,2175,2038,2112,2068,2039
2054,2075,2132,2185,2076,2108,2061,2032
2052,2052,2128,2160,2090,2074,2044,2017
2041,2045,2129,2127,2020,2063,2049,2023
2045,2057,2144,2130,2041,2062,2072,2040
2063,2080,2161,2114,1945,2058,2082,2046
2069,2097,2159,2141,1900,2077,2102,2068
2077,2112,2171,2190,1991,2092,2099,2063
2088,2114,2170,2223,2100,2095,2089,2068
2086,2106,2153,2229,2169,2056,2086,2084
2086,2097,2129,2236,2285,2065,2098,2080
2075,2093,2111,2223,2276,2066,2076,2071
2061,2073,2064,2091,1939,2034,2043,2046
2032,2032,2007,1983,1841,2011,2028,2036
2035,2032,2026,2028,1995,1969,2045,2053
2042,2044,2039,2082,1945,1973,2049,2048
2022,2028,2026,2047,1994,1985,2023,2034
2029,2024,2024,2025,2173,2037,2017,2039
2030,2033,2026,2014,2134,2063,2026,2044
2035,2031,2025,1981,2083,2053,2028,2040
2032,2026,2020,1924,2056,2036,2014,2038
2029,2019,2013,1901,2079,2014,2025,2042
2031,2011,2010,1907,2090,1975,2024,2055
2032,2010,2024,1935,2090,1971,2036,2064
2036,2017,2046,1955,2049,1980,2019,2059
2040,2038,2057,1985,2044,2001,2018,2043
2047,2054,2076,2009,2023,2003,2029,2029
2045,2050,2074,2030,2038,2006,2030,2021
2043,2046,2066,2045,2045,2004,2022,2019
2048,2051,2077,2076,2086,2013,2029,2014
2046,2050,2079,2090,2092,2001,2026,2017
2042,2051,2069,2076,2001,1992,2027,2016
2042,2051,2060,2078,2004,1996,2028,2004
2047,2048,2051,2097,2189,2034,2034,1997
2049,2042,2048,2116,2354,2078,2052,1999
2049,2049,2059,2111,2386,2113,2072,2002
2050,2046,2052,2094,2388,2136,2074,2006
2045,2042,2048,2082,2453,2110,2061,2018
2053,2051,2060,2077,2453,2109,2067,2025
2056,2050,2072,2055,2299,2075,2055,2029
2052,2051,2070,2053,2202,2064,2034,2027
2051,2041,2055,2021,1936,2054,2037,2024
2045,2026,2031,1936,1667,2039,2048,2007
2023,2003,2003,1874,1518,2025,2033,2009
2020,2007,2019,1878,1629,2019,2035,2016
2036,2028,2046,1927,1813,2046,2046,2029
2044,2037,2056,1985,1941,2022,2048,2049
2046,2051,2071,2031,2009,2021,2065,2061
2049,2055,2080,2067,2053,2044,2063,2069
2048,2057,2077,2082,2063,2052,2056,2081
2050,2049,2069,2077,2044,2039,2049,2072
2034,2038,2060,2075,2028,2002,2026,2064
2032,2045,2075,2091,2055,2012,2017,2063
2038,2039,2073,2106,2134,2054,2042,2079
2046,2042,2072,2109,2112,2070,2039,2096
2058,2055,2074,2091,2038,2060,2022,2089
2065,2057,2061,2053,1981,2061,2022,2084
2056,2057,2053,2029,1982,2082,2027,2079
2065,2058,2051,2015,2036,2092,2051,2058
2053,2055,2046,2008,2097,2079,2046,2041
2043,2050,2045,1997,2091,2077,2047,2034
2044,2050,2033,2003,2100,2070,2044,2029
2036,2040,2024,1990,2037,2050,2038,2021
2043,2038,2032,2007,2025,1999,2010,2016
2037,2051,2037,2045,2071,1970,2027,1997
2033,2041,2037,2058,2100,1984,2030,1993
2035,2035,2031,2061,2140,2016,2035,1997
2031,2035,2030,2066,2174,2053,2047,2001
2044,2044,2045,2058,2147,2073,2076,2021
2057,2056,2048,2031,2077,2085,2071,2023
2052,2049,2036,2010,2019,2104,2067,2024
2051,2049,2036,2006,1957,2092,2064,2024
2050,2056,2039,2001,1790,2056,2051,2015
2047,2053,2040,2007,1778,2006,2048,2008
2038,2056,2048,2023,1882,1937,2028,2005
2034,2056,2057,2047,1959,1960,2032,2023
2048,2063,2061,2066,2007,1995,2051,2042
2051,2066,2068,2076,2060,2020,2060,2051
2055,2066,2066,2077,2096,2033,2052,2056
2047,2052,2043,2056,2181,2043,2055,2064
2045,2046,2034,2061,2247,2064,2059,2069
2045,2045,2040,2070,2180,2056,2055,2062
2043,2037,2031,2035,2090,2012,2041,2059
2023,2033,2031,2018,2037,1974,2033,2064
2035,2034,2027,2038,2042,1984,2020,2064
2028,2029,2024,2055,2035,1994,2020,2057
2022,2022,2024,2071,2048,2016,2010,2052
2023,2030,2031,2089,2133,2044,2046,2056
2028,2025,2033,2101,2165,2041,2051,2064
2029,2032,2031,2082,2085,2031,2065,2069
2036,2038,2035,2065,2064,2049,2058,2060
2038,2048,2041,2072,2169,2070,2045,2056
2039,2047,2032,2050,2101,2052,2069,2053
2046,2048,2031,2013,2012,2032,2074,2050
2047,2054,2037,2008,2110,2036,2078,2050
2057,2058,2039,2002,2122,2083,2085,2041
2049,2059,2041,2009,2065,2127,2098,2041
2056,2059,2049,2052,2129,2151,2083,2042
2059,2062,2050,2062,2149,2140,2076,2035
2058,2050,2047,2057,2105,2100,2082,2024
2047,2044,2034,2039,1997,2028,2046,2016
2042,2047,2033,2055,2027,2019,2028,2014
2046,2046,2038,2061,2074,1998,1984,1994
2030,2028,2018,2017,2001,1973,1961,1982
2013,2030,2023,2016,2019,2017,1991,1989
2029,2049,2045,2063,2192,2069,2018,1996
2039,2060,2046,2072,2212,2088,2042,2008
2044,2060,2040,2075,2173,2092,2059,2024
2046,2059,2036,2078,2164,2098,2068,2027
2057,2054,2025,2070,2118,2084,2067,2032
2057,2049,2012,2046,1951,2032,2044,2032
2054,2046,2011,2030,1813,2027,2039,2049
2055,2050,2009,2044,1865,2049,2064,2051
2052,2051,2002,2042,1923,2034,2070,2047
2047,2043,1999,2042,1979,2030,2052,2047
2040,2036,2005,2044,2040,2036,2058,2046
2039,2032,2009,2047,2041,2037,2057,2058
2029,2027,2010,2049,2035,2038,2046,2061
2036,2024,2009,2049,2029,2029,2043,2060
2022,2021,2021,2046,2032,2038,2033,2054
2018,2012,2026,2039,2031,2036,2040,2067
2023,2022,2037,2047,2039,2049,2053,2069
2039,2040,2044,2064,2034,2063,2062,2069
2048,2050,2040,2069,2054,2062,2067,2066
2057,2059,2047,2076,2063,2054,2057,2065
2064,2065,2068,2083,2069,2054,2045,2068
2064,2071,2077,2075,2078,2058,2031,2053
2065,2070,2085,2078,2080,2052,2033,2043
2061,2067,2084,2061,2070,2067,2030,2031
2057,2066,2073,2053,2049,2086,2056,2028
2046,2059,2053,2039,2042,2089,2072,2019
2035,2053,2046,2027,2021,2070,2053,2022
2038,2050,2048,2015,1997,2055,2045,2020
2041,2049,2046,2006,1990,2047,2065,2022
2040,2042,2034,2006,2015,2049,2043,2016
2048,2043,2035,2015,2015,2041,2054,2013
2045,2037,2029,2010,1991,2025,2028,2001
2030,2023,2016,2013,1998,2029,2032,1995
2029,2018,2027,2028,2010,2046,2044,2010
2036,2032,2033,2026,2005,2052,2036,2017
2037,2028,2016,2024,2022,2065,2049,2014
2034,2021,2001,2019,2028,2084,2052,2016
2042,2018,2002,2014,2037,2101,2047,2028
2034,2015,1998,2029,2045,2109,2058,2026
2027,2009,1989,2031,2049,2107,2062,2026
2038,2005,1985,2028,2048,2074,2058,2026
2030,2000,1986,2028,2050,2030,2056,2033
2034,2003,1990,2038,2047,2036,2038,2043
2038,2010,2005,2038,2045,2043,2044,2053
2033,2015,2012,2035,2042,2054,2037,2067
2036,2026,2020,2043,2041,2062,2036,2075
2042,2039,2033,2051,2044,2061,2044,2076
2046,2041,2042,2053,2048,2054,2017,2078
2044,2038,2037,2042,2025,2046,2016,2072
2036,2032,2033,2030,2007,2043,2011,2072
2043,2041,2036,2028,2001,2052,1997,2073
2043,2038,2032,2027,1988,2051,2005,2068
2044,2040,2037,2019,1984,2044,2011,2068
2051,2058,2061,2040,1988,2048,2025,2071
2059,2082,2096,2050,2008,2053,2032,2069
2074,2099,2119,2058,2006,2049,2031,2070
2073,2096,2106,2054,2020,2048,2043,2058
2073,2093,2092,2059,2055,2058,2052,2049
2068,2081,2073,2064,2110,2070,2061,2037
2068,2073,2067,2055,2067,2066,2064,2025
2060,2066,2069,2043,2003,2060,2058,2015
2051,2068,2078,2040,1971,2060,2041,2013
2045,2072,2084,2037,1973,2038,2049,2024
2058,2074,2086,2051,2014,2008,2043,2034
2067,2080,2104,2084,2058,2029,2060,2033
2061,2062,2099,2091,2058,2085,2059,2030
2058,2056,2081,2091,2067,2108,2064,2036
2059,2056,2078,2097,2073,2108,2073,2037
2063,2056,2072,2095,2077,2116,2080,2051
2067,2058,2069,2099,2073,2120,2073,2058
2072,2058,2070,2100,2076,2115,2075,2060
2066,2065,2059,2093,2078,2124,2073,2051
2067,2057,2048,2083,2084,2117,2068,2052
2060,2051,2040,2062,2100,2105,2074,2056
2051,2048,2034,2055,2050,2066,2064,2053
2038,2034,2026,2041,1996,2004,2054,2057
2039,2035,2020,2039,2005,1987,2064,2060
2038,2043,2019,2050,2035,1994,2060,2066
2041,2041,2016,2059,2066,1998,2052,2071
2054,2054,2024,2077,2110,1988,2050,2077
2050,2051,2022,2070,2084,1979,2038,2074
2050,2051,2026,2064,2084,2005,2047,2064
2045,2049,2017,2052,2084,2030,2033,2064
2049,2058,2031,2049,2074,2070,2034,2071
2053,2077,2052,2063,2099,2100,2046,2066
2052,2078,2045,2070,2113,2136,2054,2062
2052,2068,2027,2053,2109,2161,2035,2055
2050,2058,2003,2027,2108,2116,2042,2045
2044,2041,1986,2010,2089,2005,2030,2038
2044,2043,1991,2014,2092,1984,2036,2040
2048,2044,2018,2029,2111,1959,2032,2048
2057,2056,2025,2035,2080,1942,2005,2040
2055,2049,2017,2017,1936,1945,2026,2033
2057,2045,2027,2028,1947,1982,2036,2026
2057,2047,2026,2051,1982,2002,2059,2024
2056,2045,2018,2039,1924,1968,2040,2016
2051,2036,2012,2033,1901,1955,2045,2007
2056,2046,2029,2060,1960,1987,2053,2020
2071,2052,2028,2070,1998,2010,2047,2026
2061,2035,2022,2067,2036,2033,2037,2020
2051,2033,2035,2065,2039,2038,2045,2015
2052,2043,2043,2063,2023,2030,2046,2010
2047,2044,2052,2053,2021,2016,2020,2003
2044,2050,2068,2045,2001,2004,2009,2003
2052,2060,2077,2045,2030,2055,2053,2011
2054,2064,2084,2064,2047,2073,2046,2017
2068,2064,2087,2067,2022,2089,2037,2025
2058,2062,2091,2073,2028,2076,2030,2042
2057,2069,2093,2085,2046,2027,2039,2066
2063,2071,2089,2096,2075,2069,2053,2068
2059,2065,2069,2073,2133,2094,2022,2071
2057,2050,2035,2076,2177,2099,2036,2073
2048,2032,2023,2068,2218,2107,2048,2071
2047,2027,2014,2056,2165,2097,2017,2060
2045,2033,2010,2036,2069,2062,2027,2066
2041,2023,2013,2028,1952,2053,2023,2070
2046,2028,2028,2049,1984,2054,2029,2076
2066,2046,2045,2059,2003,2043,2027,2080
2065,2053,2055,2058,2012,2055,2047,2076
2070,2050,2054,2039,2010,2078,2044,2066
2060,2050,2052,2039,2033,2074,2025,2059
2056,2048,2058,2054,2082,1990,2026,2055
2067,2059,2075,2066,2107,1953,2008,2050
2066,2065,2075,2053,2061,1971,1994,2037
2068,2059,2086,2036,2006,2000,1996,2032
2052,2058,2077,2015,1956,2029,2017,2026
2057,2052,2069,2020,1940,2041,2019,2017
2057,2056,2071,2021,1961,2070,2014,2012
2057,2057,2069,2026,2001,2089,2021,2013
2054,2069,2080,2034,2078,2065,2029,2026
2065,2071,2086,2067,2234,2084,2059,2028
2072,2067,2077,2092,2299,2132,2066,2017
2062,2052,2056,2100,2299,2156,2064,2021
2058,2045,2055,2114,2288,2156,2055,2023
2063,2054,2053,2124,2276,2151,2073,2028
2064,2053,2052,2101,2119,2116,2072,2020
2051,2049,2049,2061,1931,2093,2064,2024
2049,2048,2038,2050,1929,2082,2035,2023
2054,2050,2040,2029,1855,2076,2041,2021
2064,2047,2034,2012,1840,2055,2032,2029
2055,2049,2034,2004,1918,2022,2014,2032
2051,2039,2030,2024,1990,1954,2026,2035
2051,2037,2030,2051,2075,1940,2017,2037
2047,2034,2024,2052,2121,1969,2019,2040
2044,2032,2029,2059,2095,1981,2006,2047
2043,2025,2028,2054,2059,1990,2013,2056
2039,2022,2028,2048,2030,2003,2010,2062
2045,2025,2037,2043,2027,2012,2032,2066
2041,2032,2036,2038,2010,2002,2020,2063
2031,2015,2034,2029,2019,1999,2020,2069
2033,2017,2033,2039,2046,2014,2003,2075
2046,2035,2042,2038,2055,2021,2021,2067
2051,2039,2039,2028,2033,2025,2016,2062
2047,2041,2048,2030,2013,2059,2018,2049
2060,2057,2058,2049,2018,2081,2034,2048
2059,2062,2058,2060,2027,2070,2038,2039
2048,2056,2047,2056,2037,2037,2049,2034
2056,2050,2042,2070,2083,2034,2066,2039
2053,2050,2044,2078,2099,2054,2059,2031
2055,2044,2047,2075,2084,2057,2071,2023
2052,2041,2040,2067,2069,2050,2062,2016
2047,2033,2033,2055,2044,2045,2052,2011
2044,2028,2030,2050,2040,2043,2064,2013
2048,2028,2027,2053,2057,2061,2072,2016
2048,2036,2022,2058,2056,2066,2073,2017
2052,2025,2022,2058,2060,2068,2072,2010
2045,2026,2022,2061,2051,2067,2072,2005
2054,2033,2038,2069,2035,2071,2064,2019
2059,2038,2041,2064,2025,2071,2059,2019
2054,2042,2032,2064,2031,2083,2056,2019
2052,2042,2040,2066,2036,2089,2067,2020
2047,2039,2043,2071,2031,2088,2037,2023
2040,2035,2055,2067,2027,2060,2060,2022
2039,2031,2049,2056,2015,2000,2047,2033
2041,2032,2039,2048,2015,1982,2042,2046
2041,2033,2036,2053,2035,2002,2033,2052
2043,2044,2048,2060,2067,2013,2033,2055
2046,2047,2044,2058,2094,2024,2036,2060
2047,2047,2042,2063,2079,2024,2037,2065
2049,2046,2040,2059,2072,2037,2060,2069
2043,2044,2031,2056,2062,2053,2053,2066
2043,2042,2024,2052,2064,2061,2068,2070
2032,2027,2012,2040,2053,2046,2048,2064
2032,2030,2013,2044,2050,2044,2046,2072
2039,2040,2028,2050,2030,2044,2050,2071
2049,2046,2043,2052,2009,2035,2051,2065
2041,2049,2049,2052,2005,2035,2039,2058
2041,2051,2054,2059,2047,2043,2028,2060
2047,2048,2069,2068,2053,2049,2033,2052
2045,2041,2070,2073,2062,2062,2030,2047
2043,2046,2075,2079,2058,2075,2040,2038
2041,2040,2081,2084,2075,2072,2042,2036
2048,2042,2086,2080,2071,2066,2060,2031
2050,2045,2081,2068,2035,2054,2062,2021
2051,2045,2079,2059,2013,2056,2056,2021
2047,2047,2070,2062,2007,2052,2062,2017
2052,2043,2055,2046,1977,2055,2030,2019
2046,2049,2047,2047,1996,2063,2056,2017
2050,2042,2026,2049,2014,2065,2067,2005
2042,2021,1995,2048,2016,2058,2059,2005
2041,2012,1992,2053,2029,2070,2071,2021
2048,2021,2016,2066,2024,2065,2066,2018
2049,2019,2018,2052,2007,2054,2070,2019
2044,2021,2005,2062,2015,2057,2043,2016
2046,2020,1997,2084,2128,2081,2061,2021
2035,2016,1988,2105,2217,2080,2055,2023
2037,2016,1987,2097,2189,2057,2040,2024
2035,2013,1980,2085,2121,2034,2029,2024
2036,2008,1984,2050,1975,1998,2022,2015
2033,2012,1987,2031,1873,1961,2030,2038
2047,2025,2011,2064,1977,1970,2038,2052
2056,2045,2033,2087,2059,2010,2051,2069
2063,2050,2045,2093,2084,2043,2060,2078
2057,2049,2050,2085,2123,2083,2077,2082
2048,2047,2052,2075,2149,2118,2071,2085
2050,2047,2065,2052,2089,2099,2054,2079
2047,2050,2099,2031,2038,2084,2070,2079
2053,2078,2146,2018,2017,2067,2064,2083
2064,2094,2160,2016,2021,2059,2067,2088
2074,2103,2145,2016,2051,2067,2075,2087
2068,2095,2123,2007,2066,2059,2076,2081
2071,2092,2102,2003,2088,2052,2061,2070
2064,2079,2086,2006,2118,2037,2056,2061
2060,2074,2078,2000,2080,2011,2056,2052
2059,2076,2084,2016,2033,2008,2064,2048
2064,2081,2091,2033,2062,2034,2056,2053
2056,2074,2080,2049,2086,2058,2063,2047
2061,2066,2064,2045,2097,2057,2050,2044
2058,2059,2055,2042,2086,2058,2058,2033
2059,2054,2049,2035,2069,2061,2041,2030
2054,2054,2039,2041,2056,2071,2047,2030
2050,2049,2036,2040,2024,2084,2049,2015
2036,2044,2031,2029,2001,2072,2044,2009
2035,2032,2025,2020,2002,2052,2035,2010
2035,2037,2043,2028,2000,2026,2046,2021
2043,2046,2056,2040,2001,1964,2032,2029
2052,2060,2071,2063,2047,1956,2025,2032
2052,2060,2081,2082,2132,2001,2041,2040
2059,2066,2080,2087,2144,2029,2041,2041
2056,2061,2078,2069,2099,2031,2038,2040
2052,2048,2077,2057,2064,2019,2023,2046
2046,2048,2070,2049,2039,2013,2021,2042
2047,2054,2067,2052,2026,2009,2003,2052
2038,2052,2068,2075,2068,2036,2010,2064
2043,2044,2068,2063,2073,2056,1995,2057
2040,2048,2070,2056,2064,2084,2002,2067
2045,2060,2087,2083,2093,2125,2018,2077
2060,2070,2091,2092,2099,2136,2020,2079
2052,2069,2083,2082,2089,2134,2009,2070
2045,2054,2066,2064,2074,2098,2026,2074
2048,2060,2066,2067,2074,2070,2036,2075
2051,2062,2069,2069,2101,2077,2047,2070
2051,2071,2066,2074,2116,2076,2033,2065
2044,2061,2059,2078,2102,2066,2048,2058
2049,2066,2057,2072,2103,2082,2057,2054
2054,2061,2042,2068,2107,2085,2056,2050
2050,2051,2019,2050,2086,2057,2057,2045
2045,2046,2002,2032,2060,2029,2054,2045
2044,2043,1996,2016,2003,1996,2032,2048
2051,2044,2013,2023,1936,1989,2035,2042
2050,2052,2012,2024,1937,2018,2055,2041
2052,2047,2016,2024,2032,2070,2049,2029
2044,2041,2007,2016,2075,2083,2034,2024
2044,2043,2001,2007,2100,2100,2042,2021
2048,2037,1995,2011,2089,2103,2042,2019
2045,2034,1996,2016,2058,2068,2035,2016
2032,2028,1999,2036,2087,2027,2028,2019
2041,2029,2003,2053,2095,2001,2054,2030
2060,2045,2028,2056,2089,2006,2049,2041
2053,2043,2032,2035,2003,2026,2045,2042
2052,2042,2035,2009,1952,2038,2039,2034
2047,2027,2036,2003,1884,2048,2041,2031
2041,2028,2038,2009,1910,2053,2038,2032
2035,2029,2052,2018,1943,2045,2046,2028
2037,2040,2052,2003,1909,2023,2030,2036
2042,2050,2064,2020,1965,2000,2026,2057
2044,2057,2078,2036,2045,2009,2040,2069
2053,2059,2078,2051,2068,2032,2040,2080
2050,2055,2067,2057,2128,2056,2047,2080
2042,2037,2047,2069,2166,2093,2064,2076
2040,2033,2039,2059,2133,2110,2086,2079
2039,2038,2042,2060,2096,2089,2057,2075
2039,2030,2033,2040,2039,2023,2017,2068
2035,2022,2028,2033,2042,1998,2002,2063
2032,2037,2059,2061,2054,1994,2000,2065
2041,2050,2077,2059,2027,1968,2002,2066
2047,2064,2089,2057,2007,1952,2020,2069
2048,2064,2098,2062,2027,1980,2023,2071
2052,2070,2098,2047,2035,2000,2037,2067
2058,2074,2091,2040,2041,2018,2040,2064
2057,2071,2090,2050,2048,2013,2049,2056
2060,2072,2093,2058,2041,2018,2040,2057
2059,2066,2092,2060,2050,2019,2039,2050
2056,2062,2086,2053,2042,2017,2040,2042
2061,2059,2074,2062,2068,2021,2051,2046
2054,2054,2069,2064,2095,2044,2058,2035
2049,2051,2064,2062,2084,2062,2053,2028
2043,2051,2059,2067,2074,2095,2052,2024
2045,2045,2056,2077,2087,2126,2070,2021
2036,2038,2038,2067,2102,2113,2058,2021
2033,2021,2029,2058,2082,2097,2063,2022
2039,2033,2036,2051,2036,2078,2045,2026
2044,2029,2042,2039,2000,2046,2064,2031
2050,2036,2044,2042,1980,2039,2038,2034
2054,2045,2056,2041,1986,2023,2030,2037
2054,2047,2054,2037,1965,2016,2034,2041
2052,2043,2045,2019,1938,2027,2034,2047
2046,2029,2036,1993,1943,2041,2025,2042
2036,2027,2024,1969,1902,2066,2037,2047
2040,2033,2029,1989,1919,2074,2037,2058
2040,2040,2047,2013,1969,2102,2050,2070
2047,2051,2058,2045,2061,2118,2058,2088
2057,2058,2069,2087,2153,2097,2058,2115
2067,2067,2087,2121,2225,2071,2068,2117
2059,2066,2080,2101,2182,2046,2057,2103
2051,2054,2070,2076,2140,2069,2048,2089
2045,2042,2048,2071,2166,1994,2035,2076
2036,2031,2039,2088,2163,1953,2033,2080
2043,2039,2049,2092,2147,1984,2037,2086
2052,2044,2048,2085,2118,2027,2036,2080
2053,2043,2042,2069,2099,2031,2012,2070
2051,2036,2036,2064,2105,2039,2025,2068
2050,2038,2035,2043,2009,2005,2010,2058
2048,2042,2030,2017,1884,1981,2029,2053
2055,2052,2041,2051,1953,1999,2000,2040
2051,2055,2049,2066,1990,2002,2030,2027
2053,2046,2036,2040,1988,2023,2042,2021
2045,2045,2036,2032,2026,2047,2049,2020
2044,2047,2037,2040,2070,2077,2042,2020
2046,2055,2043,2048,2121,2103,2069,2022
2047,2056,2048,2055,2158,2114,2083,2016
2053,2046,2036,2039,2140,2105,2077,2016
2038,2039,2027,2022,2082,2077,2057,2008
2025,2020,2029,2015,2015,2049,2051,2014
2021,2022,2033,2021,2005,2041,2043,2025
2042,2044,2044,2027,2012,2037,2059,2035
2047,2042,2046,2029,2018,2043,2065,2037
2049,2039,2048,2036,2026,2048,2037,2043
2043,2038,2055,2040,2042,2037,2029,2038
2042,2033,2067,2058,2056,2040,2027,2043
2042,2040,2078,2061,2061,2045,2049,2054
2049,2041,2080,2068,2068,2072,2051,2066
2050,2047,2079,2084,2073,2082,2050,2067
2044,2049,2071,2090,2078,2087,2044,2065
2044,2048,2071,2089,2080,2086,2040,2064
2042,2051,2067,2091,2075,2077,2037,2069
2040,2055,2064,2079,2063,2057,2037,2072
2032,2052,2048,2067,2019,2032,2024,2062
2027,2038,2034,2051,1995,1998,2000,2059
2026,2030,2026,2034,1983,1986,2003,2056
2024,2030,2023,2028,1992,2010,2028,2068
2026,2040,2026,2029,2070,2065,2064,2071
2044,2051,2034,2049,2133,2109,2069,2075
2049,2047,2025,2055,2141,2104,2060,2059
2039,2042,2021,2048,2123,2109,2046,2054
2036,2038,2002,2025,2116,2108,2065,2048
2040,2037,1999,2019,2097,2110,2069,2047
2046,2052,2010,2021,2097,2093,2055,2040
2050,2056,2022,2023,2113,2072,2051,2041
2050,2052,2024,2026,2141,2064,2060,2042
2050,2048,2033,2028,2132,2056,2052,2038
2047,2048,2042,2036,2116,2034,2059,2032
2048,2045,2045,2040,2118,2024,2052,2029
2043,2045,2053,2033,2108,2012,2057,2020
2044,2044,2049,2033,2059,1998,2050,2020
2042,2041,2039,2026,1990,1994,2030,2013
2035,2026,2035,2032,1925,2000,2040,2007
2028,2023,2047,2049,1960,2012,2024,2016
2034,2029,2063,2059,1996,2035,2043,2022
2032,2028,2061,2057,2007,2038,2056,2011
2027,2023,2054,2053,2020,2032,2053,2022
2025,2018,2055,2052,2022,2008,2048,2018
2032,2022,2048,2045,2011,1986,2040,2031
