CH1,CH2,CH3,CH4,CH5,CH6,CH7,CH8
2051,2051,2052,2037,1924,2032,2055,2056
2048,2057,2058,2040,1944,2002,2055,2057
2052,2057,2055,2046,1988,2003,2041,2062
2055,2059,2052,2064,2045,2045,2051,2068
2062,2066,2059,2072,2070,2066,2058,2061
2055,2052,2052,2055,2044,2042,2042,2058
2039,2046,2046,2042,2033,2023,2051,2059
2043,2048,2052,2044,2082,2034,2054,2059
2041,2048,2051,2040,2150,2047,2064,2064
2039,2059,2070,2051,2173,2059,2053,2059
2044,2065,2068,2055,2172,2066,2064,2058
2048,2061,2058,2052,2162,2064,2070,2064
2046,2055,2056,2048,2136,2061,2062,2065
2048,2053,2047,2034,2092,2055,2073,2065
2054,2056,2042,2031,2056,2049,2071,2065
2055,2054,2044,2039,2047,2046,2068,2057
2052,2055,2046,2056,2116,2054,2064,2054
2049,2051,2038,2063,2168,2067,2069,2054
2041,2047,2047,2071,2176,2068,2058,2054
2051,2046,2045,2072,2168,2071,2061,2052
2044,2039,2042,2073,2185,2066,2074,2050
2051,2041,2045,2076,2190,2064,2053,2041
2030,2031,2039,2073,2181,2068,2059,2047
2031,2032,2044,2069,2123,2063,2061,2050
2054,2051,2045,2052,1982,2071,2057,2053
2053,2064,2052,2061,1983,2086,2043,2052
2059,2054,2056,2049,1962,2078,2053,2046
2046,2051,2040,2027,1920,2056,2036,2040
2047,2044,2037,2000,1810,2041,2055,2042
2050,2051,2045,1983,1813,2037,2046,2048
2059,2068,2056,2001,1917,2024,2058,2051
2054,2059,2050,2007,1950,2025,2037,2054
2049,2053,2044,2000,1949,2031,2042,2058
2049,2051,2039,2006,2007,2036,2045,2053
2044,2047,2044,2037,2134,2040,2048,2057
2048,2049,2046,2088,2228,2070,2054,2063
2053,2046,2043,2106,2202,2080,2057,2070
2050,2052,2046,2090,2159,2079,2058,2062
2041,2041,2041,2076,2116,2060,2067,2062
2041,2035,2035,2074,2095,2056,2050,2062
2045,2047,2038,2078,2083,2040,2056,2058
2044,2041,2043,2070,2057,2025,2047,2054
2042,2042,2048,2061,2062,2022,2050,2056
2041,2043,2049,2070,2060,2032,2047,2061
2044,2048,2052,2071,2045,2039,2057,2056
2047,2051,2059,2078,2057,2046,2063,2054
2051,2056,2063,2065,2065,2049,2063,2051
2046,2054,2054,2061,2070,2050,2062,2049
2044,2051,2052,2053,2073,2046,2058,2050
2052,2047,2047,2041,2078,2046,2054,2055
2058,2043,2046,2044,2092,2044,2045,2053
2056,2032,2044,2041,2074,2045,2058,2049
2047,2025,2033,2039,2068,2045,2062,2042
2044,2024,2036,2043,2076,2051,2060,2042
2048,2034,2039,2052,2065,2046,2049,2039
2043,2029,2043,2056,2049,2045,2050,2042
2038,2031,2044,2065,2052,2047,2051,2044
2056,2042,2048,2065,2036,2050,2048,2048
2046,2047,2041,2048,2012,2047,2064,2047
2045,2043,2041,2049,2007,2041,2045,2049
2051,2041,2044,2057,2015,2031,2050,2054
2053,2044,2039,2057,2040,2033,2052,2060
2055,2049,2037,2056,2045,2045,2054,2061
2054,2037,2028,2053,2067,2047,2057,2057
2051,2036,2026,2048,2077,2048,2053,2059
2054,2046,2029,2043,2060,2058,2055,2068
2058,2054,2033,2040,2057,2068,2070,2077
2064,2056,2052,2051,2088,2089,2061,2080
2071,2064,2075,2066,2131,2099,2049,2071
2067,2067,2089,2074,2160,2097,2057,2072
2067,2061,2081,2071,2160,2081,2066,2073
2056,2053,2065,2059,2140,2061,2042,2068
2052,2053,2059,2065,2129,2060,2040,2078
2060,2074,2072,2068,2145,2066,2056,2081
2058,2075,2061,2049,2102,2052,2055,2076
2062,2069,2045,2013,2011,2045,2054,2075
2062,2056,2033,1982,1877,2046,2053,2081
2067,2056,2020,1985,1874,2061,2060,2080
2063,2054,2018,1998,1897,2076,2065,2081
2065,2058,2029,2016,1935,2077,2080,2085
2066,2059,2036,2025,1902,2057,2059,2080
2064,2054,2036,2041,1938,2064,2056,2079
2060,2051,2040,2059,1965,2065,2056,2073
2052,2037,2030,2055,2020,2075,2073,2059
2037,2037,2028,2086,2102,2083,2080,2051
2045,2047,2044,2109,2138,2082,2060,2060
2052,2050,2050,2088,2082,2067,2052,2059
2043,2046,2044,2072,2053,2019,2034,2044
2028,2025,2040,2061,2019,1985,2031,2027
2023,2022,2034,2073,2000,1995,2031,2030
2030,2033,2032,2085,2062,2029,2039,2038
2040,2039,2028,2095,2103,2049,2040,2043
2043,2047,2019,2102,2110,2056,2046,2044
2052,2050,2027,2100,2103,2060,2042,2044
2053,2056,2024,2085,2081,2061,2044,2043
2052,2063,2026,2057,2064,2040,2032,2047
2047,2053,2017,2032,2039,2025,2027,2047
2050,2047,2016,2018,2033,2027,2029,2050
2053,2048,2018,2017,2029,2029,2031,2053
2052,2054,2024,2012,2032,2036,2042,2056
2051,2056,2035,2011,2043,2038,2028,2057
2057,2050,2050,2013,2047,2042,2036,2061
2047,2054,2061,2024,2048,2045,2033,2056
2059,2063,2068,2025,2045,2051,2021,2057
2048,2056,2084,2030,2044,2041,2026,2047
2046,2051,2099,2025,2037,2037,2016,2049
2040,2056,2106,2034,2054,2045,2040,2055
2048,2056,2099,2043,2069,2062,2054,2060
2050,2055,2082,2038,2008,2059,2040,2059
2049,2051,2057,2030,2003,2053,2042,2063
2046,2049,2053,2035,2015,2045,2041,2047
2049,2047,2055,2041,2044,2041,2054,2048
2050,2049,2051,2030,2068,2046,2045,2048
2045,2045,2045,2020,2070,2046,2044,2052
2043,2041,2035,2020,2106,2046,2034,2051
2047,2044,2035,2023,2168,2041,2041,2054
2052,2051,2042,2022,2171,2039,2041,2061
2056,2058,2051,2031,2186,2057,2033,2061
2059,2061,2063,2045,2167,2072,2042,2058
2056,2063,2067,2041,2101,2066,2059,2057
2056,2056,2061,2010,1956,2038,2055,2047
2043,2047,2054,2003,1892,2021,2046,2038
2049,2047,2066,2020,1851,2020,2058,2047
2060,2060,2082,2038,1912,2047,2058,2052
2064,2062,2078,2044,1966,2061,2058,2055
2066,2056,2072,2050,1984,2058,2055,2045
2056,2047,2073,2055,2027,2057,2061,2044
2053,2044,2073,2048,2057,2058,2064,2040
2048,2049,2071,2053,2078,2055,2049,2041
2049,2054,2071,2066,2156,2071,2058,2057
2058,2064,2072,2074,2134,2063,2060,2066
2060,2064,2065,2072,2131,2045,2051,2061
2059,2058,2061,2075,2161,2039,2045,2058
2057,2050,2061,2072,2153,2025,2050,2061
2052,2054,2060,2044,1988,2006,2039,2054
2054,2050,2055,2016,1849,1989,2030,2056
2054,2052,2051,2021,1904,1987,2037,2061
2053,2049,2053,2018,1914,1992,2022,2058
2048,2052,2052,2015,1924,2001,2025,2064
2052,2053,2055,2034,1961,2024,2043,2071
2068,2068,2067,2054,2002,2037,2053,2079
2064,2066,2065,2056,2021,2054,2064,2074
2068,2066,2071,2061,2038,2067,2065,2079
2070,2072,2073,2065,2051,2067,2051,2082
2070,2067,2071,2062,2054,2068,2047,2079
2068,2062,2064,2055,2073,2061,2041,2069
2055,2056,2054,2068,2100,2059,2034,2058
2053,2050,2054,2079,2121,2064,2040,2057
2042,2056,2057,2072,2102,2051,2047,2061
2047,2057,2054,2058,2074,2050,2040,2062
2048,2055,2049,2062,2053,2039,2064,2050
2042,2055,2055,2074,2040,2047,2062,2053
2047,2055,2060,2083,2066,2053,2052,2045
2049,2056,2060,2083,2067,2055,2052,2043
2045,2045,2062,2084,2057,2044,2020,2039
2040,2034,2056,2076,2052,2036,1999,2036
2040,2045,2064,2080,2054,2034,2022,2039
2042,2054,2062,2065,2052,2039,2014,2046
2047,2044,2058,2051,2046,2052,2049,2050
2040,2042,2054,2056,2050,2066,2049,2053
2046,2048,2047,2068,2054,2077,2061,2053
2048,2046,2051,2072,2056,2075,2051,2056
2047,2051,2053,2075,2055,2081,2058,2064
2049,2047,2052,2075,2057,2077,2029,2062
2050,2046,2050,2076,2050,2065,2030,2061
2049,2042,2047,2068,2052,2067,2049,2070
2050,2051,2045,2060,2049,2060,2049,2069
2052,2050,2038,2053,2041,2059,2035,2059
2050,2044,2041,2041,2033,2050,2037,2052
2041,2046,2035,2032,2020,2053,2021,2050
2047,2052,2042,2032,2011,2068,2024,2049
2052,2046,2038,2030,2012,2084,2030,2047
2046,2039,2036,2028,1998,2094,2034,2054
2053,2052,2043,2030,1992,2071,2026,2058
2058,2053,2038,2028,1977,2036,2027,2053
2050,2055,2042,2027,1976,2015,2034,2053
2059,2060,2048,2030,2007,2003,2040,2062
2057,2065,2060,2048,2065,2005,2041,2066
2060,2071,2070,2071,2126,2040,2060,2070
2063,2068,2063,2070,2131,2070,2055,2065
2060,2071,2063,2067,2123,2087,2036,2057
2058,2058,2057,2071,2114,2085,2009,2061
2042,2046,2051,2064,2138,2084,2019,2042
2034,2034,2042,2055,2124,2046,2030,2036
2037,2036,2045,2059,2072,1978,2037,2046
2042,2045,2051,2065,2049,1983,2032,2055
2042,2049,2052,2068,2011,2010,2038,2055
2051,2055,2052,2066,1991,2027,2041,2048
2042,2040,2039,2069,2032,2043,2030,2046
2042,2038,2044,2075,2053,2059,2028,2052
2051,2054,2049,2080,2060,2064,2052,2051
2043,2046,2039,2063,2071,2071,2051,2047
2038,2039,2034,2053,2082,2074,2044,2040
2031,2038,2023,2052,2085,2064,2040,2041
2035,2037,2024,2030,2069,2044,2043,2047
2036,2045,2026,2024,2053,2047,2031,2054
2052,2045,2027,2008,2044,2040,2037,2067
2053,2047,2024,2003,2051,2032,2031,2057
2050,2039,2034,2003,2030,2025,2024,2056
2043,2043,2039,2005,2030,2018,2032,2050
2044,2039,2039,2018,2051,2026,2039,2049
2045,2039,2043,2026,2061,2031,2050,2052
2046,2036,2044,2036,2043,2040,2049,2052
2050,2041,2044,2044,1983,2034,2030,2055
2053,2042,2047,2036,1911,2013,2030,2047
2034,2026,2032,2039,1953,2016,2033,2049
2039,2025,2040,2068,2012,2045,2044,2058
2052,2047,2056,2092,2044,2054,2046,2065
2048,2047,2054,2102,2075,2056,2041,2060
2043,2038,2062,2108,2083,2054,2050,2058
2044,2036,2060,2115,2079,2056,2045,2058
2045,2034,2053,2108,2079,2061,2061,2050
2049,2037,2045,2113,2080,2054,2050,2059
2048,2038,2040,2100,2073,2056,2055,2055
2045,2036,2028,2085,2066,2046,2050,2051
2040,2025,2013,2070,2036,2038,2053,2046
2037,2031,2007,2060,2032,2037,2045,2054
2037,2036,2013,2058,2030,2044,2038,2050
2040,2040,2023,2055,2026,2039,2045,2048
2038,2043,2017,2040,2020,2034,2056,2051
2038,2037,2003,2032,2017,2039,2037,2042
2031,2021,1979,2002,2018,2030,2033,2037
2018,2011,1978,1988,2027,2034,2029,2038
2020,2013,1981,1977,2029,2028,2049,2049
2029,2017,1979,1965,2027,2028,2040,2051
2026,2016,1974,1966,2020,2029,2041,2055
2031,2025,2001,1972,2034,2033,2034,2053
2039,2040,2043,1993,2053,2037,2053,2054
2053,2064,2078,2025,2070,2046,2056,2066
2066,2080,2094,2046,2082,2054,2058,2070
2066,2076,2083,2048,2065,2054,2060,2068
2068,2064,2074,2045,2043,2053,2059,2066
2058,2059,2069,2041,2032,2056,2045,2065
2056,2059,2062,2040,2045,2055,2032,2060
2056,2059,2060,2042,2051,2044,2044,2060
2057,2063,2056,2044,2049,2038,2045,2074
2055,2058,2062,2040,2044,2040,2049,2077
2058,2052,2060,2040,2042,2042,2035,2079
2049,2040,2054,2039,2040,2036,2018,2066
2040,2046,2064,2036,2036,2034,2031,2062
2040,2055,2072,2042,2046,2041,2043,2065
2042,2059,2079,2047,2047,2046,2038,2064
2042,2059,2076,2054,2051,2051,2066,2065
2046,2057,2072,2055,2058,2049,2066,2060
2045,2054,2064,2059,2057,2054,2051,2061
2042,2054,2063,2059,2036,2054,2058,2067
2044,2058,2071,2062,2039,2060,2067,2064
2045,2065,2069,2062,2014,2056,2072,2067
2040,2060,2072,2066,2015,2055,2070,2059
2043,2053,2067,2067,2012,2052,2076,2067
2043,2055,2064,2066,2020,2060,2084,2064
2045,2052,2052,2056,2010,2055,2070,2052
2037,2056,2049,2053,2010,2042,2052,2046
2039,2045,2045,2051,2015,2039,2056,2049
2042,2042,2047,2065,2067,2048,2056,2048
2042,2030,2048,2066,2082,2046,2064,2049
2039,2030,2042,2052,2058,2036,2050,2052
2043,2047,2044,2041,2028,2039,2050,2060
2050,2050,2046,2044,2048,2046,2061,2057
2050,2058,2044,2045,2081,2049,2050,2055
2058,2053,2038,2050,2080,2047,2042,2055
2055,2049,2035,2057,2077,2050,2054,2058
2049,2051,2038,2058,2083,2058,2058,2061
2053,2050,2044,2068,2090,2057,2063,2062
2050,2047,2034,2072,2075,2053,2065,2054
2049,2050,2031,2064,2054,2044,2044,2057
2046,2045,2022,2064,2050,2049,2059,2057
2045,2044,2022,2053,2051,2048,2062,2058
2039,2041,2017,2054,2048,2043,2055,2060
2040,2036,2017,2042,2043,2039,2055,2059
2038,2031,2020,2037,2039,2045,2059,2058
2040,2038,2031,2034,2027,2034,2029,2055
2038,2035,2037,2029,2014,2036,2056,2057
2035,2035,2037,2039,2017,2052,2069,2069
2051,2050,2038,2043,2023,2059,2064,2072
2050,2050,2033,2049,2007,2060,2045,2069
2053,2047,2031,2044,2001,2058,2058,2070
2047,2047,2032,2050,2011,2053,2043,2064
2044,2048,2038,2048,2040,2046,2032,2064
2051,2052,2049,2045,2049,2045,2038,2062
2054,2054,2051,2035,2074,2034,2040,2056
2050,2057,2062,2038,2107,2029,2037,2067
2055,2060,2066,2047,2092,2034,2060,2061
2053,2063,2071,2063,2065,2033,2060,2056
2047,2062,2067,2056,2067,2039,2069,2053
2046,2056,2053,2054,2088,2041,2048,2061
2048,2052,2050,2047,2075,2049,2053,2051
2049,2050,2049,2046,2075,2051,2061,2049
2039,2036,2049,2046,2081,2046,2050,2046
2042,2037,2043,2049,2084,2054,2055,2057
2054,2056,2055,2047,2054,2049,2061,2062
2054,2054,2051,2045,2030,2047,2062,2064
2050,2053,2051,2042,2030,2048,2039,2057
2050,2051,2042,2037,2033,2058,2050,2046
2046,2045,2043,2029,2011,2061,2047,2050
2047,2047,2039,2027,1970,2056,2053,2052
2047,2054,2048,2036,1989,2034,2039,2055
2049,2055,2054,2056,2033,2031,2057,2056
2049,2054,2053,2063,2111,2043,2032,2062
2042,2047,2053,2061,2146,2053,2049,2056
2046,2056,2054,2069,2147,2056,2062,2057
2049,2052,2052,2076,2132,2061,2041,2068
2050,2047,2046,2082,2111,2063,2057,2062
2046,2053,2043,2084,2104,2064,2060,2064
2046,2040,2047,2082,2103,2064,2051,2064
2046,2041,2049,2082,2093,2046,2043,2061
2041,2045,2059,2080,2087,2043,2042,2066
2053,2050,2055,2068,2026,2037,2024,2066
2049,2046,2050,2047,1927,2036,2043,2062
2052,2050,2052,2039,1972,2031,2047,2062
2052,2054,2049,2049,2028,2031,2042,2060
2042,2052,2044,2058,2035,2038,2047,2065
2044,2049,2044,2066,2051,2043,2058,2061
2047,2049,2043,2072,2077,2049,2051,2060
2046,2054,2043,2067,2091,2045,2063,2054
2048,2049,2040,2052,2107,2038,2061,2052
2046,2044,2028,2037,2095,2040,2047,2043
2038,2034,2018,2027,2089,2061,2037,2039
2042,2040,2018,2034,2133,2086,2032,2047
2042,2042,2022,2055,2191,2092,2061,2048
2046,2043,2020,2039,2094,2083,2048,2045
2043,2035,2008,2014,1974,2070,2046,2047
2043,2036,2009,2034,2027,2052,2066,2057
2052,2049,2020,2048,2064,2054,2047,2060
2047,2048,2011,2038,2074,2058,2032,2062
2050,2041,2010,2040,2039,2051,2031,2060
2049,2040,2007,2038,2002,2047,2028,2055
2042,2042,2013,2039,2010,2044,2015,2052
2038,2046,2022,2036,1986,2025,2008,2052
2049,2053,2028,2029,1976,2023,2018,2056
2042,2049,2030,2025,1927,2037,2021,2047
2036,2052,2035,2029,1890,2057,2043,2056
2038,2053,2041,2045,1892,2065,2042,2060
2052,2051,2045,2058,1909,2053,2020,2058
2050,2049,2049,2068,1906,2031,2033,2067
2047,2054,2067,2082,1890,2013,2021,2082
2057,2069,2074,2093,1894,2009,2044,2085
2054,2061,2073,2087,1898,1997,2035,2071
2042,2055,2071,2084,2056,2017,2007,2064
2056,2062,2090,2104,2193,2042,2036,2059
2045,2056,2083,2112,2290,2053,2026,2052
2040,2048,2072,2103,2264,2064,2021,2056
2040,2052,2057,2086,2175,2070,2032,2063
2045,2056,2066,2091,2128,2078,2047,2064
2052,2060,2084,2090,2096,2089,2060,2058
2049,2052,2084,2070,2052,2080,2037,2053
2040,2043,2069,2033,2033,2078,2042,2050
2034,2040,2060,2027,2027,2068,2012,2055
2041,2043,2060,2032,2058,2034,2011,2047
2040,2051,2063,2061,2168,2025,2013,2060
2046,2056,2056,2076,2244,2062,2043,2064
2052,2061,2050,2071,2249,2084,2056,2062
2045,2056,2045,2072,2248,2098,2047,2067
2050,2054,2046,2066,2229,2100,2036,2057
2046,2045,2036,2065,2223,2106,2049,2062
2050,2056,2036,2058,2181,2096,2063,2055
2046,2053,2027,2026,2025,2032,2052,2045
2048,2056,2026,2000,1973,2001,2045,2054
2046,2050,2028,2011,2031,2020,2054,2057
2042,2051,2031,2031,2066,2036,2049,2051
2045,2052,2022,2028,2046,2023,2058,2058
2048,2051,2010,2008,2008,2009,2041,2057
2044,2044,2016,2020,2006,2020,2061,2057
2044,2050,2026,2028,1988,2041,2046,2062
2043,2056,2039,2029,1998,2049,2047,2072
2051,2050,2037,2032,2018,2056,2054,2069
2042,2053,2034,2047,2010,2046,2064,2074
2043,2045,2032,2041,1991,2034,2047,2071
2047,2047,2034,2037,2005,2039,2058,2068
2046,2046,2028,2037,1990,2039,2058,2059
2031,2040,2018,2027,1954,2042,2054,2064
2033,2037,2023,2036,1933,2051,2057,2069
2049,2051,2030,2043,1993,2058,2076,2066
2041,2050,2036,2051,2042,2064,2038,2075
2047,2050,2040,2061,2051,2059,2065,2068
2042,2053,2038,2058,2069,2054,2037,2066
2051,2046,2035,2054,2086,2049,2056,2057
2042,2045,2037,2058,2099,2049,2062,2058
2038,2039,2041,2063,2092,2068,2061,2052
2032,2038,2031,2064,2083,2080,2083,2043
2037,2040,2036,2072,2084,2091,2073,2050
2036,2045,2037,2079,2086,2087,2063,2042
2032,2043,2037,2081,2063,2058,2058,2045
2034,2041,2047,2078,2043,2035,2060,2038
2033,2044,2045,2075,2039,2036,2060,2038
2033,2043,2063,2077,2035,2029,2040,2035
2032,2040,2062,2080,2041,2025,2042,2036
2034,2047,2067,2077,2046,2017,2040,2034
2047,2057,2064,2062,2033,2020,2037,2041
2052,2061,2050,2057,2040,2024,2035,2043
2050,2052,2038,2042,2041,2032,2034,2046
2045,2044,2035,2038,2046,2024,2031,2051
2042,2037,2023,2026,2039,2027,2037,2042
2038,2034,2015,2007,2024,2025,2043,2044
2030,2029,2013,1985,2018,2023,2047,2048
2030,2029,2013,1983,2031,2029,2045,2045
2031,2031,2029,1991,2035,2030,2030,2055
2036,2038,2038,2009,2044,2050,2058,2055
2036,2049,2038,2015,2053,2068,2052,2062
2042,2048,2029,2021,2053,2085,2051,2062
2035,2048,2034,2032,2045,2084,2053,2067
2040,2050,2034,2033,2029,2081,2043,2060
2022,2038,2033,2026,2008,2055,2038,2054
2027,2042,2043,2031,1998,2001,2033,2061
2034,2047,2058,2039,1999,1988,2040,2049
2035,2054,2065,2039,1998,2006,2036,2050
2036,2064,2071,2044,2000,2013,2032,2046
2035,2062,2080,2043,2004,2023,2044,2045
2039,2067,2070,2038,2011,2024,2042,2039
2042,2055,2052,2029,2047,2024,2041,2041
2033,2048,2044,2042,2121,2049,2048,2044
2032,2049,2035,2050,2130,2050,2064,2042
2034,2049,2031,2027,2083,2037,2055,2046
2037,2052,2044,2024,2068,2033,2054,2052
2045,2058,2052,2030,2069,2036,2050,2047
2051,2061,2061,2036,2065,2040,2035,2046
2049,2054,2061,2042,2068,2042,2037,2050
2054,2056,2071,2048,2064,2045,2055,2040
2038,2052,2061,2039,2048,2039,2025,2034
2025,2048,2051,2029,2029,2045,2031,2031
2034,2063,2059,2034,2016,2057,2042,2022
2033,2061,2050,2032,1988,2066,2022,2025
2032,2064,2053,2036,1975,2077,2050,2029
2043,2056,2053,2039,1963,2081,2057,2040
2050,2066,2055,2041,1950,2078,2044,2049
2057,2068,2052,2038,1951,2079,2053,2057
2057,2070,2049,2042,1964,2070,2051,2057
2057,2071,2051,2043,2020,2058,2040,2055
2056,2072,2048,2041,2126,2054,2052,2051
2046,2067,2041,2031,2146,2033,2015,2048
2043,2054,2027,2007,2057,1997,2021,2048
2042,2046,2019,2028,2042,2010,2030,2054
2043,2045,2025,2049,2073,2026,2044,2064
2047,2053,2038,2057,2093,2031,2023,2055
2043,2048,2032,2054,2083,2027,2020,2056
2044,2051,2041,2056,2079,2036,2027,2057
2052,2064,2050,2064,2065,2047,2046,2055
2044,2067,2054,2059,2069,2044,2056,2049
2048,2064,2052,2050,2070,2049,2056,2053
2046,2058,2049,2052,2059,2050,2051,2065
2045,2047,2057,2053,2064,2052,2044,2055
2046,2051,2062,2056,2062,2053,2035,2050
2050,2045,2062,2051,2064,2057,2043,2050
2044,2049,2055,2044,2057,2064,2040,2047
2050,2054,2056,2040,2061,2054,2037,2047
2051,2053,2060,2046,2067,2057,2031,2045
2049,2058,2058,2052,2073,2063,2052,2046
2056,2064,2065,2055,2071,2062,2043,2041
2054,2054,2054,2054,2072,2055,2045,2041
2049,2047,2049,2041,2063,2055,2052,2038
2047,2046,2037,2038,2054,2049,2038,2032
2041,2039,2037,2034,2051,2046,2034,2033
2046,2052,2038,2046,2050,2050,2056,2038
2048,2057,2052,2035,2042,2046,2038,2032
2054,2061,2053,2041,2042,2045,2032,2037
2055,2066,2069,2046,2045,2052,2051,2033
2057,2069,2074,2053,2046,2051,2030,2040
2060,2070,2064,2051,2040,2046,2023,2044
2055,2065,2055,2042,2036,2044,2000,2040
2058,2058,2048,2032,2033,2035,2033,2038
2055,2055,2053,2027,2026,2034,2036,2037
2058,2066,2079,2036,2029,2037,2022,2048
2052,2072,2098,2039,2036,2040,2029,2046
2056,2070,2107,2049,2034,2037,2031,2052
2055,2063,2097,2045,2045,2041,2044,2056
2055,2063,2078,2051,2049,2038,2045,2053
2046,2051,2060,2050,2041,2048,2028,2050
2038,2038,2051,2045,2012,2050,2035,2044
2034,2039,2063,2048,2009,2059,2045,2046
2040,2054,2066,2047,2002,2063,2051,2043
2044,2052,2077,2049,1997,2058,2046,2047
2047,2057,2077,2053,2005,2034,2042,2046
2045,2055,2083,2060,2032,2010,2050,2056
2055,2063,2077,2070,2073,2027,2020,2060
2054,2063,2083,2076,2091,2043,2050,2056
2052,2065,2082,2074,2098,2067,2056,2050
2052,2062,2073,2069,2088,2069,2054,2044
2050,2062,2075,2064,2079,2069,2071,2050
2054,2060,2071,2064,2071,2060,2060,2038
2057,2059,2067,2061,2047,2041,2041,2036
2045,2056,2061,2046,2009,2016,2039,2038
2047,2057,2056,2035,1974,2002,2034,2042
2046,2057,2046,2031,1960,1990,2029,2027
2031,2040,2027,2011,1951,1987,2013,2020
2030,2029,2023,2015,1966,2014,2043,2032
2045,2054,2047,2041,2009,2044,2048,2038
2052,2064,2057,2064,2056,2052,2035,2043
2057,2061,2064,2073,2114,2072,2040,2049
2057,2059,2063,2089,2154,2080,2036,2045
2047,2055,2066,2098,2140,2065,2027,2042
2049,2051,2073,2102,2124,2041,2044,2052
2053,2056,2091,2110,2118,2038,2037,2047
2044,2049,2090,2110,2128,2034,2033,2047
2048,2052,2079,2103,2112,2037,2046,2036
2040,2045,2074,2089,2091,2040,2025,2036
2040,2045,2078,2084,2025,2043,2040,2043
2050,2049,2083,2082,2017,2051,2046,2044
2047,2055,2082,2082,2035,2063,2040,2044
2052,2055,2083,2084,2046,2070,2054,2039
2047,2051,2073,2081,2053,2061,2027,2037
2039,2044,2060,2069,2066,2068,2029,2037
2046,2052,2056,2057,2060,2082,2046,2046
2048,2055,2041,2037,2044,2084,2024,2041
2049,2053,2033,2017,2042,2082,2036,2042
2053,2055,2035,2008,2041,2085,2045,2045
2054,2056,2034,1992,2035,2080,2050,2045
2051,2049,2018,1977,2035,2077,2056,2047
2052,2049,2011,1981,2040,2072,2055,2051
2052,2046,2009,1994,2057,2082,2057,2060
2052,2043,2014,2008,2069,2082,2064,2050
2050,2043,2021,2018,2061,2070,2054,2051
2048,2042,2031,2013,2053,2055,2075,2049
2049,2047,2035,2016,2048,2032,2062,2046
2051,2049,2039,2023,2039,2017,2047,2044
2049,2054,2041,2016,2026,2011,2046,2045
2050,2053,2054,2027,2036,2004,2039,2033
2040,2048,2059,2039,2036,2012,2042,2031
2038,2047,2068,2041,2056,2029,2055,2040
2045,2063,2076,2045,2007,2043,2057,2039
2049,2056,2062,2050,1990,2050,2054,2040
2045,2053,2055,2055,2003,2051,2037,2042
2045,2052,2045,2061,2109,2082,2047,2031
2047,2046,2037,2069,2177,2114,2039,2029
2039,2042,2029,2070,2196,2132,2053,2043
2042,2048,2029,2090,2256,2164,2053,2037
2047,2039,2029,2069,2185,2138,2047,2029
2041,2032,2020,2037,2140,2094,2050,2033
2036,2036,2021,2050,2165,2076,2060,2044
2040,2038,2025,2062,2146,2051,2049,2045
2044,2039,2028,2045,1976,2009,2057,2041
2038,2035,2033,2039,1894,1988,2060,2041
2039,2041,2043,2044,1906,1998,2042,2041
2035,2036,2041,2032,1899,1988,2039,2035
2038,2032,2044,2012,1910,1985,2028,2032
2038,2047,2047,2019,1972,2016,2048,2050
2052,2049,2042,2011,1990,2037,2052,2054
2054,2047,2051,2013,2005,2046,2057,2052
2040,2046,2058,2017,2035,2045,2048,2045
2046,2046,2060,2027,2057,2045,2045,2044
2046,2051,2066,2035,2064,2045,2050,2048
2043,2042,2064,2030,2055,2043,2053,2044
2044,2042,2067,2029,2044,2048,2055,2046
2041,2046,2061,2034,2054,2050,2056,2046
2037,2046,2061,2042,2058,2052,2062,2044
2041,2054,2071,2050,2062,2060,2042,2042
2043,2054,2070,2055,2059,2061,2032,2042
2048,2058,2071,2055,2052,2057,2046,2035
2042,2055,2072,2052,2048,2060,2038,2028
2039,2055,2063,2042,2038,2051,2037,2028
2035,2044,2054,2050,2038,2053,2042,2031
2034,2038,2051,2050,2040,2057,2031,2036
2045,2049,2060,2051,2044,2062,2040,2041
2040,2050,2058,2050,2045,2056,2061,2043
2046,2050,2055,2053,2044,2054,2044,2041
2041,2051,2054,2048,2041,2044,2061,2035
2042,2051,2048,2048,2039,2034,2041,2049
2047,2050,2042,2042,2031,2019,2047,2049
2049,2045,2041,2034,2026,2021,2036,2047
2043,2046,2039,2029,2033,2034,2029,2050
2044,2040,2034,2031,2037,2056,2037,2049
2046,2042,2039,2036,2047,2071,2030,2046
2052,2050,2046,2038,2050,2069,2026,2045
2046,2044,2037,2034,2051,2064,2016,2041
2047,2043,2036,2034,2045,2056,2010,2040
2041,2040,2042,2037,2053,2056,2011,2044
2038,2037,2038,2034,2046,2046,2025,2038
2035,2039,2043,2040,2031,2042,2003,2043
2037,2046,2049,2043,2032,2040,2027,2047
2034,2044,2050,2044,2034,2034,2019,2052
2045,2052,2058,2052,2039,2051,2027,2049
2046,2056,2058,2055,2044,2068,2036,2051
2054,2060,2057,2051,2041,2076,2032,2044
2053,2052,2055,2054,2047,2069,2057,2049
2049,2054,2050,2056,2059,2062,2053,2054
2053,2051,2050,2058,2078,2058,2052,2054
2047,2044,2051,2063,2103,2044,2047,2053
2044,2046,2051,2066,2106,2047,2038,2042
2043,2047,2055,2060,2082,2052,2048,2044
2046,2046,2053,2058,2067,2044,2039,2042
2039,2044,2050,2050,2053,2050,2047,2040
2041,2038,2042,2042,2053,2053,2050,2034
2041,2032,2029,2033,2041,2046,2046,2030
2022,2016,2027,2027,2038,2038,2042,2026
2027,2029,2040,2031,2043,2038,2057,2028
2034,2043,2041,2038,2045,2040,2043,2044
2043,2044,2039,2037,2042,2030,2049,2047
2041,2043,2038,2039,2036,2012,2043,2042
2048,2039,2036,2037,2036,2011,2037,2038
2046,2046,2038,2043,2045,2021,2024,2036
2043,2046,2038,2046,2052,2033,2050,2042
2044,2049,2044,2049,2062,2048,2044,2054
2055,2054,2052,2054,2068,2062,2046,2061
2056,2049,2049,2056,2066,2066,2052,2050
2050,2052,2046,2053,2055,2067,2024,2056
2050,2046,2041,2047,2048,2060,2026,2045
2043,2039,2039,2041,2046,2039,2031,2047
2038,2043,2032,2039,2033,2022,2027,2042
2039,2049,2030,2040,2024,2015,2047,2036
2036,2035,2032,2037,2026,2037,2056,2038
2038,2032,2036,2038,2037,2046,2067,2061
2050,2050,2044,2050,2050,2059,2075,2066
2054,2050,2046,2053,2047,2068,2071,2062
2054,2054,2046,2049,2054,2074,2070,2055
2047,2049,2045,2048,2047,2074,2062,2055
2045,2045,2043,2044,2054,2078,2066,2050
2049,2044,2040,2041,2054,2089,2070,2055
2050,2045,2047,2043,2055,2090,2056,2052
2053,2047,2050,2044,2056,2063,2040,2043
2047,2052,2049,2042,2060,2023,2031,2048
2057,2050,2052,2046,2052,2026,2063,2047
2052,2045,2049,2041,2053,2047,2082,2042
2044,2038,2042,2041,2048,2062,2054,2040
2038,2041,2043,2047,2058,2060,2056,2041
2041,2042,2044,2043,2055,2047,2062,2036
2031,2035,2035,2038,2054,2045,2075,2029
2032,2028,2041,2035,2053,2034,2042,2032
2038,2040,2046,2043,2042,2027,2059,2025
2052,2042,2048,2038,2044,2025,2060,2027
2050,2048,2051,2039,2041,2024,2057,2034
2053,2051,2053,2046,2047,2028,2053,2039
2049,2055,2051,2046,2046,2036,2075,2040
2052,2057,2053,2044,2044,2035,2057,2045
2057,2050,2048,2044,2045,2027,2056,2041
2052,2050,2046,2047,2038,2024,2059,2044
2055,2050,2048,2051,2047,2030,2055,2044
2045,2047,2044,2044,2043,2036,2064,2042
2046,2045,2046,2047,2041,2032,2048,2045
2047,2042,2037,2041,2037,2035,2058,2039
2044,2036,2039,2040,2038,2047,2056,2033
2041,2033,2041,2036,2037,2057,2046,2036
2036,2030,2026,2033,2027,2044,2038,2028
2032,2022,2022,2029,2033,2040,2026,2031
2025,2025,2024,2038,2043,2053,2043,2033
2039,2031,2031,2040,2045,2059,2026,2035
2038,2031,2036,2036,2048,2059,2058,2033
2038,2032,2033,2039,2057,2058,2040,2038
2042,2035,2036,2041,2057,2057,2018,2038
2040,2040,2035,2034,2060,2055,2040,2033
2036,2032,2038,2037,2054,2053,2042,2030
2037,2034,2040,2043,2055,2050,2035,2034
2041,2038,2039,2045,2054,2052,2044,2039
2044,2037,2041,2036,2049,2047,2049,2039
2054,2046,2050,2042,2051,2042,2057,2042
2053,2053,2053,2047,2057,2038,2061,2036
2057,2055,2052,2047,2058,2033,2042,2034
2050,2052,2049,2047,2056,2029,2046,2036
2050,2054,2039,2044,2050,2023,2034,2029
2038,2040,2036,2046,2049,2024,2026,2025
2037,2039,2035,2051,2055,2035,2035,2032
2050,2054,2037,2049,2055,2040,2027,2027
2046,2043,2043,2040,2055,2038,2041,2025
2055,2052,2045,2041,2041,2039,2053,2027
2051,2054,2048,2040,2041,2043,2045,2028
2048,2050,2051,2043,2041,2051,2054,2031
2050,2052,2054,2045,2041,2053,2054,2055
2059,2063,2055,2042,2036,2062,2060,2053
2063,2065,2056,2043,2039,2053,2053,2054
2058,2062,2055,2041,2043,2060,2050,2052
2060,2050,2049,2038,2045,2055,2057,2041
2049,2050,2055,2037,2044,2050,2056,2033
2041,2052,2047,2038,2037,2050,2060,2040
2045,2049,2057,2037,2041,2047,2051,2035
2042,2045,2047,2034,2037,2036,2045,2032
2032,2022,2034,2035,2033,2035,2046,2025
2025,2024,2032,2038,2047,2046,2051,2034
2038,2047,2049,2053,2052,2050,2050,2036
2043,2048,2052,2051,2050,2046,2055,2035
2050,2051,2053,2052,2049,2045,2062,2040
2046,2047,2050,2049,2058,2039,2051,2049
2044,2043,2043,2052,2059,2043,2060,2054
2045,2040,2049,2060,2065,2051,2068,2045
2046,2045,2053,2058,2058,2056,2067,2044
2047,2047,2055,2054,2055,2056,2071,2040
2051,2053,2048,2052,2055,2062,2068,2040
2049,2050,2050,2045,2056,2068,2069,2050
2058,2045,2045,2051,2066,2061,2084,2043
2049,2046,2046,2050,2070,2065,2081,2045
2053,2052,2047,2054,2066,2070,2074,2046
2051,2053,2051,2052,2056,2070,2094,2043
2044,2038,2046,2054,2052,2072,2083,2038
2044,2045,2059,2056,2056,2080,2075,2031
2045,2055,2072,2062,2072,2084,2089,2029
2046,2063,2076,2066,2073,2079,2080,2029
2056,2064,2075,2071,2078,2074,2068,2023
2054,2064,2073,2067,2078,2063,2044,2018
2051,2058,2064,2058,2064,2053,2050,2022
2039,2055,2055,2052,2054,2044,2031,2024
2037,2047,2055,2043,2047,2039,2033,2024
2043,2050,2060,2046,2058,2050,2047,2029
2053,2058,2058,2050,2055,2062,2045,2031
2059,2058,2055,2049,2052,2080,2047,2034
2057,2060,2056,2046,2052,2080,2045,2038
2058,2060,2053,2051,2052,2066,2041,2044
2056,2059,2058,2047,2054,2050,2039,2040
2051,2057,2057,2048,2060,2053,2054,2041
2054,2054,2046,2051,2055,2028,2031,2035
2043,2042,2046,2042,2043,2016,2032,2035
2039,2044,2047,2040,2048,2032,2061,2038
2049,2042,2048,2038,2036,2031,2043,2035
2044,2041,2044,2040,2040,2027,2028,2026
2042,2050,2042,2037,2040,2033,2044,2032
2042,2047,2048,2038,2051,2031,2039,2038
2035,2045,2046,2046,2055,2036,2045,2042
2038,2044,2045,2048,2065,2042,2049,2035
2047,2053,2045,2043,2067,2057,2063,2043
2059,2061,2047,2045,2066,2060,2052,2043
2053,2060,2056,2044,2064,2057,2064,2040
2057,2057,2063,2045,2054,2063,2069,2040
2052,2049,2052,2042,2049,2049,2065,2041
2046,2046,2043,2040,2045,2052,2074,2051
2052,2050,2042,2045,2062,2071,2082,2051
2051,2047,2051,2051,2060,2082,2063,2035
2038,2037,2040,2040,2058,2077,2061,2026
2027,2025,2033,2036,2045,2071,2059,2019
2032,2038,2039,2033,2047,2069,2058,2022
2026,2040,2041,2033,2049,2069,2052,2030
2028,2044,2041,2032,2051,2068,2066,2037
2031,2043,2040,2034,2052,2069,2042,2043
2044,2051,2037,2038,2057,2060,2056,2048
2043,2053,2041,2044,2060,2068,2070,2048
2042,2057,2045,2046,2062,2063,2059,2047
2037,2048,2044,2043,2067,2058,2048,2046
2031,2043,2041,2041,2062,2033,2031,2035
2030,2041,2042,2045,2066,2040,2031,2029
2025,2035,2037,2042,2061,2047,2012,2039
2031,2033,2036,2046,2061,2063,2032,2032
2030,2038,2044,2040,2065,2056,2030,2033
2036,2046,2045,2038,2052,2010,2030,2028
2029,2030,2038,2034,2027,1917,1999,2034
2042,2039,2043,2033,2023,1919,2012,2034
2070,2054,2050,2038,2034,1969,2023,2041
2058,2048,2045,2040,2034,1983,2034,2043
2053,2052,2047,2033,2026,1991,2043,2037
2050,2053,2051,2039,2029,2006,2041,2038
2049,2060,2058,2041,2035,2036,2068,2043
2051,2060,2060,2043,2043,2056,2093,2048
2049,2054,2058,2039,2047,2055,2079,2037
2047,2048,2052,2035,2045,2064,2062,2031
2044,2041,2046,2040,2041,2076,2049,2035
2042,2045,2046,2040,2047,2080,2043,2029
2044,2048,2049,2044,2055,2066,2045,2030
2045,2048,2045,2050,2058,2044,2045,2026
2041,2046,2048,2050,2060,2042,2054,2025
2045,2050,2050,2049,2064,2056,2059,2027
2045,2050,2048,2051,2063,2062,2049,2017
2039,2037,2042,2051,2064,2070,2040,2019
2035,2047,2043,2055,2068,2071,2046,2022
2044,2053,2053,2050,2072,2078,2030,2029
2043,2054,2053,2056,2071,2095,2033,2033
2046,2057,2055,2056,2072,2104,2041,2038
2048,2054,2050,2053,2065,2106,2039,2037
2051,2051,2043,2050,2051,2065,2026,2031
2035,2043,2039,2037,2039,2021,2018,2019
2033,2042,2047,2040,2044,2018,2002,2004
2025,2040,2036,2036,2042,2026,2023,2009
2038,2036,2039,2036,2045,2047,2020,2014
2038,2048,2043,2038,2043,2044,2036,2014
2039,2046,2044,2034,2037,2034,2036,2020
2041,2047,2048,2037,2041,2038,2053,2033
2045,2057,2048,2045,2038,2039,2058,2040
2049,2061,2052,2043,2040,2031,2058,2037
2045,2053,2044,2036,2045,2032,2046,2039
2041,2053,2050,2043,2057,2047,2063,2034
2050,2060,2054,2047,2062,2061,2052,2028
2047,2051,2045,2043,2062,2067,2069,2032
2050,2048,2046,2043,2066,2071,2077,2033
2050,2053,2043,2040,2056,2071,2076,2031
2045,2052,2037,2035,2049,2057,2054,2027
2046,2052,2040,2025,2042,2047,2061,2028
2044,2045,2035,2028,2030,2050,2067,2031
2034,2030,2032,2024,2020,2073,2058,2025
2028,2027,2027,2015,2010,2105,2051,2032
2033,2034,2030,2013,1983,2104,2081,2037
2043,2042,2032,2002,1936,2099,2069,2026
2037,2039,2027,1995,1881,2075,2037,2016
2040,2038,2025,1994,1856,1982,2008,2010
2034,2036,2016,1989,1871,1922,2023,2003
2030,2021,2004,1997,1926,1933,2021,1998
2033,2030,2020,2038,2016,1960,2027,2008
2043,2043,2031,2060,2079,2002,2037,2014
2042,2036,2023,2066,2118,2060,2050,2023
2046,2038,2013,2061,2130,2100,2072,2034
2046,2043,2004,2056,2105,2104,2068,2027
2044,2034,1993,2039,2082,2079,2061,2013
2043,2031,1996,2027,2066,2060,2068,2017
2034,2025,1994,2030,2063,2042,2059,2021
2036,2028,1995,2028,2076,2042,2076,2024
2036,2023,1994,2028,2085,2031,2055,2029
2039,2024,1994,2031,2103,2030,2069,2033
2043,2034,1998,2033,2099,2025,2074,2025
2045,2035,2009,2031,2093,2019,2072,2026
2040,2043,2030,2035,2082,2013,2065,2028
2046,2044,2038,2028,2074,2031,2066,2026
2045,2041,2039,2025,2070,2055,2045,2021
2032,2026,2036,2015,2069,2074,2045,2018
2028,2019,2030,2011,2060,2084,2047,2023
2037,2029,2048,2021,2074,2082,2038,2024
2038,2046,2073,2034,2067,2070,2046,2021
2042,2059,2108,2041,2056,2083,2040,2022
2039,2065,2117,2044,2059,2098,2041,2024
2041,2060,2101,2048,2067,2105,2043,2029
2044,2066,2102,2053,2079,2101,2059,2027
2047,2068,2100,2058,2086,2069,2065,2025
2051,2065,2101,2054,2090,2046,2085,2031
2050,2064,2101,2059,2080,2028,2081,2031
2041,2064,2096,2048,2053,2013,2062,2023
2044,2057,2085,2045,2052,2027,2064,2018
2039,2052,2077,2053,2045,2049,2064,2020
2037,2050,2080,2059,2040,2065,2052,2015
2032,2046,2064,2062,2036,2039,2042,2002
2025,2028,2052,2047,2025,2013,2034,2009
2024,2029,2051,2049,2031,2034,2042,2019
2031,2048,2066,2068,2070,2060,2059,2015
2038,2055,2069,2083,2067,2080,2043,2020
2047,2052,2072,2081,2040,2081,2029,2017
2045,2049,2072,2081,2022,2075,2048,2013
2044,2050,2064,2086,2029,2064,2047,2027
2049,2050,2063,2095,2039,2072,2049,2038
2047,2048,2054,2095,2073,2044,2037,2037
2049,2051,2049,2105,2090,2039,2060,2037
2052,2048,2038,2096,2128,2054,2064,2038
2042,2030,2022,2055,2059,2032,2052,2035
2033,2022,2004,2028,2031,2016,2036,2016
2027,2020,1996,2006,2047,2027,2023,2000
2026,2018,2000,2003,2082,2036,2028,1997
2022,2021,2013,2024,2150,2067,2034,1995
2019,2019,2018,2043,2174,2082,2047,2000
2013,2012,2009,2016,2042,2055,2052,2003
2023,2021,2010,1994,1988,2056,2054,2024
2020,2027,2015,1982,1998,2065,2034,2024
2023,2033,2027,1984,2022,2052,2051,2018
2026,2035,2037,1980,2004,2037,2063,2012
2020,2043,2059,1997,2017,2044,2056,2013
2025,2045,2060,2016,2045,2055,2061,2014
2033,2046,2062,2030,2056,2052,2052,2019
2031,2048,2066,2041,2060,2064,2057,2024
2037,2051,2076,2060,2071,2067,2067,2022
2029,2047,2073,2059,2069,2071,2047,2013
2024,2040,2062,2048,2068,2070,2046,2014
2019,2039,2065,2037,2067,2060,2064,2010
2030,2041,2059,2030,2058,2042,2058,2011
2025,2055,2076,2035,2031,2034,2022,2007
2034,2060,2086,2041,2020,2031,2012,1996
2028,2054,2072,2046,2034,2029,2024,2004
2024,2039,2059,2050,2045,2032,2042,2002
2030,2044,2059,2048,2055,2038,2067,2009
2027,2046,2061,2056,2059,2047,2060,2010
2030,2054,2058,2052,2050,2052,2045,2016
2031,2055,2044,2039,2051,2048,2041,2011
2029,2046,2040,2025,2030,2041,2058,2009
2029,2042,2038,2004,2029,2060,2073,2018
2026,2034,2032,2002,2021,2055,2070,2019
2026,2022,2026,1992,2029,2046,2063,2026
2028,2029,2026,1990,2047,2060,2047,2030
2033,2021,2031,2007,2066,2068,2059,2032
2036,2031,2042,2010,2041,2055,2080,2024
2037,2037,2056,2012,2030,2048,2071,2035
2048,2053,2059,2014,2031,2061,2086,2035
2045,2053,2051,2015,2032,2072,2088,2030
2040,2039,2044,2000,2025,2071,2057,2010
2030,2024,2035,2001,2018,2078,2068,2009
2031,2041,2050,2008,2005,2095,2065,2015
2035,2051,2057,2011,2015,2086,2064,2013
2044,2061,2053,2016,2041,2090,2042,2022
2044,2059,2043,2009,2036,2047,2064,2023
2047,2045,2031,2003,2015,1980,2036,2024
2040,2043,2033,2012,2043,1960,2054,2031
2048,2052,2057,2043,2060,1990,2070,2033
2047,2048,2060,2044,2062,2020,2046,2028
2046,2051,2061,2042,2043,2047,2058,2022
2037,2047,2052,2043,2064,2070,2063,2020
2041,2037,2037,2042,2122,2094,2060,2017
2029,2025,2036,2036,2063,2099,2060,2012
2030,2028,2045,2048,2052,2098,2065,2002
2025,2029,2053,2063,2082,2095,2058,1994
2028,2034,2058,2066,2087,2107,2057,1994
2026,2025,2046,2063,2086,2112,2065,1992
2022,2019,2039,2053,2088,2103,2061,1997
2028,2027,2033,2058,2109,2104,2057,1999
2029,2022,2032,2076,2114,2096,2066,1993
2035,2029,2035,2071,2084,2062,2053,2004
2038,2029,2034,2060,2074,2052,2039,2009
2038,2033,2027,2057,2059,2065,2049,2006
2040,2032,2027,2051,2053,2044,2027,2013
2037,2038,2028,2035,2012,2012,2032,2008
2031,2034,2028,2025,1973,1975,2046,2004
2028,2040,2032,2021,1970,1965,2049,2009
2037,2039,2027,2006,1985,1980,2055,2016
2034,2029,2030,1993,1997,1967,2034,2012
2033,2026,2026,1980,2001,1954,2028,2024
2034,2028,2031,1987,2011,1934,2053,2038
2039,2037,2034,1992,2017,1961,2065,2043
2037,2022,2020,1980,2001,1996,2060,2020
2032,2010,2009,1972,1986,2023,2065,2017
2024,2022,2027,1988,2019,2063,2061,2024
2042,2034,2040,2014,2038,2057,2072,2022
2038,2045,2046,2018,2034,2059,2068,2026
2037,2049,2046,2024,2034,2028,2063,2033
2045,2059,2056,2041,2045,2036,2060,2025
2045,2061,2066,2038,2040,2071,2075,2022
2040,2056,2057,2035,2048,2124,2060,2018
2043,2047,2060,2033,2059,2153,2068,2015
2044,2043,2063,2031,2074,2141,2102,2011
2041,2050,2066,2038,2068,2061,2082,2004
2037,2045,2057,2028,2046,1966,2045,2004
2036,2042,2055,2018,2025,1967,2047,1999
2032,2042,2048,2024,2024,1995,2061,2001
2023,2038,2058,2026,2025,2007,2057,1997
2027,2038,2056,2027,2030,2007,2055,1984
2017,2029,2045,2018,2032,2035,2061,1983
2025,2037,2050,2026,2028,2055,2047,1987
2029,2041,2048,2025,2018,2054,2046,1984
2029,2037,2045,2018,2004,2053,2046,1989
2030,2040,2041,2018,2004,2043,2036,1999
2030,2039,2046,2020,2022,2025,2047,2005
2036,2039,2044,2028,2042,2014,2074,2015
2040,2042,2042,2035,2068,2029,2060,2011
2041,2042,2036,2040,2074,2055,2068,2004
2031,2027,2032,2041,2075,2067,2076,2001
2036,2028,2026,2043,2064,2070,2069,2014
2033,2029,2025,2043,2058,2059,2064,2006
2037,2033,2023,2039,2044,2054,2066,2011
2037,2021,2017,2034,2045,2054,2068,2015
2036,2021,2012,2035,2044,2061,2078,2017
2028,2024,2004,2021,2038,2057,2066,2014
2023,2009,1993,2027,2041,2052,2068,2011
2029,2012,1994,2029,2047,2047,2060,2012
2032,2026,2002,2032,2050,2045,2042,2006
2038,2026,1993,2034,2056,2047,2052,2010
2037,2032,1988,2039,2064,2050,2072,2011
2044,2031,1989,2039,2056,2051,2062,2011
2042,2034,2010,2034,2039,2058,2059,2002
2034,2035,2026,2037,2064,2063,2081,1999
2032,2041,2028,2039,2083,2086,2085,1998
2037,2042,2031,2038,2072,2090,2080,2000
2030,2050,2033,2036,2067,2085,2056,1993
2031,2056,2043,2041,2041,2091,2051,1997
2034,2059,2052,2029,2032,2073,2048,1998
2033,2057,2052,2032,2039,2036,2047,2011
2032,2058,2058,2024,2037,2000,2061,2002
2030,2049,2057,2008,2006,1991,2045,1986
2018,2032,2057,2012,1999,1998,2041,1991
2029,2041,2083,2027,1993,2006,2031,1993
2035,2059,2106,2032,1999,2019,2052,1993
2030,2064,2110,2041,2011,2017,2045,2007
2042,2066,2122,2057,2026,2021,2043,1998
2049,2075,2133,2066,2038,2033,2067,2001
2040,2073,2128,2064,2036,2040,2047,2007
2047,2062,2116,2056,2021,2020,2053,1999
2036,2056,2103,2056,2020,2009,2039,2007
2035,2052,2092,2050,2044,2011,2031,2006
2037,2040,2081,2051,2047,2016,2048,2009
2038,2047,2085,2054,2036,2023,2058,2006
2039,2037,2072,2049,2055,2039,2044,2000
2031,2031,2062,2061,2068,2056,2049,1995
2026,2027,2062,2056,2073,2056,2070,2002
2033,2022,2052,2059,2058,2054,2047,2001
2015,2014,2048,2052,2056,2063,2051,2000
2014,2018,2054,2057,2053,2067,2064,2008
2025,2029,2057,2059,2052,2064,2061,2015
2033,2029,2052,2062,2059,2062,2075,2011
2034,2038,2059,2060,2062,2060,2074,2020
2034,2039,2061,2064,2064,2057,2074,2016
2046,2044,2058,2061,2052,2046,2082,2017
2041,2032,2047,2056,2048,2041,2074,2014
2040,2034,2042,2047,2042,2043,2066,2008
2039,2034,2036,2040,2049,2045,2063,2009
2028,2042,2051,2039,2037,2033,2062,2005
2032,2043,2056,2035,2044,2044,2082,1999
2028,2041,2050,2028,2040,2049,2069,1994
2032,2041,2046,2026,2055,2062,2074,1991
2025,2038,2043,2021,2045,2060,2067,1986
2027,2041,2051,2020,2038,2048,2084,1983
2016,2030,2033,2012,2036,2046,2063,1987
2022,2031,2042,2018,2037,2050,2076,1990
2024,2039,2046,2032,2031,2055,2063,1992
2030,2038,2049,2032,2030,2052,2066,2001
2028,2044,2049,2038,2036,2048,2064,1997
2037,2045,2054,2039,2033,2050,2026,2003
2037,2045,2048,2038,2038,2051,2048,1999
2036,2042,2050,2037,2037,2050,2070,2003
2035,2041,2049,2047,2040,2050,2060,2012
2036,2044,2056,2051,2043,2049,2059,2014
2034,2045,2063,2049,2040,2046,2057,2012
2036,2043,2070,2050,2038,2045,2059,2014
2028,2039,2069,2054,2039,2050,2049,2010
2032,2043,2072,2053,2035,2058,2072,2010
2038,2046,2068,2056,2044,2059,2072,2018
2034,2046,2070,2061,2054,2074,2076,2016
2032,2039,2056,2054,2048,2068,2068,2010
2022,2031,2050,2054,2040,2060,2067,2009
2021,2035,2053,2056,2053,2066,2071,2011
2038,2041,2057,2066,2063,2059,2075,2014
2037,2046,2057,2069,2070,2027,2066,2014
2038,2045,2052,2058,2061,2013,2058,2009
2025,2041,2044,2053,2066,2027,2065,2002
2026,2030,2031,2040,2066,2024,2043,2006
2022,2027,2027,2023,2030,2027,2053,2005
2027,2024,2022,2005,1989,2049,2070,2004
2027,2024,2024,2009,2022,2046,2067,2006
2034,2029,2030,2016,2041,2045,2066,2007
2039,2034,2035,2018,2045,2049,2066,2012
2033,2030,2032,2018,2039,2048,2061,2005
2031,2031,2033,2030,2046,2057,2060,2007
2031,2029,2028,2029,2045,2064,2054,2018
2035,2028,2034,2028,2039,2053,2077,2011
2022,2019,2029,2014,2029,2063,2072,2018
2026,2025,2047,2018,2027,2063,2102,2026
2054,2052,2059,2025,2029,2069,2101,2031
2060,2058,2068,2030,2032,2064,2072,2032
2051,2065,2062,2032,2052,2065,2083,2029
2045,2061,2065,2030,2080,2049,2061,2020
2043,2051,2050,2024,2087,2033,2051,2015
2042,2049,2043,2030,2112,2047,2055,2015
2044,2046,2044,2035,2132,2035,2065,2018
2044,2048,2039,2034,2122,2031,2038,2015
2039,2046,2042,2036,2117,2042,2045,2020
2038,2049,2039,2036,2103,2047,2073,2032
2041,2048,2040,2035,2078,2050,2080,2031
2043,2044,2040,2028,2017,2050,2078,2041
2042,2044,2036,2025,1932,2044,2088,2042
2039,2044,2039,2023,1958,2045,2080,2037
2029,2022,2027,2021,1983,2040,2064,2022
2026,2024,2028,2029,2020,2039,2064,2025
2036,2039,2040,2042,2046,2047,2085,2037
2047,2047,2041,2039,2056,2052,2081,2040
2045,2045,2049,2039,2057,2047,2078,2044
2046,2046,2049,2041,2064,2049,2082,2046
2045,2043,2051,2041,2046,2055,2074,2037
2050,2045,2058,2044,2023,2059,2065,2026
2041,2044,2058,2054,2004,2068,2051,2024
2042,2044,2061,2058,1992,2055,2040,2023
2043,2039,2059,2052,1991,2040,2032,2020
2037,2038,2057,2055,1993,2040,2032,2023
2039,2037,2059,2053,1985,2039,2051,2015
2034,2041,2061,2050,2006,2045,2067,2021
2042,2043,2063,2066,2032,2054,2069,2017
2040,2045,2066,2066,2055,2059,2052,2022
2037,2038,2052,2056,2034,2048,2066,2018
2037,2038,2052,2055,2022,2043,2066,2028
2046,2053,2058,2059,2029,2043,2056,2031
2041,2053,2059,2064,2017,2048,2052,2028
2046,2046,2055,2052,2014,2055,2064,2027
2041,2040,2047,2055,2028,2072,2068,2031
2045,2035,2042,2043,2037,2082,2091,2033
2039,2032,2033,2019,2035,2089,2078,2033
2038,2039,2024,2011,2050,2092,2086,2036
2039,2033,2030,2007,2064,2088,2070,2036
2050,2034,2021,1996,2107,2080,2059,2037
2044,2028,2017,2000,2164,2084,2074,2039
2036,2031,2026,2026,2208,2098,2085,2043
2039,2037,2020,2039,2210,2113,2066,2041
2041,2031,2009,2030,2113,2105,2064,2042
2036,2023,2011,2029,2052,2110,2066,2042
2039,2019,2005,2036,2055,2096,2049,2032
2033,2005,2000,2027,2055,2062,2069,2033
2034,2007,2004,2026,2046,2044,2069,2048
2040,2026,2019,2027,2024,1999,2060,2046
2045,2032,2026,2033,2020,1964,2063,2044
2046,2033,2026,2036,2035,1975,2063,2044
2045,2028,2028,2035,2031,2006,2064,2048
2044,2031,2035,2030,2036,2030,2058,2049
2049,2033,2040,2033,2045,2034,2065,2051
2051,2045,2051,2040,2059,2033,2060,2053
2056,2043,2054,2034,2031,2018,2047,2048
2052,2039,2059,2029,1994,2009,2035,2044
2052,2037,2064,2019,1950,2000,2035,2034
2045,2033,2065,2012,1942,2016,2034,2032
2042,2032,2062,2006,1972,2019,2056,2026
2042,2028,2065,2015,2037,2000,2062,2038
2052,2051,2080,2064,2131,2043,2073,2042
2060,2048,2079,2076,2184,2083,2080,2050
2065,2055,2074,2077,2159,2106,2076,2056
2068,2059,2074,2076,2157,2075,2079,2054
2065,2053,2069,2066,2132,2023,2042,2055
2063,2051,2068,2061,2105,2010,2059,2050
2059,2050,2068,2059,2099,2025,2070,2042
2060,2047,2061,2056,2075,2027,2069,2040
2055,2047,2061,2043,2057,2022,2042,2037
2052,2041,2055,2039,2052,2032,2056,2037
2049,2032,2041,2020,2034,2065,2029,2034
2044,2030,2042,2013,2043,2057,2021,2037
2057,2032,2042,2028,2098,2080,2050,2030
2048,2034,2045,2044,2133,2074,2046,2043
2051,2036,2050,2049,2134,2062,2056,2050
2048,2045,2056,2049,2118,2056,2069,2059
2058,2040,2057,2055,2124,2071,2078,2062
2056,2033,2046,2052,2123,2070,2057,2055
2050,2024,2041,2041,2119,2063,2058,2051
2043,2025,2047,2043,2096,2076,2077,2037
2045,2029,2044,2021,1994,2066,2093,2028
2034,2029,2044,2001,1879,2066,2076,2019
2036,2027,2033,2010,1910,2064,2061,2025
2038,2026,2036,2019,1981,2052,2068,2045
2042,2038,2048,2044,2045,2034,2077,2059
2051,2047,2050,2056,2088,2022,2092,2073
2065,2052,2048,2073,2110,2031,2114,2069
2067,2040,2043,2070,2117,2067,2104,2072
2062,2033,2038,2059,2106,2074,2089,2057
2059,2031,2030,2046,2080,2059,2090,2051
2053,2025,2021,2027,2053,2042,2081,2041
2044,2020,2016,2026,2043,2037,2064,2030
2043,2016,2023,2026,2051,2035,2056,2036
2041,2018,2021,2021,2076,2035,2069,2032
2037,2008,2018,2015,2082,2023,2052,2035
2036,2007,2012,2006,2033,2006,2065,2042
2042,2018,2010,2019,1989,2002,2072,2039
2047,2015,2035,2034,1979,2014,2072,2048
2050,2030,2068,2062,2000,2020,2070,2049
2056,2034,2078,2077,2010,2029,2086,2050
2066,2045,2089,2083,2029,2039,2063,2053
2066,2054,2104,2089,2057,2054,2072,2057
2066,2058,2101,2099,2079,2073,2075,2058
2059,2055,2089,2094,2053,2091,2081,2053
2054,2044,2083,2096,2072,2109,2084,2058
2047,2046,2077,2102,2136,2142,2091,2057
2053,2046,2066,2106,2180,2144,2092,2068
2064,2051,2055,2100,2167,2123,2094,2065
2061,2043,2039,2088,2149,2109,2077,2068
2049,2037,2031,2062,2105,2067,2078,2050
2030,2007,1996,2013,1992,1988,2047,2041
2026,1999,1985,1980,1942,1959,2055,2041
2035,2021,1998,1984,1997,1990,2068,2042
2045,2037,2012,1992,1998,2016,2069,2042
2049,2034,2012,1980,1920,2003,2054,2049
2052,2030,2018,1975,1953,2015,2077,2059
2061,2050,2034,2000,2012,2037,2093,2062
2063,2051,2039,2015,2024,2039,2084,2064
2062,2055,2044,2018,2040,2047,2072,2055
2059,2057,2054,2032,2025,2044,2090,2050
2063,2062,2072,2024,1970,2041,2075,2054
2059,2061,2079,2021,1962,2051,2082,2055
2059,2060,2082,2022,1970,2073,2086,2061
2061,2053,2073,2027,1984,2111,2071,2064
2067,2054,2075,2034,2015,2157,2073,2070
2072,2059,2074,2056,2076,2177,2081,2069
2082,2059,2073,2062,2125,2114,2056,2065
2069,2049,2060,2040,2076,1985,2040,2058
2070,2059,2064,2032,2069,1979,2074,2063
2073,2062,2062,2033,2110,2054,2083,2069
2074,2062,2067,2041,2122,2096,2093,2072
2076,2067,2062,2022,1995,2074,2081,2075
2075,2059,2057,2018,1950,2068,2069,2061
2077,2057,2053,2035,2008,2085,2076,2057
2067,2039,2039,2025,2065,2084,2063,2056
2053,2031,2032,2020,2075,2061,2064,2052
2052,2032,2032,2030,2065,2058,2058,2057
2046,2026,2031,2040,2088,2025,2050,2044
2046,2022,2030,2034,2099,1988,2029,2025
2044,2015,2022,2029,2085,1957,2027,2026
2046,2029,2039,2047,2076,1963,2054,2047
2066,2044,2054,2072,2092,2008,2067,2050
2061,2040,2049,2055,2017,2012,2040,2042
2046,2023,2041,2040,2001,2015,2029,2037
2042,2024,2040,2047,2045,2021,2036,2040
2048,2034,2044,2054,2070,2026,2051,2045
2053,2038,2044,2060,2107,2032,2054,2042
2054,2040,2046,2062,2125,2037,2056,2045
2052,2047,2050,2066,2123,2040,2044,2047
2056,2050,2052,2065,2146,2049,2047,2051
2050,2053,2060,2072,2155,2067,2089,2044
2044,2056,2061,2070,2144,2082,2084,2048
2044,2048,2053,2061,2136,2086,2089,2056
2053,2051,2052,2060,2109,2078,2086,2054
2057,2047,2054,2045,2035,2071,2086,2052
2052,2041,2053,2039,2002,2056,2076,2052
2057,2048,2066,2046,2031,2064,2056,2052
2058,2057,2072,2043,2022,2063,2042,2054
2061,2055,2073,2035,1952,2042,2053,2047
2051,2049,2064,2023,1928,2026,2023,2046
2053,2045,2056,2026,2004,2035,2042,2052
2061,2062,2064,2045,2060,2054,2058,2054
2060,2057,2061,2057,2092,2069,2064,2051
2059,2053,2064,2062,2131,2083,2063,2053
2056,2051,2069,2069,2158,2102,2084,2054
2048,2054,2068,2076,2175,2103,2086,2061
2059,2048,2069,2072,2159,2104,2074,2056
2056,2049,2059,2064,2129,2118,2086,2048
2050,2050,2066,2060,2116,2129,2093,2048
2063,2050,2060,2056,2094,2135,2097,2056
2062,2043,2060,2029,1939,2133,2089,2061
2058,2045,2059,2021,1899,2102,2097,2070
2065,2051,2067,2032,1942,2033,2065,2071
2065,2054,2065,2045,1992,2028,2068,2068
2064,2061,2067,2064,2035,2018,2050,2073
2070,2058,2067,2070,2057,1996,2048,2064
2061,2050,2064,2065,2065,2012,2060,2073
2059,2055,2059,2071,2098,2060,2080,2080
2069,2064,2065,2071,2108,2085,2084,2080
2069,2064,2062,2050,2075,2080,2082,2075
2061,2056,2055,2027,2045,2058,2071,2053
2047,2057,2044,2006,2005,2063,2041,2045
2056,2049,2040,1982,1870,2051,2037,2041
2056,2053,2042,1978,1777,2021,2052,2041
2056,2053,2045,1997,1809,2021,2058,2036
2050,2048,2039,2005,1927,2036,2049,2045
2053,2046,2036,2034,2044,2013,2045,2056
2053,2054,2053,2076,2127,1982,2050,2057
2050,2049,2050,2093,2094,1984,2041,2047
2046,2039,2047,2082,2009,1987,2045,2038
2046,2043,2042,2062,2000,2008,2030,2047
2047,2046,2044,2043,2059,2042,2038,2040
2037,2024,2030,2032,2142,2045,2027,2036
2037,2030,2035,2036,2113,2059,2058,2046
2057,2046,2047,2023,1937,2083,2048,2031
2047,2040,2028,1969,1675,2089,2036,2027
2036,2029,2021,1994,1833,2127,2023,2013
2027,2026,2025,2025,1969,2109,2025,2014
2023,2032,2031,2032,2062,2011,2037,2036
2034,2044,2042,2053,2157,1944,2048,2051
2042,2045,2047,2086,2256,1987,2064,2058
2046,2045,2046,2085,2258,2052,2085,2055
2041,2030,2036,2081,2247,2099,2082,2052
2034,2029,2025,2070,2185,2095,2074,2046
2036,2021,2027,2052,2086,2062,2055,2045
2044,2026,2022,2049,2067,2061,2060,2048
2040,2028,2030,2038,2027,2043,2054,2049
2040,2019,2024,2027,1958,2052,2046,2050
2031,2016,2019,2033,1990,2087,2068,2039
2028,2021,2025,2036,1995,2110,2070,2041
2021,2037,2039,2030,1978,2102,2082,2047
2029,2040,2032,2029,1965,2066,2082,2068
2035,2035,2021,2028,1970,2053,2083,2065
2047,2039,2023,2021,1973,2031,2087,2060
2057,2037,2023,2020,1962,1999,2058,2057
2054,2035,2020,2019,1948,1993,2052,2054
2038,2030,2019,2040,2006,2001,2047,2057
2046,2032,2034,2067,2063,2008,2051,2054
2047,2034,2040,2076,2073,2039,2060,2054
2053,2032,2040,2074,2056,2068,2074,2062
2054,2032,2042,2068,2064,2076,2080,2057
2052,2047,2051,2070,2070,2068,2074,2049
2050,2054,2059,2071,2072,2072,2080,2046
2047,2059,2057,2089,2116,2081,2080,2038
2035,2041,2051,2099,2225,2092,2074,2030
2028,2026,2045,2110,2336,2098,2056,2032
2028,2038,2059,2116,2243,2112,2071,2044
2044,2048,2082,2137,2213,2147,2098,2056
2064,2056,2087,2142,2225,2155,2101,2059
2056,2048,2083,2129,2204,2149,2088,2067
2059,2040,2078,2101,2170,2122,2065,2060
2056,2034,2066,2076,2131,2080,2061,2053
2055,2047,2075,2053,1932,2002,2044,2054
2047,2046,2074,2019,1670,1915,2023,2050
2048,2046,2072,2001,1632,1882,2041,2045
2046,2046,2077,2001,1736,1901,2021,2035
2035,2046,2077,1996,1802,1897,2013,2037
2041,2057,2084,2047,1991,1950,2056,2050
2047,2069,2094,2084,2077,1988,2054,2062
2056,2067,2084,2064,2005,1983,2065,2067
2062,2059,2062,2021,1940,1960,2052,2066
2052,2041,2036,2000,1965,1984,2052,2062
2054,2035,2042,2015,2033,2019,2066,2080
2065,2052,2048,2022,2056,2048,2070,2076
2062,2050,2044,2012,2040,2058,2068,2074
2055,2046,2039,1993,1949,2073,2042,2061
2039,2031,2028,1964,1857,2036,2049,2048
2033,2036,2032,1969,1887,2020,2053,2058
2040,2045,2037,1976,1961,2010,2054,2052
2031,2047,2033,1987,1981,2008,2041,2043
2020,2043,2027,1998,1998,2027,2052,2042
2027,2038,2023,2010,2050,2080,2063,2045
2040,2039,2029,2034,2136,2091,2077,2064
2045,2044,2037,2046,2152,2088,2082,2053
2043,2042,2043,2051,2142,2074,2055,2056
2039,2039,2039,2059,2159,2080,2069,2054
2041,2046,2050,2058,2138,2073,2053,2046
2041,2040,2045,2049,2106,2063,2047,2042
2041,2030,2040,2047,2114,2057,2060,2048
2036,2035,2043,2042,2093,2046,2042,2049
2033,2036,2041,2032,2085,2047,2041,2050
2032,2036,2038,2025,2070,2061,2032,2048
2036,2044,2041,2029,2048,2066,2045,2059
2038,2054,2044,2027,2049,2069,2076,2063
2038,2055,2050,2033,2039,2062,2055,2064
2040,2050,2044,2032,2036,2043,2048,2072
2046,2057,2045,2035,2019,2053,2051,2075
2042,2056,2052,2040,2023,2065,2044,2068
2046,2051,2050,2046,2043,2076,2053,2070
2040,2046,2048,2051,2061,2090,2055,2074
2050,2047,2050,2050,2063,2095,2054,2080
2053,2050,2046,2052,2057,2073,2057,2069
2049,2042,2041,2042,2052,2060,2040,2068
2039,2030,2033,2040,2037,2048,2002,2055
2031,2033,2034,2040,2055,2054,2024,2065
2050,2053,2048,2045,2047,2055,2073,2074
2056,2058,2056,2046,2030,2055,2078,2090
2059,2061,2058,2052,2022,2045,2074,2088
2054,2061,2056,2046,2021,2040,2083,2087
2047,2058,2050,2037,2076,2041,2070,2081
2052,2059,2050,2040,2127,2057,2074,2084
2046,2064,2052,2055,2165,2090,2063,2085
2051,2061,2050,2064,2172,2096,2056,2084
2054,2060,2057,2069,2196,2077,2066,2097
2055,2065,2069,2078,2152,2052,2071,2090
2054,2063,2068,2081,2089,2050,2073,2085
2057,2060,2062,2089,2094,2075,2058,2068
2048,2044,2050,2070,2012,2072,2043,2053
2036,2047,2045,2033,1868,2044,2050,2050
2032,2037,2033,2002,1828,2003,1994,2044
2028,2032,2031,2001,1829,1970,1996,2052
2035,2043,2034,2038,1890,1987,2030,2063
2046,2042,2031,2068,1933,2022,2035,2067
2052,2040,2022,2080,1999,2063,2045,2071
2050,2042,2024,2075,2038,2093,2047,2069
2048,2044,2017,2083,2068,2113,2053,2077
2052,2040,2027,2084,2083,2124,2041,2080
2056,2036,2029,2079,2092,2136,2036,2074
2040,2027,2030,2070,2081,2162,2038,2076
2038,2043,2040,2051,2006,2147,2080,2082
2040,2061,2046,2019,1959,2099,2078,2099
2060,2072,2047,1998,1843,2043,2050,2104
2062,2071,2049,2009,1861,2003,2031,2106
2065,2073,2056,2008,1908,1956,2029,2099
2056,2063,2045,2016,2052,1976,2025,2088
2059,2040,2035,2027,2161,2031,2029,2088
2057,2028,2040,2052,2199,2087,2057,2088
2055,2036,2058,2062,2186,2087,2065,2097
2053,2039,2063,2056,2127,2043,2059,2096
2052,2029,2054,2047,2087,2034,2077,2095
2054,2044,2057,2067,2193,2065,2065,2096
2055,2049,2059,2055,2108,2065,2066,2078
2048,2045,2050,2038,1913,2046,2043,2078
2039,2046,2051,2037,1913,2053,2064,2076
2043,2052,2055,2038,1889,2013,2045,2083
2049,2065,2067,2039,1857,1955,2034,2084
2052,2064,2075,2053,1935,1972,2047,2093
2062,2071,2079,2070,2034,2027,2032,2087
2044,2069,2073,2075,2111,2104,2049,2082
2036,2054,2058,2063,2117,2174,2038,2085
2047,2053,2063,2069,2136,2173,2039,2083
2046,2046,2045,2068,2183,2067,2037,2070
2030,2031,2041,2063,2205,1997,2044,2068
2033,2042,2040,2069,2209,2016,2064,2073
2046,2047,2046,2069,2200,2051,2053,2079
2051,2049,2043,2062,2218,2059,2056,2058
2045,2040,2025,2006,2060,2031,2024,2064
2052,2029,2015,1971,1850,2020,2021,2066
2045,2023,2014,1974,1882,2019,2007,2054
2036,2016,2019,2000,2028,2045,2019,2039
2027,2028,2021,2013,2030,2062,2014,2055
2029,2024,2018,2004,1960,2058,2019,2058
2023,2028,2030,2023,1999,2100,2056,2065
2018,2045,2050,2051,2083,2135,2091,2090
2037,2063,2057,2077,2113,2118,2084,2109
2052,2068,2056,2073,2085,2114,2092,2097
2050,2063,2052,2080,2063,2115,2081,2086
2053,2060,2045,2090,2085,2131,2072,2088
2040,2042,2040,2083,2081,2110,2061,2080
2035,2040,2038,2055,1994,2045,2040,2089
2039,2036,2031,2045,1983,2000,2022,2072
2035,2017,2021,2040,2079,2007,2023,2057
2042,2018,2022,2059,2197,2052,2039,2068
2041,2029,2026,2066,2222,2086,2049,2067
2039,2029,2026,2054,2180,2066,2012,2063
2037,2026,2037,2036,2012,2067,2035,2057
2042,2036,2053,2049,2011,2113,2048,2048
2036,2038,2056,2053,2013,2115,2037,2049
2033,2033,2056,2058,2031,2135,2051,2045
2024,2036,2052,2049,2039,2142,2050,2045
2015,2039,2048,2034,1964,2080,2033,2042
2015,2037,2038,2016,1886,1958,2008,2057
2024,2029,2031,2008,1929,1914,1998,2053
2023,2011,2017,2019,2059,1908,2002,2062
2036,2011,2021,2038,2090,1934,2007,2085
2064,2044,2045,2055,2043,1977,2027,2093
2078,2050,2045,2046,1990,2005,2032,2079
2070,2051,2044,2039,1944,2005,2020,2076
2060,2066,2060,2055,1929,2006,2027,2071
2057,2077,2067,2058,1927,2015,2020,2068
2053,2065,2066,2050,1945,2012,2044,2066
2036,2047,2047,2048,1957,2024,2037,2084
2045,2043,2036,2034,1958,2028,2046,2109
2062,2051,2037,2036,2028,2040,2015,2109
2067,2055,2042,2040,2084,2052,2015,2095
2076,2046,2035,2061,2247,2068,2018,2066
2061,2036,2028,2090,2418,2091,2032,2054
2051,2031,2023,2108,2445,2100,2026,2058
2032,2017,2029,2102,2331,2089,2022,2076
2021,2025,2033,2096,2275,2070,2033,2080
2009,2041,2043,2086,2222,2053,2011,2078
2009,2043,2040,2065,2154,2022,2012,2085
2029,2050,2035,2038,2040,2001,2030,2087
2039,2050,2029,2010,1896,1992,2011,2069
2026,2048,2034,1962,1643,1997,2025,2074
2035,2053,2043,2014,1870,2056,2037,2096
2051,2059,2059,2063,2086,2074,2045,2102
2053,2066,2074,2080,2128,2068,2059,2101
2051,2071,2062,2071,2096,2072,2052,2087
2050,2060,2056,2058,2034,2082,2069,2093
2044,2067,2050,2065,2058,2096,2065,2085
2041,2059,2048,2073,2084,2079,2062,2078
2044,2057,2054,2066,2060,2061,2051,2077
2035,2057,2050,2062,2072,2051,2048,2077
2040,2057,2051,2062,2066,2047,2051,2074
2038,2041,2045,2054,2043,2028,2028,2072
2029,2036,2038,2053,2035,2029,2038,2077
2043,2058,2058,2068,2072,2042,2050,2080
2043,2061,2066,2069,2059,2036,2048,2080
2044,2055,2064,2060,2058,2042,2044,2076
2042,2051,2070,2056,2053,2043,2059,2084
2052,2064,2068,2061,2070,2043,2040,2092
2051,2061,2051,2056,2076,2036,2032,2089
2054,2051,2051,2060,2076,2026,2042,2080
2043,2042,2050,2062,2064,2017,2018,2080
2032,2049,2068,2075,2044,2006,2018,2089
2042,2050,2072,2072,2013,2012,2011,2086
2040,2042,2068,2071,2020,2032,2014,2080
2038,2037,2052,2080,2064,2066,2002,2075
2043,2039,2060,2092,2032,2075,2059,2084
2044,2045,2057,2102,2008,2072,2049,2082
2032,2026,2036,2097,2035,2075,2057,2084
2028,2033,2032,2094,2088,2115,2055,2097
2034,2047,2040,2105,2127,2133,2057,2098
2045,2048,2034,2101,2148,2122,2052,2100
2042,2057,2029,2083,2102,2083,2040,2100
2039,2049,2027,2052,2062,2049,2041,2093
2040,2044,2019,2043,2061,2046,2036,2093
2053,2054,2039,2054,2061,2035,2040,2089
2041,2052,2056,2052,2020,2013,2043,2089
2039,2044,2067,2028,1975,2001,2044,2074
2035,2041,2066,2001,1943,2003,2035,2066
2028,2034,2064,2007,2025,2035,2049,2076
2044,2051,2093,2053,2138,2079,2068,2090
2044,2065,2095,2084,2199,2102,2074,2088
2046,2068,2088,2112,2257,2124,2072,2085
2043,2070,2095,2127,2267,2113,2063,2078
2038,2061,2085,2093,2149,2082,2045,2082
2039,2057,2080,2069,2074,2056,2047,2080
2042,2062,2075,2055,2045,2026,2037,2080
2042,2055,2068,2044,1980,2011,2035,2082
2043,2056,2072,2051,2026,2007,2033,2068
2038,2048,2060,2043,2044,2010,2005,2073
2032,2049,2048,2039,2063,2018,2037,2073
2037,2048,2054,2034,2068,2033,2043,2081
2039,2053,2047,2022,2059,2046,2030,2089
2040,2060,2047,2023,2063,2069,2049,2102
2050,2055,2038,2026,2070,2090,2062,2108
2050,2056,2039,2035,2086,2126,2072,2107
2048,2054,2039,2039,2091,2113,2058,2104
2044,2044,2028,2036,2075,2113,2063,2097
2043,2047,2046,2043,2072,2116,2051,2096
2039,2049,2045,2046,2077,2159,2044,2097
2037,2025,2037,2045,2085,2197,2057,2104
2040,2022,2035,2048,2082,2223,2051,2103
2042,2036,2038,2052,2078,2159,2034,2096
2040,2032,2039,2044,2056,2032,2025,2086
2038,2033,2042,2042,2036,2032,2029,2091
2040,2046,2048,2038,2027,2039,2030,2097
2038,2048,2045,2052,2016,2001,2037,2102
2040,2056,2056,2051,2007,1997,2054,2100
2049,2062,2058,2054,2009,2002,2056,2102
2050,2062,2064,2057,2047,2008,2050,2097
2054,2066,2065,2066,2063,2021,2060,2098
2043,2059,2058,2072,2131,2062,2050,2084
2034,2049,2057,2075,2168,2088,2041,2079
2033,2054,2055,2078,2160,2097,2047,2076
2033,2059,2059,2080,2153,2131,2054,2084
2038,2057,2056,2076,2100,2093,2039,2086
2041,2045,2052,2062,2020,2020,2054,2097
2041,2035,2051,2043,1888,1981,2029,2092
2040,2039,2050,2029,1941,1985,2042,2092
2038,2041,2050,2054,2054,2002,2026,2090
2046,2048,2049,2062,2060,2005,2038,2096
2040,2041,2049,2062,2055,2013,2031,2095
2040,2043,2048,2062,2068,2018,2008,2093
2037,2047,2050,2054,2092,2038,2016,2093
2043,2053,2052,2059,2112,2062,2028,2096
2037,2047,2047,2058,2104,2072,2037,2093
2034,2040,2037,2056,2102,2084,2029,2085
2037,2039,2039,2076,2145,2109,2033,2088
2032,2031,2038,2077,2128,2108,2048,2088
2030,2026,2027,2059,2088,2071,2033,2088
2020,2020,2019,2054,2070,2040,2023,2080
2014,2010,2016,2061,2055,2037,2007,2076
2014,2000,2017,2068,2059,2056,2002,2082
2014,2013,2030,2083,2078,2060,2026,2108
2027,2032,2047,2102,2095,2054,2038,2115
2042,2052,2060,2108,2103,2050,2052,2116
2042,2060,2065,2111,2109,2036,2032,2117
2042,2057,2062,2102,2105,2018,2037,2105
2038,2053,2064,2099,2093,2015,2042,2096
2033,2051,2067,2105,2086,2018,2052,2093
2033,2046,2060,2103,2097,2034,2043,2092
2037,2040,2052,2100,2103,2040,2046,2096
2031,2038,2045,2093,2110,2044,2032,2094
2038,2037,2039,2100,2107,2048,2029,2098
2040,2039,2038,2093,2102,2050,2032,2098
2039,2038,2035,2072,2086,2056,2011,2099
2034,2040,2021,2043,2054,2051,2018,2096
2025,2029,2010,2014,2043,2052,1999,2078
2018,2017,2007,2004,2013,2050,1994,2077
2018,2026,2020,2010,2009,2074,2018,2089
2029,2054,2044,2023,2042,2087,2037,2101
2040,2066,2057,2020,2031,2085,2023,2102
2042,2070,2061,2027,2025,2093,2039,2102
2049,2081,2065,2045,2092,2094,2041,2109
2050,2077,2071,2064,2121,2072,2026,2120
2054,2073,2065,2059,2073,2029,2014,2104
2046,2057,2059,2049,2058,2000,2015,2101
2043,2051,2050,2062,2150,2034,2022,2101
2038,2050,2042,2061,2186,2031,2016,2096
2033,2042,2039,2046,2118,2014,2024,2098
2025,2052,2047,2051,2047,2016,2031,2112
2034,2059,2044,2060,2054,2037,2036,2116
2037,2066,2053,2066,2075,2051,2049,2114
2041,2063,2042,2054,2072,2058,2039,2102
2038,2042,2033,2046,2080,2080,2040,2108
2040,2048,2041,2056,2074,2115,2053,2116
2046,2061,2044,2066,2090,2148,2040,2117
2051,2057,2047,2075,2107,2208,2051,2112
2041,2052,2043,2074,2129,2204,2042,2117
2042,2052,2047,2077,2132,2114,2056,2118
2053,2059,2051,2071,2077,2002,2050,2113
2046,2051,2046,2058,2016,2026,2047,2108
2047,2051,2040,2051,1997,2048,2024,2106
2050,2049,2043,2037,1937,1995,2021,2103
2047,2058,2044,2041,1933,1951,2016,2099
2046,2048,2044,2068,1999,2000,2032,2100
2040,2048,2043,2095,2074,2050,2038,2097
2039,2044,2044,2110,2143,2077,2026,2072
2030,2032,2032,2089,2170,2080,2019,2059
2024,2011,2018,2064,2088,2073,2003,2071
2027,2000,2011,2044,2027,2062,2018,2071
2035,2007,2024,2053,1996,2056,1998,2079
2037,2020,2040,2060,2003,2018,2005,2084
2024,2037,2047,2068,1995,1979,2009,2103
2033,2043,2043,2078,2017,1991,2012,2112
2038,2036,2026,2068,2035,2019,2026,2113
2034,2026,2014,2073,2062,2042,2030,2108
2026,2024,2022,2069,2079,2052,2008,2110
2027,2026,2023,2054,2055,2045,2015,2101
2028,2031,2027,2045,2059,2064,2022,2096
2033,2028,2035,2038,2067,2087,2023,2096
2030,2039,2048,2048,2054,2101,2060,2103
2039,2054,2062,2060,2057,2107,2050,2108
2042,2059,2070,2062,2058,2114,2046,2107
2046,2062,2074,2062,2058,2106,2039,2115
2050,2057,2071,2054,2078,2055,2011,2110
2045,2059,2066,2064,2102,2027,2004,2104
2049,2070,2078,2077,2117,2024,2018,2105
2052,2072,2074,2078,2108,2033,2004,2101
2049,2068,2071,2071,2088,2044,2010,2100
2048,2062,2062,2055,2064,2040,2030,2114
2042,2060,2059,2057,2062,2020,2029,2119
2042,2053,2063,2059,2070,2002,2026,2117
2048,2055,2077,2064,2065,2010,2021,2120
2049,2060,2082,2067,2027,2008,2030,2115
2044,2059,2082,2065,2030,2011,2008,2106
2040,2055,2070,2060,2033,2020,2012,2102
2037,2050,2060,2072,2116,2057,2004,2105
2040,2049,2064,2092,2156,2069,2040,2112
2037,2050,2057,2084,2111,2066,2030,2099
2035,2048,2057,2101,2160,2104,2040,2097
2027,2041,2049,2102,2173,2100,2024,2092
2028,2038,2052,2103,2170,2092,2014,2091
2036,2047,2064,2090,2124,2074,2015,2096
2038,2053,2068,2083,2003,2062,2017,2098
2041,2051,2076,2077,1908,2044,2012,2107
2050,2061,2087,2097,2001,2033,2000,2118
2051,2060,2080,2101,2052,2049,2011,2111
2046,2056,2075,2107,2087,2058,2007,2104
2043,2057,2070,2106,2092,2047,2025,2109
2049,2056,2054,2091,2084,2045,2021,2108
2057,2051,2043,2069,2051,2038,2009,2102
2046,2047,2039,2062,2048,2043,2026,2103
2046,2046,2042,2069,2076,2054,2012,2105
2046,2049,2049,2063,2081,2050,2012,2104
2042,2042,2053,2053,2068,2049,2009,2114
2043,2043,2055,2044,2077,2058,2004,2111
2034,2043,2058,2044,2078,2056,2003,2110
2041,2050,2063,2040,2102,2059,2004,2106
2048,2052,2061,2036,2112,2048,2002,2112
2053,2051,2050,2036,2125,2043,1991,2113
2047,2047,2041,2050,2144,2027,2002,2123
2053,2049,2046,2053,2119,2025,2001,2122
2051,2048,2047,2071,2126,2023,1999,2115
2038,2045,2046,2069,2091,2017,1994,2110
2041,2043,2053,2063,2004,1997,1987,2104
2029,2040,2049,2050,1942,1985,2006,2099
2029,2044,2050,2051,1963,1994,1999,2104
2040,2045,2050,2055,1989,2007,2021,2116
2044,2054,2054,2051,2025,2021,1991,2126
2048,2057,2053,2059,2043,2024,2042,2118
2057,2064,2060,2069,2070,2032,2018,2114
2057,2066,2063,2073,2072,2041,2035,2115
2053,2069,2058,2068,2052,2061,2028,2113
2037,2057,2059,2067,2029,2092,2015,2110
2041,2058,2055,2061,1968,2062,1991,2105
2045,2059,2053,2062,1981,2058,2007,2108
2050,2056,2043,2056,2036,2070,2008,2110
2041,2054,2042,2071,2062,2066,1995,2098
2037,2052,2048,2080,2055,2058,2000,2092
2034,2048,2050,2071,2038,2038,1993,2098
2036,2054,2045,2075,2058,2060,1997,2109
2042,2047,2046,2080,2091,2079,2019,2113
2040,2046,2043,2078,2083,2071,2017,2118
2043,2046,2041,2076,2079,2059,2014,2114
2041,2044,2038,2073,2071,2043,2006,2114
2041,2041,2035,2063,2061,2035,1997,2117
2048,2039,2033,2072,2081,2032,1991,2113
2043,2045,2039,2081,2090,2031,1988,2113
2034,2032,2033,2081,2091,2026,1998,2107
2028,2017,2029,2076,2076,2021,1984,2109
2029,2018,2037,2080,2075,2021,1997,2106
2036,2024,2045,2086,2066,2022,1976,2111
2044,2037,2061,2084,2038,2013,1968,2121
2046,2041,2061,2057,1944,2012,1994,2111
2042,2037,2051,2036,1873,2010,1991,2104
2046,2036,2050,2040,1995,2035,1997,2103
2036,2036,2056,2075,2140,2050,2007,2106
2045,2038,2058,2102,2147,2071,2004,2104
2047,2042,2052,2105,2138,2096,2018,2098
2043,2031,2048,2109,2149,2096,2000,2088
2041,2024,2039,2083,2089,2082,2011,2085
2043,2027,2032,2059,2027,2091,2022,2089
2044,2036,2034,2051,1989,2105,2035,2086
2045,2047,2032,2037,1945,2100,2032,2089
2046,2036,2030,2036,1974,2086,2008,2083
2043,2037,2025,2049,2012,2050,2020,2076
2040,2046,2034,2054,2009,2015,2032,2086
2056,2048,2038,2058,2009,2012,2019,2102
2053,2051,2034,2055,2020,2045,2038,2087
2057,2047,2031,2043,2043,2071,2020,2076
2046,2041,2028,2046,2115,2095,2031,2083
2051,2049,2039,2058,2087,2088,2024,2101
2052,2050,2048,2069,2035,2081,2028,2104
2042,2047,2047,2074,2066,2058,2042,2106
2046,2048,2051,2100,2139,2088,2043,2109
2059,2055,2057,2108,2173,2100,2048,2102
2047,2059,2064,2093,2101,2059,2028,2096
2054,2054,2060,2087,2065,2048,2024,2108
2050,2054,2059,2094,2066,2056,2026,2100
2050,2051,2058,2098,2067,2056,2020,2092
2042,2042,2046,2090,2053,2051,2019,2092
2038,2030,2036,2082,2029,2013,2020,2097
2046,2036,2035,2079,2021,2005,2035,2098
2047,2035,2036,2083,2027,2017,2034,2103
2053,2040,2044,2082,2041,2044,2040,2098
2055,2039,2042,2077,2052,2063,2039,2089
2051,2033,2020,2062,2060,2069,2038,2094
2058,2032,2012,2058,2052,2062,2031,2094
2054,2035,2019,2066,2030,2056,2039,2094
2050,2041,2023,2073,2029,2057,2043,2074
2036,2041,2031,2081,2018,2052,2041,2078
2031,2044,2029,2067,2031,2036,2027,2074
2030,2039,2025,2061,2053,2040,2028,2077
2037,2017,2013,2057,2066,2048,2012,2078
2031,2018,2007,2058,2069,2052,2022,2071
2036,2030,2023,2063,2059,2056,2029,2063
2037,2030,2018,2056,2043,2041,2017,2072
2036,2030,2018,2047,2024,2033,2022,2083
2051,2037,2021,2041,2024,2036,2030,2088
2056,2027,2021,2040,2030,2036,2023,2092
2055,2031,2020,2037,2027,2043,2026,2095
2049,2034,2026,2034,2010,2037,2005,2083
2051,2030,2036,2036,2014,2033,2015,2075
2049,2043,2063,2046,2026,2047,2029,2095
2055,2052,2086,2063,2046,2054,2044,2099
2058,2060,2095,2070,2034,2049,2027,2096
2060,2067,2101,2085,2022,2063,2044,2104
2066,2074,2115,2088,2019,2049,2036,2108
2071,2080,2115,2086,2021,2050,2028,2100
2067,2067,2094,2077,2048,2051,2025,2088
2055,2049,2079,2073,2064,2054,2019,2090
2058,2035,2053,2067,2084,2056,2021,2085
2053,2025,2024,2051,2094,2054,2002,2072
2040,2017,2009,2046,2092,2057,2001,2064
2039,2022,2020,2059,2110,2076,2030,2084
2052,2048,2041,2090,2136,2088,2033,2093
2055,2053,2056,2113,2077,2090,2053,2089
2047,2043,2059,2104,2002,2078,2036,2079
2042,2036,2054,2107,1970,2068,2032,2075
2045,2043,2057,2112,1949,2076,2047,2090
2055,2055,2054,2119,1922,2086,2056,2090
2058,2051,2051,2124,1954,2080,2062,2096
2056,2048,2042,2118,1979,2072,2041,2097
2054,2043,2035,2101,1994,2050,2044,2083
2052,2037,2030,2081,1967,2021,2029,2076
2055,2042,2029,2047,1933,1994,2021,2070
2061,2045,2037,2040,1981,1998,2024,2066
2065,2053,2048,2038,2027,2021,2033,2071
2060,2059,2051,2040,2050,2033,2029,2064
2059,2064,2062,2045,2082,2063,2032,2059
2069,2069,2058,2050,2082,2069,2049,2057
2069,2060,2059,2035,2058,2068,2034,2057
2063,2054,2049,2015,2016,2066,2024,2059
2052,2050,2035,1994,2009,2056,2028,2055
2055,2044,2030,1978,1993,2059,2012,2065
2056,2047,2041,1986,1998,2055,2014,2074
2058,2051,2058,2001,2022,2047,2012,2069
2060,2053,2081,2029,2036,2046,2026,2070
2061,2063,2108,2044,2057,2039,2006,2080
2062,2072,2128,2073,2117,1998,2009,2085
2062,2076,2143,2111,2163,1996,2005,2072
2062,2065,2131,2106,2139,1998,2021,2066
2056,2048,2105,2099,2078,2014,2010,2060
2054,2043,2088,2073,1941,2022,2026,2060
2051,2044,2066,2087,2040,2046,2037,2060
2057,2040,2044,2121,2145,2052,2039,2068
2060,2044,2036,2139,2152,2064,2044,2069
2059,2040,2019,2128,2137,2049,2010,2063
2046,2029,1995,2100,2067,2041,2006,2049
2048,2014,1988,2092,2068,2046,2033,2053
2047,2021,1980,2084,2091,2045,2037,2065
2059,2030,1977,2076,2103,2040,2051,2057
2059,2030,1978,2070,2094,2048,2047,2057
2059,2026,1973,2055,2053,2043,2049,2057
2052,2024,1971,2012,1901,2014,2034,2046
2040,2017,1968,1988,1874,2027,2038,2043
2029,2019,2001,2006,1946,2043,2039,2047
2027,2031,2032,2030,2001,2049,2049,2045
2035,2041,2056,2046,2065,2066,2061,2056
2042,2044,2068,2043,2075,2071,2035,2041
2035,2027,2069,2026,2025,2049,2015,2025
2027,2012,2070,2026,1995,2057,2010,2037
2033,2028,2066,2031,1994,2076,2013,2040
2042,2036,2061,2034,2007,2073,2029,2045
2060,2064,2079,2063,2021,2033,2004,2046
2078,2078,2096,2091,2034,2017,2009,2039
2075,2080,2119,2122,2047,2034,2008,2047
2075,2086,2133,2131,2054,2039,2024,2049
2071,2074,2116,2126,2049,2036,2029,2046
2065,2065,2094,2109,2045,2027,2008,2042
2053,2048,2068,2086,2041,2033,2022,2038
2046,2042,2051,2074,2047,2049,2028,2039
2041,2043,2040,2062,2036,2042,2018,2035
2038,2035,2021,2043,2032,2040,2029,2045
2042,2052,2036,2065,2048,2042,2029,2052
2057,2070,2053,2094,2067,2041,2030,2055
2061,2069,2045,2094,2064,2024,2037,2048
2059,2061,2018,2080,2047,2001,2022,2054
2062,2061,2032,2065,2039,1992,2013,2050
2054,2051,2035,2033,2010,1972,2007,2042
2038,2043,2043,2006,1989,1958,1990,2041
2034,2042,2064,1988,1987,1966,1992,2043
2036,2045,2084,1970,1994,1986,2012,2048
2042,2060,2106,1967,2004,2022,2030,2061
2058,2080,2102,1975,2028,2044,2043,2071
2072,2091,2113,1995,2045,2067,2064,2076
2080,2088,2094,1999,2054,2088,2058,2061
2075,2082,2087,2003,2047,2102,2050,2052
2067,2074,2084,2016,2050,2094,2045,2047
2056,2068,2084,2026,2054,2088,2042,2036
2063,2072,2085,2026,2056,2082,2051,2032
2055,2064,2073,2026,2048,2072,2056,2019
2046,2055,2069,2034,2022,2067,2038,2013
2048,2060,2066,2033,2008,2066,2034,2012
2059,2068,2059,2048,2016,2058,2049,2011
2062,2067,2051,2054,2027,2066,2042,2017
2064,2061,2046,2060,2006,2072,2036,2024
2062,2060,2045,2069,1987,2068,2033,2009
2060,2052,2070,2088,1979,2057,2030,2013
2059,2052,2073,2104,1971,2043,2030,2019
2052,2054,2080,2109,1985,2003,2039,2019
2057,2051,2091,2131,2031,2015,2038,2022
2048,2039,2097,2145,2062,2069,2051,2028
2050,2038,2099,2161,2100,2112,2049,2021
2048,2038,2105,2182,2108,2121,2050,2018
2055,2045,2099,2168,2090,2081,2042,2029
2057,2048,2091,2152,2074,2038,2038,2032
2056,2042,2075,2129,2058,2027,2028,2027
2044,2024,2049,2104,2052,2024,2035,2027
2041,2024,2036,2092,2051,2040,2027,2029
2051,2031,2041,2087,2055,2039,2039,2036
2052,2039,2032,2070,2056,2044,2017,2032
2042,2028,2005,2031,2013,2023,2019,2022
2047,2014,1972,1986,1982,2021,2026,2024
2045,2016,1968,1974,1978,2018,2004,2026
2042,2036,1966,1964,1980,2027,2008,2024
2052,2050,1981,1965,2001,2050,2045,2035
2066,2062,1988,1976,2032,2062,2059,2032
2072,2070,1995,1980,2048,2068,2059,2036
2068,2064,2002,2007,2072,2080,2064,2042
2066,2075,2037,2036,2062,2087,2065,2041
2066,2079,2065,2052,2022,2080,2055,2038
2068,2071,2068,2062,2018,2068,2061,2033
2059,2059,2069,2058,2006,2061,2042,2030
2056,2051,2072,2062,2012,2026,2033,2040
2064,2070,2111,2081,2009,2014,2009,2038
2083,2106,2153,2090,2011,2011,2036,2041
2088,2109,2156,2077,2008,2008,2015,2033
2076,2102,2160,2069,2006,2032,2012,2026
2074,2098,2160,2079,2033,2061,2027,2023
2071,2097,2147,2070,2033,2057,2009,2025
2062,2086,2125,2052,2044,2056,2040,2032
2074,2086,2111,2043,2024,2050,2043,2039
2068,2080,2099,2027,2023,2046,2046,2038
2069,2068,2096,2020,2021,2048,2042,2036
2071,2075,2083,2016,2022,2053,2045,2036
2078,2077,2072,2022,2024,2050,2058,2041
2076,2071,2065,2027,2038,2051,2050,2045
2079,2071,2070,2042,2041,2058,2043,2045
2080,2073,2078,2054,2046,2046,2051,2034
2072,2063,2076,2067,2048,2039,2036,2036
2068,2062,2078,2080,2061,2056,2051,2041
2067,2069,2073,2094,2096,2060,2049,2033
2070,2070,2053,2099,2096,2058,2049,2037
2080,2071,2031,2102,2085,2057,2061,2036
2075,2067,2046,2114,2066,2071,2040,2031
2073,2065,2068,2125,2049,2093,2042,2023
2074,2061,2065,2134,2037,2090,2045,2015
2070,2062,2062,2136,2041,2091,2048,2010
2063,2063,2056,2132,2041,2095,2062,2016
2065,2067,2059,2116,2043,2075,2054,2017
2068,2061,2062,2121,2052,2065,2040,2021
2065,2062,2036,2109,2048,2061,2046,2023
2079,2065,2033,2102,2057,2050,2051,2020
2079,2068,2018,2104,2097,2039,2040,2022
2078,2067,2030,2119,2133,2046,2044,2021
2068,2064,2034,2110,2101,2069,2046,2016
2068,2067,2034,2103,2089,2090,2043,2025
2070,2069,2041,2087,2066,2093,2054,2017
2074,2062,2045,2043,2048,2076,2037,2010
2061,2058,2046,2000,2001,2038,2015,2016
2060,2052,2038,1959,1897,1992,2016,2015
2056,2038,2032,1943,1835,1982,2009,2018
2056,2044,2042,1943,1873,1999,2018,2030
2059,2061,2071,1987,1981,2030,2025,2028
2078,2068,2086,2007,2019,2028,2022,2033
2066,2065,2093,2027,1969,2020,2030,2033
2071,2066,2090,2026,1974,2013,2017,2030
2067,2055,2077,2025,1966,2009,2020,2028
2060,2049,2068,2021,1959,2009,2006,2032
2070,2051,2063,2018,1964,2033,2029,2039
2073,2056,2057,2022,1979,2040,2032,2035
2072,2046,2047,2015,1997,2041,2048,2037
2063,2037,2049,2012,2004,2033,2022,2033
2067,2047,2057,2031,2033,2043,2025,2029
2065,2054,2055,2052,2080,2061,2045,2026
2067,2056,2054,2057,2080,2065,2048,2032
2078,2064,2054,2052,2055,2065,2053,2033
2084,2062,2053,2052,2046,2060,2051,2031
2074,2061,2065,2053,2036,2061,2066,2040
2073,2067,2064,2051,2027,2047,2058,2036
2068,2066,2060,2049,2032,2046,2053,2036
2065,2065,2054,2055,2035,2045,2051,2034
2070,2062,2046,2059,2039,2049,2056,2027
2067,2050,2028,2054,2035,2050,2053,2023
2067,2056,2031,2076,2054,2050,2052,2028
2082,2069,2041,2096,2077,2053,2045,2024
2081,2066,2033,2092,2086,2053,2035,2023
2064,2046,2005,2086,2087,2060,2026,2018
2068,2042,1997,2078,2088,2068,2022,2008
2080,2057,2000,2082,2089,2076,2031,2013
2084,2047,1984,2063,2059,2072,2056,2012
2075,2041,1966,2030,2026,2045,2031,2005
2065,2036,1970,2026,1990,2034,2014,1998
2062,2037,1978,2020,1974,2023,2029,2001
2058,2035,1978,1998,1960,2022,2032,2007
2063,2033,1983,1997,1947,2024,2030,2013
2068,2049,1999,2004,1943,2027,2028,2020
2075,2055,2021,2022,1982,2032,2028,2035
2081,2056,2025,2035,2025,2052,2025,2038
2082,2055,2021,2060,2152,2095,2029,2039
2079,2054,2032,2098,2219,2110,2027,2035
2075,2058,2057,2106,2197,2101,2039,2036
2068,2065,2059,2111,2140,2082,2053,2026
2059,2042,2038,2083,2088,2057,2038,2030
2054,2039,2027,2046,2047,2036,2043,2024
2064,2052,2035,1991,1933,1999,2030,2025
2069,2054,2051,1972,1882,1986,2031,2026
2066,2052,2064,1984,1925,1996,2031,2034
2067,2059,2077,1997,1947,2001,2047,2027
2066,2069,2081,2003,1968,2013,2037,2033
2071,2070,2075,2001,1993,2035,2065,2033
2083,2078,2073,2030,2060,2055,2050,2040
2088,2081,2085,2062,2113,2067,2053,2034
2095,2095,2097,2080,2102,2074,2061,2034
2093,2090,2087,2077,2075,2073,2063,2035
2088,2080,2077,2072,2069,2072,2073,2019
2078,2068,2063,2072,2062,2064,2053,2010
2081,2068,2069,2077,2060,2050,2047,2011
2080,2068,2078,2076,1993,2035,2038,2010
2071,2057,2072,2045,1904,2023,2019,2004
2070,2050,2061,2038,1957,2026,2034,2010
2076,2057,2053,2049,2045,2046,2034,2020
2078,2051,2033,2062,2075,2062,2046,2021
2076,2056,2032,2067,2068,2071,2046,2014
2088,2053,2027,2074,2041,2071,2030,2009
2077,2046,2011,2065,2059,2066,2036,2015
2073,2043,1993,2059,2078,2047,2030,2023
2073,2037,1986,2050,2119,2051,2016,2012
2073,2040,2001,2076,2169,2048,2069,2015
2068,2039,1997,2078,2140,2016,2047,2017
2069,2039,1994,2070,2128,2012,2044,2007
2068,2037,1999,2079,2121,2028,2053,2008
2079,2056,2021,2112,2140,2048,2050,2010
2078,2045,2014,2100,2055,2054,2050,2018
2077,2047,2000,2078,1940,2049,2040,2020
2066,2032,1990,2067,1892,2012,2046,2025
2076,2042,2001,2053,1885,1992,2035,2027
2084,2050,2017,2034,1892,1995,2051,2026
2087,2061,2030,2032,1941,2014,2043,2031
2095,2060,2041,2040,1991,2036,2055,2026
2091,2062,2050,2033,2028,2060,2056,2014
2075,2065,2050,2034,2048,2096,2047,2008
2072,2060,2045,2028,2036,2119,2064,2010
2073,2067,2048,2027,2014,2104,2048,2005
2078,2078,2056,2039,2004,2086,2036,2004
2080,2073,2051,2039,1992,2037,2031,2013
2091,2078,2051,2056,2016,1942,2043,2029
2098,2072,2058,2063,2053,1937,2047,2020
2087,2066,2051,2020,2004,1981,2049,2007
2084,2064,2053,1989,1971,2056,2059,2012
2089,2071,2067,1996,2022,2095,2066,2019
2084,2064,2067,2005,2045,2095,2056,2013
2083,2064,2065,2015,2053,2078,2049,2015
2086,2073,2061,2026,2045,2041,2058,2026
2095,2076,2062,2040,2030,2006,2051,2034
2100,2077,2078,2046,2019,2005,2059,2028
2098,2084,2077,2043,2008,2001,2045,2034
2100,2091,2074,2054,2012,2007,2030,2027
2102,2085,2059,2072,2034,2018,2038,2025
2094,2076,2047,2068,2040,2033,2054,2012
2087,2066,2043,2076,2098,2064,2068,2016
2085,2064,2038,2080,2097,2068,2065,2023
2086,2059,2045,2072,2082,2067,2079,2029
2089,2058,2041,2065,2074,2071,2087,2035
2092,2062,2046,2059,2057,2061,2056,2032
2094,2065,2040,2045,2045,2050,2052,2029
2100,2061,2039,2030,2023,2046,2046,2033
2092,2055,2034,2018,2012,2029,2028,2028
2082,2047,2037,2018,2010,2028,2037,2032
2087,2055,2052,2026,2016,2033,2064,2036
2095,2075,2057,2026,2014,2049,2071,2032
2090,2067,2046,2014,2016,2053,2060,2034
2090,2056,2041,2022,2035,2057,2054,2022
2087,2058,2040,2025,2053,2057,2050,2026
2084,2057,2036,2033,2056,2058,2066,2032
2090,2059,2041,2038,2056,2060,2046,2027
2087,2064,2045,2046,2073,2071,2043,2027
2089,2064,2047,2054,2068,2065,2056,2021
2094,2072,2044,2052,2048,2054,2046,2016
2092,2070,2048,2054,2041,2032,2058,2015
2090,2062,2047,2049,2035,2032,2047,2013
2081,2052,2033,2045,2034,2046,2053,2009
2089,2045,2018,2036,2030,2052,2078,2010
2084,2050,2006,2036,2030,2041,2076,1996
2082,2031,1994,2023,2014,2014,2044,1994
2070,2028,1993,2035,2024,2018,2034,1991
2070,2033,2008,2051,2052,2015,2043,1997
2076,2039,2020,2064,2049,2020,2044,1999
2078,2039,2029,2072,2042,2043,2041,2004
2090,2045,2044,2073,2040,2060,2028,2009
2084,2048,2042,2080,2030,2058,2040,2008
2089,2058,2020,2078,2012,2046,2050,2009
2094,2055,2016,2077,2000,2027,2038,2022
2100,2063,2019,2076,1969,2006,2046,2021
2095,2061,2013,2078,1958,2014,2036,2017
2086,2054,2009,2093,1956,2018,2034,2015
2075,2052,2044,2113,1936,1997,2040,2016
2086,2050,2072,2128,1959,1972,2036,2021
2088,2049,2058,2113,1975,1956,2027,2034
2089,2051,2038,2096,2018,1982,2047,2033
2086,2043,2034,2083,2056,2021,2048,2026
2072,2033,2024,2062,2048,2021,2019,2015
2066,2041,2021,2056,2058,2045,2052,2024
2084,2054,2023,2069,2088,2081,2066,2024
2080,2054,2009,2061,2093,2085,2053,2028
2087,2053,2003,2059,2090,2080,2073,2030
2092,2067,2001,2045,2072,2041,2034,2027
2091,2062,2002,2026,2051,1985,2015,2026
2080,2063,2025,2026,2035,1989,2036,2025
2083,2067,2040,2004,2032,2004,2025,2035
2082,2067,2041,1986,2040,2025,2058,2035
2090,2063,2033,1958,2037,2038,2048,2039
2100,2083,2056,1955,2058,2051,2049,2041
2108,2099,2078,1969,2060,2057,2064,2037
2107,2094,2094,1983,2072,2047,2083,2034
2102,2089,2108,2010,2082,2034,2068,2030
2100,2089,2122,2027,2086,2037,2061,2025
2091,2086,2117,2036,2061,2024,2054,2021
2088,2076,2105,2038,2029,2023,2045,2023
2091,2072,2100,2035,2021,2035,2065,2032
2098,2082,2096,2035,2030,2051,2060,2034
2106,2082,2086,2035,2038,2067,2053,2031
2100,2080,2077,2026,2042,2074,2071,2034
2094,2076,2076,2022,2045,2076,2062,2039
2096,2077,2070,2029,2065,2079,2061,2037
2097,2080,2073,2045,2106,2104,2083,2040
2099,2075,2066,2047,2151,2108,2081,2048
2098,2066,2059,2033,2162,2106,2050,2047
2090,2058,2040,2007,2028,2047,2046,2035
2083,2054,2050,2018,1929,2015,2056,2033
2089,2071,2074,2039,1930,2034,2072,2040
2099,2081,2084,2060,1938,2043,2085,2038
2101,2082,2084,2060,1915,2016,2066,2032
2095,2075,2068,2037,1925,1973,2040,2028
2082,2051,2045,2027,1970,1931,2019,2018
2076,2047,2038,2038,2075,1958,2043,2022
2082,2050,2039,2057,2141,2021,2069,2024
2078,2050,2034,2047,2068,2067,2067,2026
2074,2052,2031,2029,1954,2042,2075,2028
2073,2049,2026,2022,1946,2016,2079,2031
2076,2051,2033,2021,2022,2018,2079,2032
2080,2046,2023,2030,2066,2034,2073,2025
2072,2040,2017,2025,2066,2040,2052,2012
2069,2035,2010,2012,2058,2035,2042,2012
2066,2038,2017,2021,2063,2035,2037,2021
2069,2040,2016,2023,2071,2042,2051,2017
2076,2040,2017,2045,2119,2053,2060,2024
2076,2049,2023,2059,2134,2059,2064,2023
2080,2047,2032,2051,2072,2057,2028,2019
2077,2042,2042,2030,1966,2044,2035,2010
2072,2042,2049,2021,1969,2033,2046,2003
2067,2028,2051,2024,2022,2027,2052,2007
2068,2028,2046,2035,2087,2042,2047,2014
2081,2044,2048,2050,2113,2050,2046,2019
2090,2046,2049,2054,2095,2047,2032,2020
2092,2053,2042,2050,2065,2035,2035,2026
2084,2058,2040,2036,2009,2006,2037,2033
2083,2059,2034,2036,1976,1992,2026,2034
2088,2062,2036,2050,1976,2000,2026,2045
2086,2066,2038,2051,1988,2015,2035,2038
2090,2065,2033,2042,2003,2020,2023,2043
2087,2064,2028,2033,2012,2027,2050,2046
2086,2066,2033,2036,2024,2025,2060,2046
2099,2076,2053,2038,2022,2033,2062,2050
2101,2087,2068,2050,2028,2033,2066,2052
2090,2088,2064,2044,2029,2038,2058,2056
2092,2080,2054,2027,2012,2021,2062,2050
2088,2071,2046,2017,1998,2012,2032,2047
2084,2060,2049,2024,2024,2012,2041,2052
2093,2074,2061,2043,2047,2024,2046,2054
2092,2078,2057,2061,2053,2030,2033,2046
2094,2070,2057,2070,2066,2041,2063,2054
2098,2075,2066,2088,2083,2046,2071,2053
2097,2072,2076,2094,2091,2052,2069,2053
2098,2071,2076,2094,2117,2049,2071,2057
2099,2072,2080,2076,2129,2045,2062,2044
2098,2073,2085,2064,2121,2048,2063,2048
2094,2074,2076,2056,2102,2029,2049,2044
2089,2068,2061,2034,2060,2010,2052,2045
2087,2063,2047,2014,2021,2007,2021,2039
2088,2053,2045,2004,1996,2017,2035,2034
2082,2052,2054,2021,1997,2032,2053,2040
2086,2063,2068,2026,1933,2026,2060,2042
2083,2065,2061,2014,1884,2009,2048,2037
2078,2060,2060,2006,1908,2006,2025,2038
2082,2064,2065,2012,1936,2003,2039,2031
2083,2078,2070,2012,1953,2011,2043,2031
2080,2081,2071,2029,2017,2037,2049,2043
2098,2082,2072,2048,2069,2045,2032,2053
2099,2082,2070,2059,2112,2047,2059,2049
2098,2076,2060,2062,2154,2065,2069,2050
2094,2076,2056,2071,2136,2064,2070,2056
2098,2081,2066,2079,2109,2060,2043,2052
2095,2079,2064,2069,2085,2055,2058,2056
2097,2069,2057,2065,2120,2050,2045,2057
2092,2071,2058,2062,2125,2068,2036,2057
2088,2069,2058,2064,2134,2085,2064,2055
2089,2064,2051,2064,2148,2083,2046,2048
2078,2059,2045,2053,2098,2078,2043,2049
2070,2053,2038,2028,2017,2064,2047,2043
2073,2047,2032,2028,2017,2027,2031,2041
2068,2045,2029,2034,2030,2009,2026,2047
2071,2050,2039,2033,1997,2020,2024,2051
2077,2057,2036,2022,1951,2024,2025,2053
2080,2050,2039,2031,1982,2024,2034,2057
2081,2061,2039,2039,2012,2032,2035,2046
2075,2064,2041,2037,2034,2032,2040,2033
2065,2061,2036,2047,2045,2045,2060,2032
2067,2058,2028,2044,2046,2049,2077,2042
2072,2054,2024,2048,2053,2053,2049,2048
2077,2050,2019,2049,2063,2066,2071,2045
2084,2051,2013,2055,2063,2064,2070,2052
2085,2052,2010,2046,2052,2056,2072,2061
2079,2045,2002,2037,2043,2043,2050,2045
2077,2047,2005,2035,2035,2034,2035,2041
2077,2056,2015,2044,2043,2032,2069,2037
2080,2054,2024,2050,2045,2030,2056,2023
2072,2048,2021,2041,2030,2023,2053,2023
2067,2038,2014,2041,2022,2024,2050,2027
2072,2047,2023,2046,2023,2027,2060,2033
2071,2047,2031,2057,2021,2031,2054,2032
2069,2047,2040,2063,2026,2028,2044,2029
2075,2064,2068,2071,2030,2026,2035,2030
2080,2082,2084,2080,2037,2017,2029,2031
2073,2077,2069,2069,2037,2006,2026,2026
2077,2075,2056,2064,2026,2010,2038,2033
2080,2073,2057,2060,2000,2023,2027,2042
2076,2074,2054,2062,2028,2036,2038,2044
2088,2072,2050,2056,2033,2062,2048,2049
2080,2078,2049,2043,2008,2060,2046,2040
2083,2077,2048,2036,1984,2061,2053,2037
2070,2071,2051,2025,1974,2064,2039,2041
2077,2072,2056,2020,1983,2061,2058,2049
2073,2066,2063,2012,1994,2027,2051,2046
2076,2068,2068,2009,2004,2006,2031,2066
2083,2080,2077,2020,2041,2026,2054,2072
2089,2080,2077,2028,2044,2020,2043,2071
2094,2083,2080,2036,2005,1999,2027,2069
2087,2078,2073,2031,1966,2006,2050,2056
2076,2067,2058,2030,1979,2025,2056,2042
2075,2064,2063,2039,1993,2063,2057,2037
2074,2060,2061,2042,1995,2072,2053,2042
2075,2061,2057,2057,2016,2047,2075,2053
2084,2063,2066,2082,2080,2008,2075,2051
2088,2065,2066,2079,2103,2026,2065,2045
2077,2066,2066,2072,2076,2045,2059,2034
2068,2062,2064,2062,2043,2052,2053,2031
2070,2061,2054,2060,2046,2040,2054,2025
2065,2059,2053,2058,2040,2006,2046,2041
2071,2053,2052,2058,2060,1991,2044,2036
2066,2047,2046,2065,2090,2008,2053,2033
2067,2057,2055,2075,2084,2027,2047,2040
2069,2065,2062,2070,2077,2032,2035,2044
2077,2065,2062,2067,2076,2038,2041,2042
2070,2064,2065,2065,2080,2034,2037,2041
2068,2061,2067,2063,2062,2021,2035,2041
2072,2059,2056,2056,2040,2031,2027,2050
2072,2060,2053,2059,2025,2050,2035,2045
2069,2056,2047,2063,2014,2054,2070,2053
2077,2052,2043,2067,1997,2049,2064,2050
2068,2056,2044,2076,1996,2052,2066,2045
2075,2050,2046,2085,1982,2051,2053,2042
2066,2049,2041,2077,1984,2039,2049,2035
2063,2047,2043,2076,1987,2023,2042,2044
2064,2044,2037,2087,2031,2032,2032,2048
2062,2044,2027,2083,2095,2038,2042,2045
2058,2036,2003,2072,2136,2053,2058,2041
2056,2036,1991,2084,2179,2073,2043,2046
2073,2047,1994,2089,2185,2077,2058,2049
2067,2042,1976,2074,2182,2081,2046,2058
2068,2042,1972,2054,2159,2072,2067,2050
2069,2042,1983,2051,2146,2054,2058,2048
2062,2037,1988,2031,2096,2019,2050,2047
2062,2035,1983,2004,2023,2010,2049,2046
2061,2035,1991,1997,1987,2013,2046,2037
2064,2036,2002,2011,2004,2021,2067,2035
2059,2051,2032,2043,2024,2037,2064,2037
2070,2069,2077,2063,2010,2051,2057,2031
2072,2078,2097,2076,2008,2040,2074,2022
2071,2079,2098,2070,2027,2029,2060,2024
2064,2069,2077,2074,2036,2029,2058,2028
2061,2053,2068,2071,1994,2017,2043,2028
2053,2038,2047,2033,1907,1992,2027,2029
2054,2040,2044,2014,1916,1988,2030,2027
2061,2055,2057,2017,1970,1999,2038,2026
2065,2063,2070,2026,2009,2022,2043,2032
2062,2062,2073,2045,2086,2063,2035,2031
2062,2070,2066,2057,2126,2099,2059,2047
2066,2078,2057,2065,2130,2116,2081,2053
2075,2081,2051,2050,2110,2098,2073,2055
2076,2070,2041,2040,2111,2090,2073,2051
2073,2070,2040,2047,2145,2114,2055,2048
2068,2061,2042,2067,2205,2134,2060,2044
2070,2061,2035,2050,2194,2101,2061,2040
2060,2044,2011,2026,2115,2036,2055,2030
2046,2027,1984,1998,2027,1976,2048,2026
2044,2020,1990,1984,1962,1954,2020,2030
2056,2040,2027,1997,1902,1959,2022,2027
2054,2052,2044,1981,1874,1963,2025,2036
2050,2051,2040,1994,1964,2001,2048,2045
2060,2060,2046,2016,2039,2034,2068,2048
2069,2069,2044,2030,2057,2033,2070,2048
2064,2068,2042,2039,2045,2035,2059,2045
2061,2062,2026,2037,2054,2025,2062,2039
2056,2046,2016,2035,2057,2017,2048,2033
2052,2045,2026,2038,2058,2017,2038,2032
2051,2044,2041,2039,2050,2018,2045,2039
2052,2038,2047,2034,2039,2011,2045,2037
2056,2044,2051,2032,2009,2000,2050,2049
2056,2039,2043,2022,1986,1988,2031,2046
2059,2041,2044,2029,1999,1997,2055,2047
2056,2045,2038,2028,2012,2016,2046,2043
2050,2043,2040,2022,2022,2045,2033,2040
2051,2045,2043,2034,2048,2061,2049,2043
2052,2052,2051,2047,2069,2055,2064,2044
2055,2051,2064,2062,2068,2059,2068,2048
2058,2071,2082,2071,2073,2038,2062,2044
2064,2076,2090,2076,2059,1998,2061,2040
2062,2066,2081,2074,2065,2003,2069,2041
2058,2062,2068,2068,2060,2025,2071,2035
2055,2064,2064,2066,2061,2043,2055,2035
2053,2057,2059,2060,2052,2056,2064,2030
2050,2047,2048,2064,2037,2042,2066,2031
2050,2047,2044,2072,2012,2022,2058,2038
2053,2041,2033,2072,1979,2007,2053,2035
2051,2032,2029,2071,1981,2017,2067,2030
2046,2027,2020,2065,1999,2017,2051,2034
2042,2027,2011,2060,2028,2020,2044,2034
2038,2027,2017,2065,2052,2022,2049,2041
2039,2033,2019,2058,2046,2022,2042,2045
2043,2030,2015,2037,2030,2010,2045,2033
2037,2026,2016,2020,2005,1995,2034,2045
2047,2040,2020,2006,2003,2001,2031,2048
2045,2046,2019,1991,1976,1995,2039,2045
2043,2042,2024,1986,1952,1994,2020,2046
2040,2054,2033,2004,2014,2005,2064,2053
2059,2059,2040,2013,2034,2012,2064,2059
2056,2063,2053,2029,2050,2028,2072,2061
2066,2065,2072,2043,2013,2032,2083,2060
2068,2077,2079,2027,1989,2010,2052,2049
2063,2070,2075,2018,2014,2018,2056,2047
2062,2082,2082,2044,2073,2043,2056,2043
2066,2090,2096,2060,2139,2061,2062,2046
2068,2077,2086,2063,2181,2100,2068,2050
2066,2068,2083,2062,2189,2127,2074,2051
2063,2067,2074,2059,2170,2116,2066,2041
2058,2050,2053,2050,2165,2077,2057,2034
2051,2047,2042,2046,2167,2059,2046,2024
2047,2048,2041,2046,2151,2068,2049,2026
2046,2044,2031,2043,2113,2072,2068,2025
2047,2043,2029,2013,1954,2059,2058,2026
2048,2038,2025,1998,1808,2058,2056,2034
2046,2047,2028,2016,1869,2064,2066,2038
2054,2047,2026,2027,1953,2060,2055,2044
2049,2049,2030,2036,2006,2060,2061,2052
2062,2056,2035,2040,2024,2056,2073,2060
2061,2057,2042,2037,2013,2067,2054,2058
2064,2054,2040,2034,1992,2065,2057,2057
2063,2060,2044,2035,1977,2049,2045,2048
2058,2059,2045,2026,1955,2021,2021,2048
2050,2062,2041,2014,1926,1975,2020,2037
2051,2061,2041,2010,1937,1947,2039,2047
2052,2050,2044,2031,2028,1967,2054,2054
2051,2051,2057,2061,2108,2018,2057,2058
2057,2069,2068,2082,2123,2069,2060,2060
2062,2076,2073,2080,2135,2101,2068,2062
2052,2068,2068,2074,2144,2115,2073,2060
2053,2060,2053,2062,2106,2111,2062,2055
2049,2054,2046,2052,2075,2096,2056,2058
2055,2050,2038,2040,2052,2086,2049,2053
2052,2048,2043,2043,2067,2064,2057,2054
2056,2055,2046,2042,2067,2018,2070,2062
2057,2053,2048,2053,2070,2018,2054,2058
2058,2052,2047,2071,2094,2065,2073,2050
2053,2057,2058,2085,2129,2113,2065,2039
2046,2055,2053,2082,2133,2098,2061,2035
2040,2055,2049,2084,2125,2091,2042,2029
2042,2056,2049,2076,2099,2059,2022,2019
2040,2051,2036,2068,2085,1994,2015,2032
2039,2049,2038,2070,2077,1983,2014,2036
2046,2053,2033,2061,2025,2003,2045,2037
2049,2051,2024,2038,1959,2012,2023,2030
2043,2047,2012,2033,1941,2006,2046,2029
2049,2049,2020,2038,1983,2013,2048,2034
2048,2050,2018,2046,2017,2025,2056,2040
2050,2051,2020,2051,2034,2035,2050,2043
2056,2057,2019,2053,2034,2034,2046,2036
2051,2045,2019,2038,2030,2021,2041,2037
2046,2046,2013,2041,2047,2035,2046,2040
2048,2044,2017,2045,2079,2046,2026,2040
2054,2039,2009,2045,2074,2034,2037,2044
2052,2041,2014,2042,2050,2034,2029,2044
2051,2042,2020,2032,2031,2028,2045,2048
2052,2048,2018,2024,2009,2029,2061,2047
2046,2039,2018,2007,1990,2027,2056,2042
2037,2039,2033,2009,1985,2026,2058,2051
2051,2057,2045,2022,2001,2039,2069,2040
2053,2059,2048,2024,2002,2048,2067,2040
2042,2056,2053,2025,2000,2062,2085,2044
2042,2062,2051,2032,2013,2064,2085,2047
2052,2062,2050,2040,2040,2060,2070,2044
2045,2056,2044,2051,2057,2023,2067,2052
2049,2054,2035,2051,2081,2025,2059,2043
2045,2056,2036,2057,2091,2043,2062,2046
2058,2063,2056,2072,2098,2071,2077,2047
2062,2051,2056,2065,2092,2087,2052,2036
2055,2045,2063,2054,2084,2057,2055,2043
2061,2053,2072,2050,2038,2029,2054,2044
2063,2069,2082,2031,1929,2015,2069,2048
2060,2068,2078,2009,1902,2002,2060,2042
2046,2054,2062,2004,2006,2010,2048,2035
2046,2049,2056,2012,2055,2025,2064,2034
2042,2060,2060,2038,2070,2048,2058,2039
2046,2063,2060,2050,2069,2054,2074,2049
2043,2057,2062,2048,2071,2057,2076,2045
2045,2055,2052,2047,2062,2050,2061,2036
2043,2052,2046,2045,2061,2051,2066,2042
2040,2048,2045,2035,2065,2049,2057,2043
2038,2042,2049,2041,2064,2046,2057,2046
2038,2044,2047,2038,2065,2046,2052,2052
2046,2050,2050,2039,2069,2051,2081,2049
2046,2052,2050,2040,2077,2048,2065,2057
2051,2055,2043,2032,2070,2046,2051,2057
2048,2048,2029,2042,2056,2040,2067,2054
2043,2048,2038,2052,2066,2051,2064,2052
2042,2045,2044,2058,2070,2062,2076,2051
2041,2041,2036,2062,2072,2059,2067,2045
2040,2030,2032,2063,2065,2061,2080,2048
2047,2038,2037,2075,2079,2073,2091,2053
2048,2037,2030,2070,2070,2068,2073,2058
2045,2039,2032,2066,2077,2074,2062,2048
2044,2045,2041,2067,2077,2083,2080,2049
2058,2056,2045,2075,2074,2084,2068,2045
2056,2049,2040,2068,2071,2084,2078,2041
2054,2055,2040,2067,2057,2092,2059,2032
2043,2051,2041,2077,2087,2103,2069,2030
2034,2046,2040,2085,2111,2112,2072,2028
2034,2041,2031,2072,2103,2090,2060,2035
2031,2029,2018,2037,2066,2038,2039,2031
2026,2030,2023,2039,2068,1985,2035,2037
2040,2040,2056,2060,2084,1989,2054,2038
2041,2057,2089,2063,2108,2036,2061,2040
2034,2054,2090,2059,2097,2061,2049,2032
2041,2056,2073,2053,1996,2065,2051,2034
2044,2065,2075,2044,1946,2052,2045,2044
2048,2068,2061,2028,1939,2050,2053,2043
2050,2064,2056,2013,1928,2053,2048,2038
2053,2062,2047,1994,1882,2056,2032,2035
2045,2057,2039,1986,1876,2047,2027,2036
2046,2052,2033,1977,1881,2023,2022,2027
2043,2050,2026,1957,1838,1985,2014,2035
2048,2059,2031,1969,1870,1948,2026,2042
2051,2065,2037,1990,1969,1958,2038,2043
2052,2061,2046,1993,2037,1998,2028,2036
2046,2064,2049,2001,2048,2040,2037,2045
2055,2062,2053,2020,2112,2064,2031,2049
2047,2052,2047,2049,2177,2062,2033,2042
2047,2051,2051,2064,2203,2080,2024,2029
2035,2033,2038,2052,2192,2073,2022,2039
2038,2038,2039,2053,2153,2067,2031,2049
2049,2060,2056,2055,2112,2064,2028,2056
2060,2072,2056,2053,2079,2056,2025,2054
2061,2068,2056,2047,2065,2052,2061,2057
2057,2062,2048,2050,2090,2050,2044,2054
2057,2060,2052,2049,2100,2058,2043,2060
2053,2056,2049,2041,2077,2051,2033,2059
2047,2058,2042,2033,2107,2053,2059,2055
2051,2056,2049,2048,2110,2061,2062,2060
2052,2062,2053,2046,2081,2053,2071,2052
2050,2060,2048,2045,2068,2039,2052,2044
2047,2058,2048,2035,2069,2030,2067,2034
2037,2056,2045,2030,2056,2008,2052,2026
2035,2054,2043,2033,2077,2021,2052,2027
2036,2050,2042,2032,2075,2039,2047,2022
2028,2032,2035,2032,2054,2033,2059,2027
2024,2029,2037,2035,2053,2032,2067,2028
2036,2041,2043,2053,2067,2046,2059,2026
2032,2042,2044,2047,2081,2067,2058,2023
2029,2044,2043,2044,2120,2079,2064,2022
2031,2041,2040,2045,2128,2075,2058,2025
2037,2043,2047,2043,2117,2063,2042,2024
2041,2046,2038,2041,2107,2056,2037,2023
2033,2042,2041,2038,2092,2055,2045,2029
2035,2045,2039,2039,2079,2059,2063,2051
2040,2042,2042,2038,2062,2052,2051,2044
2041,2042,2033,2032,2005,2013,2043,2040
2029,2038,2030,2015,1943,1979,2014,2037
2025,2032,2038,2013,1942,1974,2023,2035
2034,2035,2035,2020,1987,1995,2016,2032
2035,2040,2039,2037,2059,2020,2025,2040
2040,2047,2046,2056,2092,2027,2054,2047
2039,2048,2052,2060,2096,2037,2041,2048
2045,2060,2048,2055,2068,2056,2034,2050
2044,2054,2041,2049,2071,2056,2053,2043
2043,2052,2030,2052,2061,2065,2056,2041
2039,2046,2025,2049,2060,2076,2049,2045
2046,2054,2025,2052,2062,2092,2056,2044
2050,2055,2029,2051,2068,2090,2040,2040
2049,2047,2026,2046,2072,2094,2047,2043
2043,2050,2028,2051,2064,2092,2068,2050
2040,2050,2032,2042,2060,2073,2062,2042
2032,2048,2031,2042,2039,2026,2048,2035
2034,2043,2031,2029,2027,2022,2027,2034
2034,2042,2022,2023,2025,2040,2040,2028
2031,2039,2034,2031,2021,2060,2045,2022
2030,2049,2044,2042,2026,2039,2037,2026
2031,2039,2045,2046,2041,2006,2026,2033
2036,2046,2058,2060,2068,2009,2050,2046
2042,2059,2065,2065,2080,2023,2051,2042
2040,2056,2067,2063,2081,2044,2035,2038
2037,2049,2066,2065,2062,2049,2042,2041
2049,2051,2059,2068,2068,2052,2052,2037
2043,2047,2060,2063,2078,2051,2056,2038
2041,2052,2051,2055,2092,2062,2036,2040
2041,2048,2044,2047,2090,2067,2037,2034
2034,2048,2042,2040,2137,2087,2046,2033
2039,2054,2046,2047,2169,2097,2059,2044
2043,2053,2043,2065,2198,2095,2063,2045
2049,2051,2047,2067,2206,2050,2054,2058
2046,2045,2046,2065,2165,2034,2059,2054
2042,2043,2041,2052,2087,2036,2052,2058
2046,2049,2048,2060,2106,2049,2041,2056
2039,2045,2040,2074,2156,2052,2051,2055
2041,2046,2048,2088,2172,2065,2052,2052
2049,2055,2050,2083,2139,2071,2057,2043
2048,2052,2048,2061,2024,2065,2051,2040
2041,2046,2046,2032,1999,2050,2052,2050
2046,2047,2036,2006,2001,2009,2038,2036
2039,2038,2030,2002,1948,1983,2030,2036
2037,2049,2039,2022,1966,2002,2052,2033
2039,2048,2040,2026,1966,2013,2042,2036
2041,2040,2040,2022,1965,2012,2050,2030
2031,2042,2032,2023,1971,2024,2039,2030
2030,2036,2030,2014,1962,2018,2063,2030
2032,2038,2033,2023,1986,1983,2068,2033
2040,2046,2042,2039,2046,1999,2074,2037
2036,2046,2045,2052,2080,2032,2051,2024
2036,2040,2042,2051,2092,2045,2036,2012
2018,2025,2031,2046,2083,2032,2022,2004
2017,2021,2033,2050,2070,2030,2016,2015
2027,2032,2037,2045,2057,2064,2049,2007
2026,2032,2032,2044,2060,2107,2056,2018
2024,2037,2035,2036,2058,2164,2056,2021
2022,2036,2030,2039,2059,2152,2028,2025
2033,2047,2040,2054,2064,2049,2013,2026
2035,2044,2041,2051,2063,1954,2015,2024
2035,2042,2039,2044,2062,1965,2032,2027
2030,2051,2039,2048,2062,2004,2042,2030
2037,2051,2041,2056,2060,2024,2041,2036
2046,2055,2041,2053,2054,2022,2040,2034
2046,2056,2039,2047,2059,2021,2020,2041
2040,2058,2047,2047,2045,2018,2035,2042
2039,2058,2045,2054,2049,2025,2040,2043
2038,2060,2049,2054,2047,2028,2027,2044
2030,2047,2033,2050,2044,2032,2032,2049
2034,2046,2036,2055,2056,2056,2052,2052
2044,2053,2039,2052,2059,2086,2070,2053
2044,2054,2038,2052,2052,2085,2059,2052
2038,2057,2044,2057,2047,2082,2069,2051
2041,2060,2049,2062,2062,2084,2076,2056
2047,2058,2053,2060,2068,2076,2075,2049
2040,2056,2043,2055,2060,2075,2071,2038
2032,2052,2050,2045,2061,2076,2070,2039
2039,2061,2058,2053,2052,2070,2069,2051
2041,2069,2058,2053,2038,2057,2086,2049
2045,2064,2060,2049,2018,2043,2076,2058
2040,2063,2058,2044,2004,1982,2052,2039
2044,2055,2050,2018,1928,1953,2058,2038
2044,2057,2047,2026,1973,1984,2064,2032
2046,2064,2052,2059,2087,2036,2070,2022
2032,2047,2039,2059,2109,2059,2026,2017
2030,2048,2041,2058,2077,2067,2011,2022
2045,2063,2056,2068,2063,2018,1997,2045
2045,2072,2061,2069,2056,1996,1989,2043
2045,2074,2062,2068,2085,2018,2009,2042
2053,2073,2066,2069,2112,2054,2008,2033
2054,2071,2058,2066,2081,2067,2017,2022
2046,2063,2057,2062,2060,2068,2024,2023
2037,2055,2038,2045,2038,2070,2030,2024
2028,2052,2043,2042,2035,2078,2050,2020
2030,2043,2030,2037,2065,2082,2058,2019
2027,2035,2028,2035,2072,2070,2078,2025
2018,2027,2024,2036,2071,2028,2061,2018
2005,2022,2019,2033,2077,1998,2032,2018
2002,2029,2022,2031,2062,1996,2039,2031
2022,2033,2028,2036,2046,2012,2049,2034
2020,2029,2023,2037,2049,2054,2070,2032
2018,2031,2016,2043,2074,2077,2077,2036
2019,2037,2027,2050,2082,2071,2066,2047
2020,2035,2029,2047,2070,2060,2054,2045
2016,2035,2025,2047,2067,2058,2048,2056
2022,2035,2029,2052,2065,2062,2039,2046
2027,2041,2034,2044,2066,2056,2035,2043
2032,2044,2048,2052,2071,2069,2073,2041
2034,2058,2049,2048,2061,2077,2068,2039
2039,2066,2049,2051,2069,2085,2059,2040
2035,2072,2052,2050,2074,2078,2048,2034
2034,2063,2054,2052,2075,2061,2031,2029
2032,2054,2060,2053,2066,2033,2019,2030
2026,2052,2063,2057,2064,2007,2018,2031
2028,2062,2065,2063,2064,2005,2023,2033
2032,2063,2060,2056,2058,2014,2019,2028
2026,2056,2056,2046,2052,2016,2036,2030
2036,2054,2054,2052,2058,2033,2040,2044
2053,2064,2067,2059,2055,2054,2044,2053
2054,2070,2071,2061,2061,2066,2053,2045
2051,2072,2066,2059,2071,2061,2056,2042
2048,2066,2064,2056,2069,2062,2063,2032
2040,2065,2052,2054,2059,2056,2050,2024
2028,2051,2053,2047,2055,2050,2057,2018
2020,2040,2046,2044,2044,2044,2045,2020
2018,2036,2046,2042,2040,2051,2041,2031
2022,2037,2054,2051,2051,2076,2056,2035
2035,2056,2062,2051,2061,2090,2069,2052
2047,2060,2066,2054,2065,2096,2075,2060
2046,2055,2058,2057,2066,2089,2069,2064
2043,2056,2049,2055,2057,2085,2062,2064
2040,2051,2049,2039,2042,2078,2058,2056
2033,2035,2046,2032,2042,2079,2058,2056
2028,2043,2050,2039,2046,2077,2054,2068
2036,2057,2055,2046,2042,2049,2055,2063
2036,2062,2062,2050,2073,2029,2042,2063
2045,2067,2060,2053,2117,2030,2033,2059
2047,2068,2058,2060,2146,2040,2074,2061
2038,2064,2062,2064,2175,2053,2068,2051
2031,2057,2059,2063,2172,2046,2057,2056
2032,2060,2052,2062,2142,2024,2055,2055
2032,2056,2054,2058,2128,1999,2064,2057
2028,2057,2052,2050,2100,1994,2064,2046
2023,2051,2052,2045,2022,1975,2040,2038
2016,2043,2046,2028,1939,1996,2026,2040
2012,2050,2046,2028,1961,2031,2032,2035
2015,2058,2049,2043,1994,2068,2044,2047
2018,2059,2050,2043,2015,2093,2024,2034
2008,2050,2052,2041,2028,2088,2017,2027
2014,2052,2050,2052,2041,2045,2023,2032
2009,2057,2050,2045,2032,1986,2022,2028
2016,2056,2045,2044,2027,1979,2027,2032
2037,2057,2047,2045,2031,2029,2037,2034
2064,2064,2048,2040,2035,2075,2065,2044
2051,2062,2046,2045,2035,2088,2071,2038
2037,2057,2043,2038,2036,2105,2077,2035
2032,2056,2042,2039,2033,2109,2072,2031
2028,2058,2036,2036,2036,2110,2061,2026
2027,2053,2031,2040,2036,2047,2038,2030
2022,2050,2038,2037,2039,1977,2047,2033
2018,2050,2036,2041,2042,1999,2031,2035
2016,2050,2037,2048,2055,2033,2026,2025
2008,2040,2037,2053,2068,2057,2045,2013
2006,2035,2046,2050,2066,2063,2042,2018
1996,2024,2038,2047,2056,2057,2047,2011
1995,2027,2033,2046,2063,2059,2054,2019
2003,2031,2031,2043,2059,2058,2043,2011
2010,2035,2031,2038,2056,2053,2039,2022
2016,2038,2025,2035,2057,2040,2037,2024
2023,2047,2041,2045,2057,2046,2044,2021
2032,2059,2047,2046,2066,2046,2051,2030
2035,2068,2060,2054,2071,2061,2068,2025
2046,2072,2060,2057,2073,2072,2079,2039
2051,2065,2058,2058,2071,2081,2082,2046
2044,2063,2058,2058,2075,2088,2096,2042
2049,2065,2062,2055,2072,2090,2069,2044
2046,2057,2060,2059,2069,2072,2064,2047
2051,2054,2057,2057,2055,2035,2049,2054
2043,2054,2053,2052,2057,2030,2013,2065
2040,2053,2047,2042,2042,2041,2023,2064
2038,2040,2037,2034,2044,2036,2023,2070
2037,2047,2043,2039,2050,2047,2024,2082
2044,2058,2048,2050,2064,2090,2036,2088
2062,2064,2052,2047,2067,2137,2030,2077
2063,2067,2054,2043,2061,2147,2040,2081
2061,2067,2051,2041,2060,2097,2034,2070
2053,2067,2053,2048,2051,1998,2025,2066
2048,2064,2051,2045,2052,1987,2039,2068
2048,2056,2046,2048,2052,2034,2041,2055
2036,2058,2046,2050,2060,2057,2032,2057
2033,2056,2048,2049,2053,2040,2040,2048
2030,2049,2038,2039,2051,2023,2020,2051
2016,2039,2032,2031,2045,2029,2027,2043
2013,2037,2027,2026,2040,2022,2018,2045
2012,2037,2026,2023,2040,2016,2025,2043
2001,2020,2015,2020,2048,2016,2011,2026
1992,2009,2010,2021,2054,2020,2031,2036
2003,2027,2029,2035,2068,2039,2019,2056
2023,2051,2047,2048,2078,2055,2046,2058
2031,2063,2056,2061,2082,2085,2066,2052
2034,2064,2062,2064,2082,2058,2049,2044
2026,2062,2057,2054,2068,2020,1995,2041
2025,2060,2053,2054,2068,2000,1998,2024
2016,2058,2054,2053,2068,1993,2010,2028
2018,2061,2051,2059,2074,2016,2032,2036
2024,2059,2060,2065,2085,2035,2041,2049
2028,2067,2060,2067,2093,2046,2031,2053
2022,2065,2056,2058,2096,2050,2045,2057
2021,2059,2051,2054,2087,2063,2053,2052
2026,2054,2046,2045,2072,2061,2059,2050
2025,2054,2041,2039,2064,2070,2050,2048
2012,2043,2032,2030,2062,2073,2042,2040
2006,2032,2039,2030,2057,2071,2039,2042
2011,2047,2052,2034,2061,2072,2043,2050
2014,2049,2054,2036,2061,2070,2058,2046
2020,2045,2049,2036,2059,2075,2046,2048
2019,2048,2049,2034,2060,2074,2049,2051
2019,2043,2043,2032,2059,2083,2046,2045
2018,2044,2045,2031,2062,2066,2054,2058
2015,2044,2045,2032,2052,2056,2041,2062
2013,2045,2047,2033,2056,2028,2037,2068
2021,2043,2050,2038,2064,2038,2024,2072
2023,2048,2046,2040,2061,2053,2050,2067
2024,2047,2047,2038,2063,2055,2062,2068
2022,2048,2043,2039,2062,2073,2075,2075
2026,2035,2039,2041,2053,2065,2057,2067
2019,2046,2040,2036,2053,2057,2060,2068
2013,2032,2038,2033,2051,2042,2053,2058
2010,2030,2036,2032,2051,2035,2056,2065
2022,2047,2047,2041,2080,2040,2047,2066
2020,2051,2053,2049,2080,2046,2048,2067
2020,2048,2052,2050,2048,2030,2063,2063
2017,2044,2050,2042,2048,2010,2043,2058
2014,2042,2042,2035,2035,2010,2052,2058
2010,2034,2034,2028,2008,2035,2041,2041
2005,2025,2030,2015,1962,2068,2035,2036
1997,2033,2032,2017,1967,2101,2050,2038
1999,2042,2050,2028,2025,2096,2051,2046
2007,2047,2055,2038,2077,2055,2066,2053
2012,2047,2056,2045,2134,2036,2046,2053
2019,2053,2057,2063,2176,2041,2049,2056
2014,2050,2060,2059,2153,2037,2061,2050
2015,2056,2051,2053,2126,2031,2040,2039
2004,2044,2044,2039,2096,2018,2027,2036
2000,2036,2039,2037,2080,2006,2035,2042
2007,2052,2047,2037,2086,2001,2049,2036
2013,2054,2052,2043,2088,1996,2039,2042
2017,2053,2053,2045,2092,2009,2040,2052
2011,2052,2053,2049,2108,2024,2042,2050
2018,2053,2058,2050,2104,2032,2047,2044
2016,2055,2057,2046,2103,2052,2050,2052
2016,2053,2056,2045,2094,2056,2067,2060
2024,2045,2057,2044,2091,2065,2081,2063
2020,2043,2058,2042,2086,2053,2070,2065
2028,2048,2059,2041,2074,2029,2062,2057
2026,2043,2051,2034,2057,2009,2048,2050
2015,2040,2044,2036,2058,2029,2040,2045
2020,2042,2051,2039,2068,2052,2029,2047
2021,2039,2051,2037,2065,2054,2023,2036
2007,2033,2048,2036,2047,2033,2006,2037
2007,2027,2039,2023,2038,2027,2030,2043
2014,2043,2052,2028,2050,2054,2076,2057
2011,2040,2048,2023,2058,2068,2076,2054
2016,2041,2051,2028,2067,2048,2056,2060
2013,2037,2050,2032,2064,2036,2060,2064
2013,2036,2045,2037,2063,2035,2061,2067
2018,2029,2043,2035,2065,2034,2065,2076
2022,2034,2046,2035,2068,2041,2043,2078
2026,2040,2049,2035,2061,2054,2046,2080
2028,2041,2051,2034,2064,2072,2065,2080
2034,2038,2051,2042,2061,2064,2045,2075
2032,2032,2048,2043,2066,2045,2033,2056
2018,2027,2041,2043,2059,2029,2039,2048
2007,2026,2037,2035,2056,2009,2052,2048
2007,2029,2038,2038,2062,2032,2050,2040
1995,2017,2035,2031,2060,2052,2045,2039
2000,2016,2036,2042,2070,2069,2060,2048
2015,2041,2064,2054,2085,2100,2080,2050
2025,2053,2070,2054,2070,2092,2083,2062
2024,2068,2069,2052,2070,2106,2097,2068
2025,2062,2070,2051,2054,2128,2094,2069
2033,2058,2073,2053,2065,2190,2109,2077
2037,2065,2071,2049,2071,2237,2115,2075
2032,2056,2063,2044,2072,2228,2084,2064
2016,2040,2054,2040,2093,2155,2058,2048
2009,2033,2040,2048,2115,2077,2038,2044
2000,2026,2036,2044,2109,2047,2047,2043
2004,2025,2034,2037,2097,2093,2030,2045
2008,2029,2028,2037,2067,2045,2044,2044
2004,2026,2029,2033,2048,1919,2036,2037
1997,2017,2030,2032,2039,1932,2014,2046
1991,2010,2020,2026,2040,1997,2026,2043
1993,2013,2022,2033,2056,2028,2035,2052
2001,2027,2033,2035,2064,2060,2039,2060
2003,2029,2029,2034,2065,2070,2059,2050
2000,2021,2029,2035,2054,2047,2064,2045
1998,2024,2030,2034,2071,2064,2063,2045
1998,2028,2026,2035,2080,2086,2060,2053
2013,2037,2038,2041,2088,2079,2054,2058
2016,2047,2042,2043,2087,2066,2053,2066
2011,2044,2039,2046,2063,2068,2072,2059
2010,2041,2043,2036,2045,2089,2057,2052
2010,2036,2043,2031,2032,2086,2065,2046
2011,2034,2054,2024,2024,2101,2061,2046
2013,2045,2062,2027,2020,2090,2062,2035
2011,2046,2061,2031,2024,2011,2054,2045
2010,2044,2071,2046,2031,1970,2065,2049
2010,2037,2072,2047,2015,1961,2063,2046
2008,2040,2075,2055,2034,1950,2062,2050
2020,2051,2081,2058,2081,1987,2054,2049
2018,2051,2071,2061,2126,2013,2054,2050
2019,2047,2074,2064,2098,2038,2070,2055
2024,2057,2074,2064,2088,2037,2083,2056
2023,2055,2070,2067,2087,2039,2066,2070
2026,2057,2069,2065,2084,2035,2069,2078
2028,2055,2065,2057,2074,2028,2106,2078
2028,2047,2061,2047,2051,2045,2085,2081
2031,2040,2052,2041,2014,2062,2088,2073
2018,2034,2039,2001,1940,2052,2071,2059
2015,2032,2040,1988,1910,2092,2073,2056
2014,2036,2046,2007,1990,2081,2074,2060
2017,2034,2046,2011,2015,2027,2049,2069
2030,2038,2056,2032,2087,2057,2057,2073
2025,2041,2052,2052,2103,2102,2071,2067
2025,2035,2046,2031,2007,2093,2079,2071
2029,2049,2048,2020,1944,2087,2085,2062
2028,2048,2050,2035,2004,2065,2059,2055
2031,2044,2052,2047,2123,2072,2050,2045
2015,2044,2042,2058,2204,2068,2070,2034
2013,2038,2038,2066,2220,2077,2054,2034
2006,2037,2036,2073,2241,2084,2043,2038
2008,2040,2044,2071,2227,2072,2033,2042
2013,2046,2041,2074,2224,2071,2042,2050
2020,2050,2043,2075,2213,2085,2062,2042
2016,2045,2039,2067,2181,2101,2080,2047
2022,2030,2027,2039,2041,2078,2057,2047
2014,2018,2020,2020,1955,2056,2058,2045
2010,2005,2018,2012,1925,2018,2067,2038
2004,2016,2024,2015,1933,1952,2047,2037
1993,2013,2025,2025,1910,1941,2036,2025
1989,2008,2021,2018,1916,1959,2043,2019
1992,2013,2030,2041,1975,2006,2050,2024
1998,2024,2038,2065,2078,2044,2073,2030
2002,2025,2044,2080,2139,2064,2073,2034
2004,2032,2043,2068,2140,2063,2063,2041
2006,2032,2046,2064,2132,2049,2080,2049
2013,2025,2045,2060,2129,2057,2074,2042
2010,2026,2040,2062,2120,2062,2084,2044
2008,2028,2036,2053,2095,2047,2076,2039
2005,2030,2033,2043,2075,2035,2071,2041
2008,2036,2034,2058,2119,2062,2075,2043
2011,2035,2040,2072,2133,2085,2088,2046
2014,2038,2046,2062,2120,2080,2077,2054
2009,2035,2047,2069,2134,2084,2093,2055
2013,2038,2045,2060,2112,2041,2076,2046
2004,2027,2033,2031,1952,1995,2055,2034
1991,2011,2024,2022,1906,2025,2061,2036
1993,2023,2036,2031,1939,2043,2073,2045
2012,2030,2043,2022,1886,2015,2071,2051
2011,2043,2059,2027,1963,2008,2071,2066
2022,2048,2057,2046,2089,2029,2078,2076
2029,2045,2060,2054,2117,2057,2099,2074
2020,2043,2060,2058,2106,2066,2089,2064
2023,2046,2058,2064,2094,2045,2080,2060
2024,2050,2066,2063,2080,2017,2086,2051
2015,2045,2072,2056,2066,1998,2065,2050
2016,2045,2062,2050,2053,1989,2052,2049
2017,2042,2068,2033,2038,1989,2033,2046
2014,2042,2068,2029,2014,1995,2037,2038
2009,2043,2067,2020,2007,2020,2042,2033
2018,2044,2065,2018,2022,2044,2057,2028
2007,2037,2055,2012,2034,2071,2064,2024
2006,2024,2044,2017,2055,2079,2070,2028
2008,2027,2045,2022,2043,2063,2055,2027
2011,2029,2045,2020,2030,2031,2052,2025
2012,2028,2042,2025,2024,2022,2044,2028
2005,2031,2051,2034,2024,2017,2043,2029
2006,2030,2053,2040,2019,2013,2040,2026
2007,2029,2050,2043,2023,2002,2040,2022
2011,2034,2051,2039,2028,2010,2038,2037
2019,2039,2053,2041,2046,2027,2066,2041
2021,2041,2053,2045,2066,2045,2079,2046
2026,2043,2052,2050,2075,2056,2069,2041
2032,2044,2057,2047,2065,2051,2072,2043
2026,2042,2051,2051,2050,2047,2062,2044
2034,2044,2045,2039,2033,2030,2072,2043
2031,2037,2044,2037,2038,2034,2082,2049
2026,2029,2043,2031,2037,2047,2061,2040
2019,2024,2046,2037,2051,2049,2072,2055
2034,2041,2050,2041,2060,2068,2098,2063
2043,2047,2052,2045,2052,2068,2096,2059
2035,2044,2055,2041,2049,2079,2084,2062
2038,2047,2054,2041,2051,2106,2091,2056
2035,2049,2055,2045,2054,2127,2082,2062
2033,2041,2053,2035,2051,2100,2107,2068
2022,2033,2052,2038,2045,1974,2083,2059
2008,2027,2045,2036,2035,1956,2079,2053
2013,2030,2050,2032,2045,2046,2092,2061
2026,2040,2051,2038,2049,2104,2115,2059
2029,2040,2052,2046,2054,2116,2108,2055
2030,2043,2051,2047,2058,2077,2110,2048
2030,2038,2054,2049,2051,2012,2082,2042
2028,2038,2056,2045,2048,1963,2030,2026
2025,2033,2047,2044,2043,1943,2025,2014
2014,2026,2048,2045,2053,1962,2043,2014
2017,2041,2053,2053,2051,2010,2043,2017
2024,2049,2057,2055,2050,2041,2062,2025
2021,2045,2056,2047,2047,2076,2067,2033
2021,2039,2050,2049,2048,2124,2078,2035
2023,2039,2050,2048,2047,2157,2086,2040
2025,2039,2048,2043,2042,2157,2074,2045
2026,2039,2052,2049,2051,2140,2081,2047
2031,2043,2052,2049,2046,2051,2064,2044
2025,2036,2052,2042,2030,1975,2068,2047
2028,2037,2049,2042,2026,1995,2072,2045
2024,2033,2048,2050,2021,2028,2064,2045
2024,2038,2046,2042,2024,2031,2073,2044
2024,2039,2045,2043,2024,2032,2076,2043
2027,2038,2045,2045,2024,2033,2080,2046
2030,2034,2034,2036,2024,2022,2056,2046
2019,2031,2041,2037,2025,2027,2047,2055
2026,2040,2050,2047,2039,2036,2056,2059
2028,2043,2053,2045,2048,2035,2074,2051
2037,2033,2045,2046,2067,2028,2078,2055
2030,2033,2043,2046,2085,2035,2070,2054
2032,2043,2049,2047,2080,2052,2092,2048
2039,2042,2050,2045,2060,2050,2092,2044
2026,2041,2052,2037,2047,2051,2079,2045
2028,2033,2050,2037,2056,2059,2066,2040
2037,2039,2047,2042,2056,2069,2068,2050
2038,2039,2056,2046,2062,2076,2077,2046
2029,2041,2061,2047,2058,2070,2069,2033
2029,2036,2057,2045,2062,2072,2056,2031
2022,2029,2049,2051,2064,2068,2059,2031
2016,2031,2059,2053,2087,2082,2069,2033
2019,2024,2048,2045,2093,2086,2047,2032
2019,2026,2046,2052,2090,2074,2069,2033
2027,2038,2053,2058,2080,2045,2058,2038
2034,2039,2057,2049,2064,2012,2046,2044
2027,2040,2052,2043,2045,2009,2064,2038
2024,2040,2052,2038,2023,2037,2083,2026
2014,2028,2046,2031,2008,2039,2071,2024
2011,2026,2039,2030,2014,2042,2064,2030
2016,2032,2045,2033,2028,2049,2071,2029
2023,2031,2042,2034,2025,2054,2074,2034
2020,2036,2042,2034,2018,2033,2075,2038
2025,2040,2043,2038,2012,2032,2061,2041
2023,2041,2045,2040,2018,2026,2058,2041
2035,2043,2046,2039,2014,2027,2062,2050
2027,2043,2046,2034,2015,2014,2079,2057
2038,2042,2047,2033,2019,2004,2052,2052
2035,2028,2040,2028,2004,1998,2070,2056
2027,2026,2041,2033,2006,2029,2087,2063
2032,2045,2055,2044,2028,2065,2103,2053
2026,2042,2049,2049,2052,2046,2094,2051
2026,2044,2054,2046,2067,2017,2093,2049
2024,2043,2051,2050,2078,2033,2090,2047
2024,2041,2051,2044,2082,2056,2099,2043
2019,2038,2054,2055,2075,2061,2085,2037
2021,2044,2051,2052,2076,2058,2065,2035
2020,2043,2055,2053,2062,2070,2045,2033
2015,2039,2051,2040,2063,2046,2068,2035
2018,2036,2051,2043,2056,2020,2066,2035
2012,2033,2051,2037,2049,2024,2056,2034
2013,2028,2047,2038,2030,2037,2066,2033
2031,2038,2052,2044,2043,2041,2066,2031
2066,2042,2049,2045,2052,2046,2080,2029
2051,2032,2039,2038,2043,2038,2072,2035
2030,2031,2040,2035,2040,2037,2081,2033
2030,2036,2049,2032,2042,2045,2086,2034
2027,2031,2043,2036,2039,2040,2076,2030
2025,2040,2044,2036,2041,2043,2080,2041
2031,2041,2045,2037,2043,2046,2075,2032
2033,2042,2043,2038,2039,2032,2077,2031
2022,2033,2041,2036,2031,2021,2081,2035
2024,2027,2035,2039,2032,2017,2063,2042
2027,2030,2041,2042,2036,2013,2045,2048
2030,2030,2042,2042,2044,2014,2038,2049
2034,2039,2044,2043,2053,2028,2062,2055
2030,2033,2046,2041,2043,2033,2053,2047
2032,2032,2037,2038,2026,2018,2036,2046
2028,2038,2037,2035,2021,2020,2047,2045
2027,2037,2040,2034,2024,2024,2040,2044
2030,2032,2045,2029,2021,2020,2040,2044
2025,2029,2041,2032,2012,2039,2041,2046
2035,2048,2053,2044,2027,2058,2056,2058
2038,2044,2050,2045,2055,2070,2069,2048
2029,2037,2047,2045,2073,2086,2073,2048
2041,2038,2044,2044,2090,2072,2071,2046
2036,2027,2045,2040,2107,2067,2065,2041
2031,2027,2044,2046,2104,2073,2074,2038
2032,2028,2046,2050,2080,2057,2077,2042
2033,2036,2047,2046,2064,2046,2064,2050
2035,2041,2054,2046,2047,2057,2050,2041
2031,2032,2044,2030,2023,2073,2035,2038
2023,2024,2039,2018,1994,2082,2038,2042
2029,2036,2044,2027,1986,2081,2043,2034
2038,2036,2053,2035,2018,2057,2065,2042
2043,2043,2055,2042,2057,2037,2062,2040
2033,2032,2050,2046,2060,2039,2044,2034
2029,2033,2046,2046,2054,2037,2042,2039
2037,2043,2061,2052,2046,2036,2039,2050
2045,2051,2058,2044,2039,2041,2056,2045
2047,2039,2050,2037,2028,2069,2062,2047
2043,2042,2048,2041,2029,2082,2061,2049
2040,2030,2052,2034,2026,2094,2064,2050
2045,2034,2050,2035,2031,2093,2066,2055
2039,2038,2044,2036,2044,2096,2086,2055
2038,2033,2049,2035,2043,2109,2078,2058
2051,2034,2046,2041,2086,2111,2080,2062
2043,2037,2043,2047,2125,2085,2076,2061
2046,2036,2040,2055,2121,2050,2064,2053
2044,2029,2043,2047,2086,2021,2063,2054
2045,2035,2044,2048,2071,2033,2057,2057
2047,2033,2046,2061,2074,2060,2038,2062
2044,2024,2038,2048,1992,2035,2023,2047
2041,2023,2030,2020,1930,1963,2040,2050
2040,2027,2039,2031,2015,1975,2025,2042
2034,2029,2040,2035,2038,2006,2044,2043
2034,2025,2035,2001,1966,2042,2041,2036
2029,2024,2029,1971,1860,2060,2038,2031
2030,2016,2022,1960,1795,2064,2042,2026
2023,2006,2009,1952,1766,2051,2030,2009
2017,2006,2007,1958,1816,1983,2017,2026
2022,2014,2027,2019,1996,1914,2053,2067
2050,2043,2062,2090,2154,1969,2102,2088
2066,2053,2072,2117,2208,2028,2098,2077
2063,2043,2071,2108,2176,2078,2077,2064
2057,2044,2065,2082,2128,2085,2080,2061
2048,2038,2059,2053,2101,2068,2082,2049
2047,2042,2056,2043,2121,2063,2071,2049
2045,2026,2044,2045,2131,2057,2080,2050
2042,2025,2039,2025,2077,2059,2065,2052
2052,2031,2045,2016,2035,2070,2079,2059
2052,2040,2049,2045,2123,2101,2081,2063
2061,2044,2049,2057,2136,2107,2086,2059
2056,2047,2051,2052,2119,2094,2092,2049
2047,2037,2041,2049,2098,2076,2081,2037
2039,2032,2043,2043,2072,2064,2080,2036
2039,2028,2039,2044,2064,2049,2042,2030
2035,2035,2047,2040,2054,2053,2069,2037
2041,2045,2051,2043,2071,2057,2065,2050
2052,2049,2055,2040,2031,2037,2067,2053
2050,2046,2049,2042,1950,2002,2059,2052
2053,2049,2054,2052,1924,1989,2071,2056
2057,2047,2058,2058,1952,2015,2072,2059
2062,2047,2058,2053,1981,2018,2071,2054
2054,2031,2039,2043,2000,2024,2057,2058
2045,2026,2034,2042,2033,2038,2062,2062
2057,2034,2043,2040,2033,2025,2063,2051
2051,2029,2038,2042,2033,2038,2077,2060
2052,2036,2049,2040,2013,2044,2066,2064
2047,2032,2038,2029,1999,2022,2063,2060
2039,2030,2039,2018,2013,2028,2079,2062
2049,2028,2038,2022,2076,2065,2071,2061
2054,2035,2038,2039,2120,2089,2084,2062
2060,2037,2041,2041,2105,2106,2082,2054
2054,2035,2039,2045,2086,2108,2086,2053
2051,2031,2042,2050,2068,2097,2085,2057
2044,2018,2039,2040,2046,2093,2089,2052
2045,2023,2043,2033,2033,2091,2085,2052
2047,2018,2038,2029,2035,2099,2062,2052
2043,2024,2040,2028,2029,2056,2056,2044
2035,2019,2032,2021,2023,1952,2051,2038
2038,2020,2035,2030,2036,1870,2044,2045
2053,2043,2047,2030,2058,1933,2046,2053
2060,2049,2048,2037,2103,2021,2051,2051
2065,2050,2048,2048,2123,2090,2062,2057
2068,2053,2047,2044,2113,2107,2064,2058
2070,2049,2046,2035,2071,2075,2059,2058
2070,2051,2045,2043,2047,2068,2058,2061
2070,2051,2049,2042,2052,2074,2068,2055
2068,2049,2053,2043,2046,2090,2069,2062
2076,2053,2047,2049,2060,2109,2062,2067
2071,2056,2047,2042,2056,2094,2073,2063
2068,2051,2049,2039,2050,2086,2060,2062
2068,2049,2049,2038,2049,2086,2064,2060
2065,2046,2047,2040,2052,2089,2064,2071
2069,2048,2048,2041,2051,2064,2045,2071
2059,2037,2038,2039,2044,2045,2034,2070
2064,2033,2037,2041,2042,2004,2037,2066
2070,2049,2045,2045,2029,1950,2049,2065
2062,2044,2046,2042,2023,1952,2051,2071
2070,2045,2052,2040,2028,2006,2059,2062
2069,2044,2051,2040,2052,2057,2058,2064
2065,2046,2041,2038,2064,2074,2069,2066
2069,2041,2043,2043,2071,2069,2070,2064
2071,2044,2049,2044,2065,2050,2072,2064
2070,2043,2055,2046,2063,2054,2074,2074
2075,2046,2055,2039,2062,2055,2080,2069
2077,2046,2049,2047,2088,2052,2072,2063
2066,2045,2044,2045,2100,2037,2065,2064
2072,2043,2049,2043,2106,2018,2053,2064
2072,2045,2044,2044,2119,2028,2057,2050
2067,2039,2043,2043,2102,2042,2049,2042
2060,2029,2042,2050,2119,2051,2048,2037
2054,2029,2039,2048,2123,2051,2049,2038
2058,2038,2040,2050,2130,2046,2028,2038
2061,2039,2044,2043,2060,2033,2027,2034
2054,2037,2043,2023,1914,2025,2029,2039
2064,2044,2054,2035,1952,2047,2057,2052
2068,2044,2059,2039,2001,2053,2055,2054
2074,2042,2059,2040,2007,2044,2053,2057
2074,2045,2058,2039,2014,2045,2046,2058
2073,2048,2060,2042,2017,2060,2072,2062
2074,2050,2060,2036,2018,2067,2083,2061
2069,2047,2061,2037,2029,2070,2053,2064
2076,2052,2062,2038,2028,2070,2091,2067
2074,2050,2056,2036,2032,2062,2091,2068
2068,2045,2058,2036,2033,2059,2092,2074
2070,2051,2050,2036,2031,2044,2062,2066
2068,2029,2039,2028,2035,2036,2065,2059
2059,2031,2047,2036,2035,2042,2078,2064
2071,2037,2043,2040,2048,2045,2071,2061
2074,2037,2047,2037,2048,2033,2082,2069
2070,2047,2045,2038,2053,2042,2088,2062
2067,2039,2046,2039,2050,2057,2069,2066
2070,2049,2044,2036,2050,2055,2064,2056
2065,2042,2048,2042,2053,2065,2056,2052
2064,2047,2044,2039,2046,2080,2057,2050
2069,2047,2046,2041,2040,2061,2053,2051
2066,2043,2045,2030,2035,2032,2025,2047
2074,2040,2041,2034,2043,2028,2046,2053
2072,2042,2044,2034,2042,2050,2075,2059
2083,2046,2043,2036,2048,2049,2086,2064
2091,2049,2043,2037,2047,2055,2080,2069
2088,2045,2044,2038,2043,2054,2074,2057
2078,2041,2043,2038,2045,2046,2070,2061
2081,2041,2047,2042,2058,2053,2072,2072
2081,2045,2043,2048,2057,2056,2081,2064
2078,2037,2049,2047,2054,2074,2067,2069
2082,2044,2055,2049,2056,2063,2062,2060
2072,2053,2053,2047,2046,2028,2057,2052
2072,2050,2049,2046,2032,2000,2046,2046
2070,2055,2049,2040,2019,1983,2052,2052
2070,2050,2054,2044,2033,2020,2066,2059
2068,2060,2056,2049,2048,2058,2069,2067
2074,2052,2058,2050,2050,2078,2062,2064
2073,2053,2063,2049,2048,2091,2048,2064
2073,2057,2060,2052,2040,2079,2050,2065
2072,2050,2061,2045,2033,2065,2049,2067
2073,2051,2053,2052,2031,2058,2049,2063
2067,2046,2048,2041,2019,2038,2036,2052
2062,2025,2041,2039,2025,2037,2046,2054
2052,2036,2040,2048,2036,2050,2058,2061
2072,2038,2042,2049,2045,2062,2062,2063
2071,2044,2045,2053,2044,2081,2083,2072
2084,2051,2054,2062,2055,2089,2085,2075
2085,2044,2055,2061,2063,2093,2094,2068
2077,2041,2060,2061,2064,2074,2076,2067
2083,2038,2057,2060,2060,2068,2075,2068
2085,2042,2054,2063,2054,2058,2088,2059
2073,2030,2051,2060,2065,2056,2076,2049
2067,2025,2048,2054,2071,2054,2080,2048
2064,2032,2055,2062,2074,2050,2074,2050
2059,2038,2056,2066,2077,2065,2066,2051
2056,2039,2054,2062,2074,2070,2075,2039
2054,2030,2044,2056,2069,2079,2067,2040
