CH1,CH2,CH3,CH4,CH5,CH6,CH7,CH8
2037,2034,2052,2042,2054,2042,2043,2082
2040,2033,2057,2041,2042,2036,2045,2088
2052,2049,2069,2046,2045,2040,2041,2085
2049,2057,2072,2047,2046,2045,2045,2078
2047,2046,2073,2042,2046,2038,2041,2077
2048,2053,2072,2049,2043,2042,2038,2072
2044,2045,2067,2040,2030,2043,2044,2061
2046,2040,2065,2037,2036,2042,2049,2049
2041,2034,2050,2036,2042,2034,2031,2039
2037,2025,2034,2033,2043,2032,2043,2028
2030,2016,2026,2036,2048,2041,2046,2023
2040,2022,2024,2040,2051,2052,2058,2021
2048,2033,2021,2043,2049,2064,2050,2023
2047,2041,2027,2052,2055,2073,2025,2019
2048,2050,2034,2055,2051,2076,2031,2015
2054,2062,2033,2053,2054,2079,2015,2011
2055,2062,2030,2056,2055,2055,2020,2015
2056,2052,2033,2066,2066,2029,2034,2024
2057,2049,2040,2063,2059,2037,2054,2030
2065,2057,2041,2051,2054,2046,2055,2023
2067,2048,2034,2040,2046,2049,2052,2027
2064,2044,2029,2021,2033,2048,2060,2024
2062,2046,2030,2018,2036,2046,2048,2031
2062,2054,2048,2034,2020,2041,2065,2028
2060,2064,2073,2043,2016,2039,2048,2030
2053,2063,2103,2051,2026,2033,2046,2037
2047,2057,2107,2059,2046,2046,2039,2054
2042,2050,2106,2063,2078,2055,2048,2062
2047,2054,2095,2068,2078,2053,2054,2060
2049,2049,2088,2064,2069,2050,2055,2077
2048,2044,2077,2066,2056,2049,2049,2079
2046,2043,2075,2063,2051,2039,2050,2080
2046,2048,2074,2060,2048,2041,2047,2081
2043,2043,2065,2060,2043,2033,2043,2084
2032,2040,2051,2058,2051,2033,2032,2091
2038,2042,2055,2050,2042,2039,2028,2085
2043,2047,2051,2047,2039,2039,2035,2088
2047,2040,2055,2040,2030,2035,2018,2083
2049,2050,2059,2041,2037,2040,2032,2070
2051,2049,2058,2028,2045,2043,2024,2071
2047,2048,2048,2027,2037,2043,2024,2065
2039,2043,2040,2022,2041,2046,2049,2059
2049,2045,2044,2033,2043,2049,2058,2049
2055,2054,2050,2053,2049,2051,2066,2050
2053,2054,2059,2053,2051,2042,2066,2035
2050,2056,2063,2054,2044,2039,2047,2032
2043,2053,2069,2060,2045,2044,2045,2032
2048,2057,2080,2065,2056,2048,2059,2031
2049,2053,2078,2064,2072,2057,2058,2026
2050,2049,2066,2057,2065,2056,2054,2012
2043,2038,2042,2049,2066,2058,2045,2001
2035,2032,2032,2042,2071,2069,2042,1999
2034,2041,2034,2049,2076,2072,2056,1999
2045,2053,2041,2049,2081,2064,2049,2000
2048,2055,2046,2054,2085,2046,2056,2017
2048,2057,2048,2053,2113,2034,2068,2025
2054,2060,2049,2062,2137,2038,2062,2034
2052,2061,2055,2067,2145,2048,2073,2039
2053,2053,2056,2072,2133,2059,2056,2046
2044,2049,2060,2080,2097,2066,2070,2049
2048,2048,2062,2078,2019,2054,2066,2051
2044,2054,2053,2065,1941,2038,2054,2052
2039,2050,2053,2079,1970,2047,2054,2060
2037,2046,2061,2092,2014,2064,2056,2075
2041,2047,2060,2093,2040,2073,2052,2083
2044,2052,2065,2088,2044,2076,2029,2091
2048,2055,2057,2086,2051,2072,2026,2091
2036,2043,2042,2075,2054,2047,2046,2092
2036,2044,2044,2074,2074,2031,2070,2105
2050,2061,2058,2074,2083,2040,2074,2104
2042,2061,2061,2072,2077,2047,2066,2096
2047,2067,2057,2054,2068,2043,2059,2091
2048,2060,2050,2034,2049,2046,2066,2086
2050,2054,2044,2022,2045,2042,2076,2079
2049,2050,2031,2004,2031,2032,2057,2061
2041,2037,2013,1985,2011,2026,2062,2056
2043,2030,2011,1978,1997,2023,2060,2045
2048,2046,2021,1987,1990,2028,2066,2047
2052,2055,2030,2001,2007,2037,2073,2046
2051,2060,2042,2013,2024,2046,2068,2046
2053,2060,2044,2023,2025,2065,2043,2031
2049,2057,2043,2038,2030,2057,2059,2015
2034,2049,2049,2061,2036,2046,2049,2010
2032,2047,2049,2076,2031,2041,2056,2002
2021,2041,2055,2067,2033,2041,2047,2003
2027,2047,2063,2068,2046,2049,2066,2015
2030,2058,2074,2067,2045,2052,2056,2018
2036,2050,2071,2058,2042,2051,2043,2024
2038,2041,2060,2034,2033,2042,2063,2026
2036,2037,2052,2023,2029,2041,2053,2028
2041,2039,2047,2020,2028,2038,2050,2032
2043,2043,2050,2030,2018,2036,2050,2042
2044,2047,2061,2042,2014,2031,2065,2049
2044,2045,2059,2043,2005,2017,2043,2048
2046,2041,2048,2030,1991,2015,2037,2050
2040,2027,2044,2038,1992,2023,2030,2062
2041,2027,2050,2060,2017,2037,2037,2070
2041,2030,2059,2063,2037,2049,2049,2076
2036,2027,2065,2075,2065,2060,2050,2082
2036,2035,2073,2096,2092,2065,2066,2081
2025,2025,2056,2090,2102,2072,2051,2081
2023,2023,2055,2082,2111,2084,2048,2086
2030,2034,2052,2092,2100,2075,2058,2084
2028,2029,2047,2091,2073,2059,2049,2084
2028,2027,2036,2083,2058,2044,2064,2079
2030,2025,2032,2081,2040,2041,2058,2077
2035,2039,2040,2078,2040,2044,2052,2067
2042,2046,2049,2065,2039,2044,2052,2060
2044,2056,2059,2058,2041,2047,2061,2057
2055,2063,2072,2062,2039,2053,2050,2062
2064,2066,2073,2045,2044,2051,2051,2054
2055,2068,2071,2029,2050,2046,2059,2044
2065,2068,2063,2029,2054,2041,2058,2032
2064,2067,2056,2035,2062,2044,2057,2023
2063,2064,2050,2049,2062,2043,2057,2022
2062,2061,2051,2058,2060,2052,2062,2012
2054,2057,2047,2060,2057,2047,2051,2001
2040,2042,2037,2054,2050,2048,2059,1999
2027,2037,2035,2061,2053,2052,2058,2006
2036,2043,2045,2065,2062,2052,2067,2013
2036,2039,2043,2059,2060,2049,2043,2011
2039,2041,2041,2056,2055,2043,2054,2016
2035,2047,2054,2060,2049,2046,2036,2018
2040,2056,2069,2053,2052,2040,2059,2024
2042,2064,2065,2045,2055,2045,2064,2040
2045,2065,2064,2042,2063,2048,2044,2035
2055,2064,2054,2028,2058,2046,2045,2045
2045,2055,2048,2018,2050,2046,2049,2041
2038,2049,2043,2001,2037,2044,2047,2049
2036,2046,2054,2002,2040,2050,2048,2064
2034,2056,2061,1996,2043,2060,2056,2076
2041,2058,2062,1999,2044,2060,2064,2083
2044,2058,2047,2000,2047,2057,2073,2090
2050,2063,2049,2004,2046,2046,2057,2094
2044,2056,2041,2007,2039,2045,2054,2088
2040,2060,2043,2022,2054,2052,2034,2092
2045,2062,2042,2029,2057,2051,2037,2081
2050,2061,2044,2031,2056,2052,2039,2079
2045,2063,2042,2034,2052,2054,2041,2076
2051,2058,2036,2031,2051,2050,2039,2066
2052,2050,2035,2039,2039,2048,2037,2060
2048,2053,2031,2054,2047,2048,2041,2045
2044,2047,2026,2056,2052,2042,2048,2040
2048,2045,2025,2053,2046,2048,2041,2031
2057,2035,2025,2049,2039,2049,2057,2032
2046,2034,2024,2047,2034,2048,2066,2037
2043,2035,2034,2045,2038,2040,2053,2027
2043,2041,2054,2052,2040,2037,2053,2024
2058,2059,2073,2064,2049,2042,2060,2030
2063,2059,2087,2075,2055,2058,2046,2027
2060,2051,2077,2071,2062,2060,2063,2020
2057,2044,2066,2065,2065,2061,2071,2017
2058,2052,2062,2070,2081,2080,2088,2022
2060,2051,2054,2071,2083,2086,2081,2021
2052,2038,2041,2062,2085,2089,2073,2020
2059,2038,2030,2060,2087,2080,2065,2014
2055,2030,2030,2051,2073,2072,2047,2008
2039,2018,2017,2041,2076,2065,2046,2012
2032,2015,2025,2051,2079,2071,2049,2022
2036,2032,2052,2064,2089,2075,2056,2038
2045,2042,2061,2072,2076,2064,2059,2042
2047,2044,2058,2061,2063,2044,2037,2046
2048,2035,2035,2050,2042,2032,2027,2048
2035,2033,2020,2038,2042,2031,2036,2055
2027,2034,2033,2047,2038,2034,2025,2066
2033,2042,2044,2056,2032,2034,2033,2071
2033,2045,2053,2079,2026,2024,2034,2074
2039,2044,2059,2080,2020,2021,2030,2085
2038,2044,2063,2075,2004,2021,2052,2087
2046,2049,2061,2075,2007,2027,2058,2086
2040,2043,2048,2063,2011,2024,2037,2089
2048,2044,2043,2050,2012,2026,2053,2092
2051,2046,2037,2038,2003,2021,2051,2083
2054,2044,2032,2009,1998,2022,2051,2075
2047,2046,2036,1997,1991,2040,2059,2065
2056,2060,2052,2020,2005,2058,2060,2057
2063,2067,2065,2045,2029,2061,2068,2050
2067,2076,2077,2062,2056,2057,2048,2035
2059,2068,2066,2051,2068,2051,2042,2020
2049,2053,2047,2040,2071,2044,2053,2011
2048,2046,2042,2026,2041,2040,2043,2008
2041,2045,2046,2027,2028,2036,2049,2013
2046,2053,2055,2031,2040,2042,2054,2010
2046,2055,2057,2025,2034,2041,2034,2000
2037,2049,2056,2023,2029,2043,2047,2004
2035,2053,2049,2028,2038,2050,2070,2012
2049,2060,2052,2035,2052,2047,2057,2012
2044,2052,2051,2036,2059,2041,2060,2012
2045,2046,2043,2039,2062,2037,2046,2016
2048,2045,2046,2043,2061,2038,2038,2018
2049,2053,2057,2050,2069,2046,2045,2021
2061,2066,2077,2058,2085,2058,2054,2040
2066,2077,2089,2062,2094,2061,2051,2047
2066,2064,2084,2062,2094,2060,2053,2055
2061,2058,2093,2073,2110,2064,2060,2053
2061,2070,2099,2081,2105,2073,2059,2068
2050,2060,2085,2074,2074,2067,2053,2070
2046,2055,2072,2058,2042,2061,2034,2073
2047,2051,2057,2057,2051,2053,2035,2087
2042,2048,2058,2064,2084,2052,2037,2089
2041,2037,2050,2064,2079,2041,2026,2085
2036,2033,2053,2069,2071,2051,2022,2084
2038,2040,2050,2069,2071,2071,2035,2081
2040,2042,2041,2068,2072,2069,2035,2080
2045,2038,2034,2071,2058,2069,2025,2071
2045,2040,2029,2065,2040,2063,2041,2069
2045,2037,2016,2053,2018,2033,2050,2065
2046,2030,2016,2056,2018,2021,2057,2063
2043,2042,2017,2066,2038,2033,2061,2051
2045,2038,2018,2072,2040,2042,2058,2037
2041,2035,2017,2062,2051,2050,2068,2026
2039,2023,2017,2058,2051,2052,2048,2021
2039,2027,2021,2055,2046,2049,2050,2015
2041,2030,2038,2051,2041,2047,2036,2010
2047,2044,2062,2066,2053,2049,2045,2006
2053,2058,2065,2054,2052,2052,2053,2003
2053,2056,2055,2047,2028,2039,2039,1996
2049,2044,2038,2034,2012,2032,2027,2008
2051,2045,2058,2029,2013,2036,2042,2017
2060,2070,2089,2048,2035,2050,2056,2010
2062,2073,2102,2050,2056,2052,2055,2017
2062,2085,2104,2058,2069,2063,2047,2022
2067,2092,2104,2063,2072,2059,2049,2028
2067,2079,2082,2052,2051,2055,2049,2033
2055,2062,2058,2043,2032,2050,2047,2031
2050,2049,2045,2041,2035,2050,2058,2041
2047,2038,2033,2035,2036,2062,2060,2051
2047,2038,2026,2030,2039,2067,2066,2066
2049,2038,2026,2032,2039,2062,2064,2074
2055,2038,2024,2042,2038,2052,2065,2085
2048,2042,2042,2044,2043,2045,2060,2092
2049,2047,2060,2055,2034,2052,2060,2088
2050,2063,2094,2079,2040,2060,2060,2098
2057,2058,2104,2087,2030,2058,2055,2104
2046,2043,2086,2089,2030,2059,2052,2100
2048,2047,2086,2093,2032,2073,2053,2093
2040,2050,2086,2098,2041,2066,2036,2092
2037,2055,2079,2100,2046,2065,2029,2082
2044,2056,2084,2103,2067,2069,2041,2071
2042,2055,2081,2097,2057,2080,2029,2062
2043,2065,2081,2087,2047,2080,2041,2054
2047,2059,2070,2076,2038,2071,2034,2047
2038,2050,2063,2065,2006,2066,2027,2037
2042,2049,2052,2051,1996,2031,2020,2032
2042,2043,2042,2030,2029,2011,2044,2034
2043,2043,2034,2020,2067,2019,2058,2037
2046,2043,2032,2021,2066,2033,2050,2028
2048,2047,2032,2019,2073,2046,2041,2030
2056,2050,2039,2013,2075,2051,2045,2026
2054,2057,2039,2012,2072,2053,2044,2027
2054,2045,2039,2027,2064,2049,2047,2016
2043,2035,2032,2034,2058,2046,2046,2010
2045,2039,2044,2043,2072,2053,2040,2009
2052,2047,2049,2042,2069,2052,2048,2018
2049,2046,2055,2042,2071,2052,2038,2022
2054,2049,2046,2038,2071,2047,2033,2028
2056,2050,2046,2037,2068,2050,2048,2036
2057,2048,2037,2038,2071,2051,2042,2038
2053,2038,2024,2041,2066,2045,2040,2040
2051,2030,2022,2051,2066,2050,2041,2050
2045,2036,2017,2066,2077,2053,2031,2052
2051,2035,2007,2071,2082,2052,2026,2051
2039,2034,1998,2068,2071,2054,2043,2058
2042,2033,2003,2075,2075,2050,2013,2073
2046,2028,2006,2083,2079,2061,2043,2076
2043,2025,2003,2086,2079,2067,2048,2088
2036,2022,1997,2086,2072,2063,2029,2092
2028,2008,1989,2083,2062,2046,2038,2085
2030,2000,1985,2084,2051,2041,2026,2086
2036,2015,2012,2092,2042,2043,2029,2085
2035,2031,2030,2085,2027,2033,2039,2078
2039,2045,2027,2075,2004,2023,2025,2068
2030,2041,2018,2047,1993,2014,2026,2053
2026,2029,2009,2036,1983,2015,2021,2051
2027,2033,2018,2045,2003,2035,2023,2050
2040,2034,2027,2056,2049,2045,2016,2060
2044,2037,2039,2059,2068,2056,2010,2053
2051,2037,2053,2069,2074,2059,2043,2047
2051,2053,2082,2079,2070,2059,2023,2037
2046,2064,2089,2075,2056,2056,2030,2025
2041,2068,2095,2060,2044,2046,2018,2028
2050,2066,2103,2050,2060,2054,2021,2021
2062,2084,2114,2059,2089,2073,2047,2029
2067,2082,2112,2059,2092,2071,2041,2029
2058,2065,2088,2044,2079,2064,2039,2024
2058,2055,2074,2042,2086,2075,2064,2030
2059,2058,2070,2037,2068,2069,2034,2018
2053,2058,2067,2031,2054,2063,2033,2009
2041,2056,2071,2030,2048,2062,2020,2017
2037,2052,2067,2023,2034,2070,2037,2025
2041,2052,2059,2021,2042,2085,2039,2034
2044,2051,2062,2032,2045,2085,2039,2035
2052,2048,2057,2053,2043,2083,2043,2042
2047,2041,2058,2051,2045,2088,2050,2057
2048,2049,2056,2049,2060,2055,2054,2061
2051,2048,2061,2035,2066,2032,2044,2069
2043,2044,2049,2024,2064,2042,2045,2075
2050,2043,2054,2024,2055,2045,2031,2084
2047,2040,2058,2031,2045,2046,2024,2089
2054,2048,2055,2038,2029,2046,2055,2095
2061,2052,2056,2037,2016,2035,2035,2092
2055,2049,2060,2033,2023,2038,2032,2096
2057,2051,2053,2033,2024,2040,2031,2094
2062,2047,2050,2030,2040,2043,2049,2095
2061,2050,2046,2043,2050,2027,2024,2086
2057,2045,2039,2040,2044,2029,2018,2079
2052,2037,2039,2042,2053,2033,2008,2067
2046,2040,2042,2049,2058,2037,2012,2052
2043,2042,2046,2049,2058,2041,2037,2051
2054,2041,2042,2042,2049,2046,2020,2056
2052,2044,2035,2036,2050,2040,2030,2047
2046,2041,2035,2040,2052,2042,2050,2052
2052,2051,2049,2054,2056,2047,2044,2032
2057,2061,2045,2054,2052,2049,2045,2022
2048,2050,2043,2051,2054,2042,2060,2023
2047,2045,2041,2055,2058,2037,2043,2027
2038,2039,2035,2055,2089,2039,2032,2012
2039,2029,2028,2051,2112,2042,2046,2013
2036,2035,2030,2052,2130,2065,2057,2011
2044,2040,2042,2064,2152,2082,2074,2014
2046,2052,2048,2071,2158,2083,2046,2020
2049,2049,2055,2070,2159,2086,2049,2021
2050,2050,2052,2062,2135,2075,2049,2025
2056,2053,2047,2056,2111,2071,2046,2028
2058,2048,2050,2060,2098,2067,2036,2035
2053,2047,2052,2062,2070,2061,2025,2037
2049,2048,2053,2054,1964,2049,2041,2047
2047,2042,2054,2040,1926,2040,2058,2053
2045,2044,2053,2037,1968,2040,2058,2069
2042,2049,2046,2048,2004,2051,2054,2071
2041,2038,2046,2049,2018,2048,2046,2083
2037,2036,2043,2050,2035,2048,2057,2089
2034,2034,2046,2050,2035,2044,2054,2092
2034,2032,2048,2050,2038,2046,2046,2089
2028,2023,2038,2045,2027,2046,2024,2088
2031,2023,2034,2047,2024,2043,2025,2084
2032,2035,2038,2058,2025,2041,2030,2082
2030,2024,2036,2070,2032,2040,2026,2080
2033,2027,2029,2067,2026,2036,2031,2074
2034,2028,2027,2064,2038,2043,2020,2076
2035,2034,2033,2060,2062,2046,2011,2066
2042,2040,2030,2064,2062,2052,2018,2057
2047,2050,2039,2062,2058,2053,2030,2053
2046,2046,2024,2067,2049,2053,2024,2045
2045,2046,2007,2058,2049,2053,2024,2039
2049,2038,1999,2053,2049,2046,2033,2028
2043,2037,1989,2045,2057,2042,2041,2025
2047,2041,2004,2046,2061,2046,2031,2026
2048,2043,2007,2051,2057,2041,2045,2027
2053,2048,2015,2052,2052,2048,2044,2026
2059,2058,2028,2051,2045,2031,2024,2022
2047,2057,2030,2044,2037,2023,2029,2012
2051,2046,2026,2052,2036,2025,2043,2020
2051,2051,2036,2059,2053,2033,2006,2016
2055,2047,2040,2062,2065,2051,2015,2019
2052,2049,2031,2052,2069,2060,2021,2019
2042,2038,2027,2041,2061,2074,2049,2014
2038,2032,2038,2046,2061,2083,2056,2022
2039,2029,2053,2052,2049,2093,2041,2034
2040,2036,2071,2066,2055,2084,2047,2032
2042,2048,2084,2070,2073,2064,2050,2054
2053,2055,2087,2083,2081,2040,2064,2069
2052,2048,2072,2078,2090,2042,2052,2071
2055,2047,2056,2082,2085,2052,2049,2071
2044,2038,2041,2079,2075,2062,2048,2077
2038,2032,2040,2080,2076,2080,2060,2082
2039,2044,2043,2069,2068,2102,2047,2080
2037,2036,2043,2060,2052,2099,2025,2078
2032,2035,2045,2064,2043,2088,2040,2084
2032,2037,2062,2055,2033,2079,2032,2087
2030,2033,2052,2041,2028,2049,2028,2092
2030,2044,2054,2045,2029,2005,2051,2092
2040,2046,2059,2048,2027,2006,2046,2085
2047,2046,2048,2036,2017,2028,2076,2071
2041,2050,2032,2015,2012,2045,2054,2064
2041,2046,2019,2010,2009,2060,2070,2057
2043,2053,2033,2035,2038,2046,2071,2057
2055,2058,2060,2054,2041,2018,2040,2060
2050,2057,2058,2045,2014,2012,2030,2048
2050,2054,2050,2034,1994,2015,2014,2042
2052,2051,2056,2032,1992,2028,2025,2031
2044,2043,2055,2019,1991,2059,2046,2018
2036,2037,2051,2026,2004,2079,2058,2019
2042,2037,2055,2040,2040,2101,2067,2020
2045,2033,2059,2045,2048,2086,2075,2027
2048,2035,2069,2055,2044,2030,2064,2024
2057,2044,2071,2069,2050,2018,2043,2028
2056,2044,2072,2064,2069,2018,2047,2025
2050,2052,2065,2081,2090,2024,2046,2028
2058,2058,2067,2087,2104,2029,2053,2026
2056,2054,2065,2074,2086,2026,2029,2035
2050,2044,2053,2070,2084,2030,2022,2039
2047,2036,2042,2068,2081,2035,2051,2042
2039,2035,2038,2071,2081,2035,2034,2053
2041,2038,2036,2075,2084,2038,2056,2063
2042,2039,2037,2067,2079,2038,2042,2068
2049,2041,2043,2062,2081,2035,2036,2069
2044,2039,2040,2056,2074,2027,2033,2073
2053,2040,2033,2046,2048,2027,2023,2081
2043,2041,2034,2035,2015,2018,2025,2088
2046,2041,2033,2031,2023,2002,2006,2087
2038,2028,2029,2047,2054,2012,2017,2092
2040,2034,2031,2057,2064,2018,2014,2082
2040,2037,2032,2058,2065,2026,2032,2084
2040,2033,2034,2061,2057,2024,2031,2081
2041,2041,2041,2065,2048,2027,2030,2083
2044,2042,2043,2054,2033,2032,2027,2076
2040,2045,2037,2022,2020,2033,2031,2061
2041,2046,2046,2009,1987,2016,2016,2052
2049,2046,2058,1996,1965,2004,2015,2046
2049,2046,2056,2001,1965,2011,2024,2045
2050,2045,2047,2003,1981,2027,2042,2035
2056,2050,2029,2013,2022,2054,2049,2034
2061,2062,2035,2046,2074,2076,2064,2026
2062,2054,2038,2070,2120,2089,2067,2021
2063,2061,2032,2075,2147,2107,2077,2025
2063,2056,2035,2080,2153,2110,2055,2020
2052,2047,2021,2067,2134,2087,2045,2011
2036,2039,2018,2056,2120,2068,2044,2013
2035,2041,2027,2058,2125,2058,2026,2014
2050,2051,2037,2055,2108,2058,2041,2026
2048,2050,2053,2059,2094,2053,2041,2030
2060,2064,2067,2066,2071,2060,2040,2036
2066,2067,2070,2063,2048,2053,2056,2044
2066,2057,2059,2037,2017,2039,2024,2038
2059,2055,2053,2017,2003,2036,2025,2040
2048,2048,2055,2016,2011,2054,2046,2040
2052,2050,2075,2035,2025,2068,2042,2052
2054,2055,2090,2051,2052,2076,2075,2060
2047,2058,2092,2055,2066,2082,2070,2071
2052,2052,2087,2054,2046,2046,2058,2085
2050,2060,2085,2055,2025,2024,2057,2088
2054,2057,2079,2048,1996,2034,2048,2098
2046,2058,2071,2056,1983,2052,2023,2092
2044,2050,2056,2047,1980,2062,2002,2087
2043,2038,2051,2057,1992,2051,2024,2094
2044,2040,2062,2069,2023,2044,2058,2096
2044,2043,2068,2074,2064,2026,2053,2107
2044,2053,2071,2088,2092,2016,2058,2100
2055,2058,2067,2094,2102,2040,2053,2097
2054,2056,2062,2089,2081,2048,2055,2079
2055,2050,2056,2079,2063,2045,2053,2071
2054,2051,2051,2085,2062,2044,2053,2061
2057,2058,2051,2089,2078,2048,2051,2052
2059,2056,2049,2088,2074,2047,2049,2045
2052,2043,2065,2090,2075,2050,2038,2027
2040,2041,2053,2084,2090,2048,2036,2021
2030,2032,2052,2081,2083,2043,2055,2023
2036,2036,2059,2088,2078,2052,2052,2030
2049,2047,2069,2077,2082,2054,2054,2028
2054,2053,2062,2076,2081,2051,2049,2018
2043,2034,2047,2064,2074,2043,2049,2018
2042,2031,2030,2049,2076,2050,2052,2022
2057,2037,2036,2036,2078,2051,2045,2019
2052,2032,2034,2042,2050,2038,2044,2021
2044,2027,2028,2030,2042,2030,2026,2018
2041,2027,2024,2029,2037,2036,2036,2023
2040,2025,2003,2023,2056,2040,2028,2032
2044,2029,1997,2014,2060,2039,2025,2035
2047,2035,1992,2003,2062,2035,2031,2039
2053,2032,1983,1995,2060,2033,2034,2049
2051,2032,1975,1995,2044,2041,2027,2061
2050,2030,1982,2008,2055,2047,2034,2065
2054,2037,2001,2031,2106,2047,2037,2080
2046,2036,2014,2050,2121,2048,2029,2083
2043,2033,2012,2047,2115,2050,2038,2086
2045,2036,2009,2047,2104,2045,2031,2088
2044,2038,2018,2046,2068,2035,2036,2079
2035,2024,2021,2047,2038,2035,2016,2085
2036,2024,2041,2046,2036,2040,2044,2081
2038,2032,2045,2042,2040,2042,2060,2076
2038,2034,2053,2042,2035,2040,2046,2076
2041,2037,2067,2044,1998,2033,2038,2069
2034,2039,2080,2042,2013,2032,2032,2063
2031,2039,2073,2047,2025,2039,2035,2055
2028,2044,2082,2049,2026,2042,2039,2046
2040,2045,2081,2051,2034,2040,2053,2047
2046,2047,2078,2056,2044,2041,2054,2037
2042,2046,2075,2069,2049,2050,2080,2035
2050,2059,2088,2079,2059,2045,2070,2038
2058,2067,2089,2090,2064,2039,2046,2032
2065,2066,2081,2092,2067,2043,2053,2029
2049,2064,2072,2085,2062,2051,2042,2024
2050,2063,2073,2082,2049,2051,2033,2017
2056,2056,2056,2059,2030,2039,2032,2010
2038,2038,2039,2020,2004,2031,2025,2012
2044,2046,2048,1988,2006,2029,2029,2011
2051,2057,2063,1993,2017,2036,2036,2018
2052,2067,2072,2021,2030,2037,2044,2018
2048,2064,2078,2040,2036,2038,2051,2021
2048,2056,2067,2034,2035,2046,2058,2028
2050,2050,2052,2039,2041,2055,2062,2041
2060,2054,2055,2045,2058,2062,2053,2048
2060,2051,2042,2049,2052,2058,2064,2059
2059,2044,2033,2042,2048,2053,2067,2064
2058,2050,2033,2033,2051,2050,2053,2069
2057,2049,2028,2035,2095,2052,2057,2080
2062,2052,2039,2043,2120,2044,2062,2079
2062,2055,2040,2053,2130,2047,2046,2088
2058,2050,2036,2049,2126,2042,2053,2097
2045,2043,2037,2042,2121,2042,2050,2092
2034,2039,2037,2043,2099,2038,2046,2091
2045,2047,2047,2041,2074,2039,2045,2092
2044,2059,2048,2046,2064,2054,2042,2086
2046,2054,2045,2019,2010,2056,2043,2072
2031,2049,2041,2013,1954,2049,2035,2062
2034,2046,2046,2011,1842,2041,2015,2064
2046,2051,2053,2001,1810,2041,2024,2055
2040,2045,2049,1999,1846,2026,2008,2049
2044,2042,2050,2014,1890,2024,2011,2047
2046,2052,2067,2038,1925,2040,2032,2044
2054,2059,2065,2027,1944,2052,2012,2035
2050,2059,2067,2021,1981,2034,2017,2044
2050,2062,2072,2041,2048,2040,2054,2038
2057,2064,2074,2050,2073,2057,2045,2040
2058,2060,2068,2050,2069,2062,2061,2032
2049,2055,2055,2055,2065,2056,2063,2031
2051,2047,2054,2056,2041,2037,2052,2021
2052,2041,2052,2051,2036,2019,2013,2021
2047,2043,2060,2051,2061,2036,2044,2028
2054,2051,2063,2064,2095,2053,2042,2022
2048,2054,2063,2058,2093,2060,2038,2018
2044,2049,2063,2055,2086,2052,2044,2028
2043,2049,2058,2054,2085,2045,2043,2033
2042,2046,2050,2052,2072,2041,2028,2040
2045,2049,2053,2052,2061,2037,2045,2040
2055,2061,2052,2056,2056,2021,2030,2053
2055,2065,2057,2050,2040,2019,2032,2049
2050,2057,2049,2044,2051,2028,2056,2048
2043,2055,2050,2050,2069,2040,2051,2062
2052,2050,2056,2061,2080,2048,2049,2074
2054,2048,2049,2057,2072,2049,2070,2079
2051,2047,2042,2051,2066,2054,2064,2072
2036,2044,2035,2040,2065,2049,2059,2081
2041,2032,2038,2035,2051,2033,2058,2076
2043,2033,2039,2040,2052,2033,2047,2084
2039,2040,2037,2039,2044,2040,2051,2076
2042,2034,2037,2034,2047,2037,2050,2075
2036,2034,2034,2034,2045,2044,2048,2077
2034,2036,2041,2037,2040,2052,2057,2064
2035,2047,2045,2047,2057,2059,2060,2067
2035,2052,2046,2050,2062,2065,2060,2061
2038,2048,2046,2045,2058,2063,2058,2058
2042,2045,2043,2046,2066,2056,2062,2049
2047,2047,2044,2044,2059,2054,2034,2041
2045,2042,2038,2048,2050,2047,2047,2037
2038,2039,2036,2043,2046,2048,2056,2023
2033,2040,2037,2042,2051,2053,2046,2020
2035,2041,2039,2049,2066,2060,2050,2023
2039,2036,2041,2051,2071,2066,2049,2013
2038,2036,2040,2045,2068,2069,2058,2008
2027,2028,2026,2046,2062,2066,2037,2005
2025,2032,2032,2043,2072,2070,2056,2015
2049,2044,2044,2059,2104,2082,2057,2025
2055,2054,2045,2066,2130,2084,2065,2022
2060,2058,2049,2077,2147,2084,2053,2028
2061,2066,2050,2075,2134,2075,2055,2031
2058,2061,2044,2063,2112,2081,2028,2025
2051,2052,2035,2050,2069,2081,2032,2020
2046,2045,2040,2037,2006,2061,2039,2022
2041,2043,2042,2025,1958,2049,2051,2028
2036,2042,2044,2032,1985,2028,2031,2044
2038,2044,2043,2034,2038,1986,2024,2063
2042,2048,2040,2029,2066,1977,2055,2084
2054,2054,2046,2031,2013,2005,2058,2091
2052,2059,2039,2016,1940,2012,2060,2094
2045,2065,2047,2028,1966,2037,2065,2105
2058,2064,2055,2038,1993,2051,2050,2105
2058,2064,2051,2034,2001,2034,2049,2097
2053,2058,2038,2032,2017,2026,2028,2091
2041,2051,2038,2040,2049,2024,2035,2088
2036,2048,2042,2036,2060,2030,2037,2078
2035,2045,2040,2045,2053,2037,2042,2069
2042,2042,2038,2041,2044,2038,2031,2069
2039,2044,2036,2038,2027,2046,2030,2056
2036,2037,2033,2036,2014,2043,2033,2053
2036,2029,2034,2029,2012,2043,2047,2054
2042,2034,2033,2037,2036,2056,2054,2047
2046,2042,2044,2048,2065,2066,2071,2043
2052,2042,2044,2049,2063,2057,2073,2044
2046,2038,2033,2041,2065,2051,2066,2036
2042,2039,2035,2044,2058,2059,2064,2029
2049,2042,2039,2042,2054,2050,2051,2023
2043,2041,2042,2046,2058,2045,2043,2016
2040,2045,2044,2046,2062,2035,2043,2003
2039,2048,2039,2048,2072,2050,2037,2005
2034,2040,2040,2051,2094,2062,2070,2020
2045,2043,2041,2047,2084,2061,2050,2017
2034,2041,2042,2048,2068,2070,2043,2022
2045,2047,2044,2040,2075,2080,2049,2025
2037,2051,2049,2044,2084,2076,2051,2021
2039,2053,2047,2056,2092,2074,2060,2029
2035,2051,2049,2051,2076,2064,2056,2027
2039,2049,2046,2048,2067,2054,2044,2034
2042,2045,2045,2043,2060,2041,2038,2044
2035,2041,2040,2040,2062,2039,2051,2054
2028,2042,2039,2040,2057,2055,2056,2059
2035,2042,2045,2040,2053,2067,2069,2060
2042,2041,2040,2031,2043,2079,2063,2071
2032,2038,2035,2030,2029,2086,2056,2066
2031,2040,2031,2023,2011,2090,2052,2070
2024,2035,2028,2015,1990,2068,2033,2068
2028,2035,2028,2016,1986,2036,2026,2085
2032,2051,2036,2025,1998,1996,2030,2089
2048,2057,2045,2041,2038,1995,2037,2088
2054,2073,2055,2051,2068,2029,2055,2092
2055,2076,2056,2057,2080,2061,2044,2089
2059,2068,2051,2051,2081,2076,2065,2080
2062,2062,2048,2044,2073,2089,2055,2067
2055,2055,2040,2048,2083,2087,2061,2055
2058,2053,2039,2053,2088,2054,2046,2050
2062,2055,2042,2052,2070,2010,2056,2039
2059,2049,2036,2052,2064,2010,2036,2032
2049,2045,2040,2053,2045,2024,2042,2036
2049,2054,2049,2057,2051,2021,2039,2035
2053,2059,2050,2055,2069,2022,2025,2033
2056,2054,2048,2050,2076,2026,2024,2031
2058,2065,2054,2056,2068,2030,2016,2022
2058,2064,2050,2054,2061,2037,2023,2024
2047,2058,2045,2056,2045,2053,2058,2023
2055,2064,2048,2061,2058,2057,2064,2027
2060,2060,2048,2064,2078,2050,2059,2028
2060,2056,2049,2065,2087,2038,2045,2030
2057,2053,2048,2050,2069,2035,2053,2034
2059,2058,2051,2038,2038,2036,2049,2041
2057,2064,2055,2047,2087,2060,2058,2039
2051,2057,2051,2057,2150,2062,2059,2043
2049,2052,2052,2069,2180,2072,2064,2046
2055,2056,2055,2064,2186,2084,2076,2052
2048,2059,2057,2065,2180,2083,2056,2053
2047,2049,2051,2062,2160,2085,2049,2059
2044,2044,2051,2058,2117,2079,2047,2062
2042,2043,2043,2051,2091,2061,2031,2075
2039,2044,2046,2045,2042,2041,2034,2074
2048,2051,2050,2042,2014,2035,2020,2076
2042,2048,2042,2024,1924,2018,2010,2075
2037,2045,2042,2010,1852,2019,2031,2078
2047,2060,2048,2016,1874,2030,2055,2081
2042,2056,2048,2030,1908,2035,2029,2084
2045,2056,2044,2027,1939,2038,2045,2073
2047,2055,2044,2030,1955,2041,2053,2073
2045,2051,2052,2043,1978,2042,2036,2060
2052,2054,2047,2039,1991,2040,2045,2050
2049,2058,2048,2040,2036,2050,2034,2045
2052,2055,2052,2047,2071,2060,2051,2043
2054,2058,2049,2057,2072,2065,2049,2033
2061,2055,2049,2052,2050,2057,2050,2031
2058,2057,2050,2042,2033,2041,2052,2032
2055,2052,2045,2036,2015,2026,2035,2024
2054,2051,2050,2036,2034,2035,2043,2025
2064,2055,2058,2044,2048,2040,2039,2030
2058,2049,2052,2044,2031,2040,2049,2025
2052,2044,2042,2033,2000,2038,2044,2022
2057,2046,2046,2031,1998,2033,2060,2024
2058,2051,2047,2032,1985,2025,2039,2021
2052,2050,2044,2034,1991,2024,2023,2010
2038,2042,2045,2033,1994,2028,2028,2010
2040,2044,2038,2034,1989,2024,2015,2003
2036,2036,2044,2038,1991,2027,2042,2012
2036,2040,2045,2030,2005,2040,2032,2020
2036,2038,2044,2042,2044,2056,2052,2025
2042,2038,2042,2049,2089,2063,2041,2033
2042,2038,2047,2052,2126,2052,2054,2054
2043,2043,2049,2061,2136,2036,2042,2063
2047,2039,2052,2064,2112,2031,2041,2069
2050,2051,2057,2067,2088,2028,2033,2080
2052,2056,2062,2062,2089,2025,2035,2083
2054,2055,2058,2064,2079,2029,2039,2080
2049,2043,2049,2056,2063,2027,2048,2093
2045,2040,2050,2051,2069,2031,2050,2085
2051,2054,2047,2059,2072,2033,2034,2091
2056,2050,2051,2058,2069,2032,2029,2087
2051,2055,2056,2064,2076,2027,2028,2084
2054,2056,2053,2061,2094,2037,2010,2080
2053,2054,2057,2062,2104,2039,2011,2074
2045,2045,2048,2053,2070,2043,2014,2059
2043,2041,2039,2038,2033,2051,2023,2050
2036,2036,2040,2030,2019,2053,2026,2043
2037,2039,2041,2031,2040,2051,2033,2037
2036,2040,2043,2041,2060,2054,2044,2036
2034,2041,2045,2047,2065,2048,2040,2025
2037,2039,2042,2054,2064,2036,2026,2023
2040,2045,2046,2058,2060,2037,2011,2020
2042,2044,2044,2045,2037,2033,2008,2022
2043,2050,2044,2036,1998,2020,2022,2009
2034,2042,2038,2023,2004,2020,2022,2014
2034,2035,2038,2028,2029,2024,2023,2018
2040,2049,2043,2036,2055,2039,2036,2021
2047,2053,2042,2040,2062,2050,2050,2020
2043,2051,2045,2048,2053,2042,2058,2027
2038,2054,2046,2048,2051,2051,2066,2028
2041,2048,2046,2048,2059,2048,2060,2020
2038,2046,2049,2044,2060,2042,2042,2022
2025,2038,2043,2039,2057,2042,2049,2022
2017,2036,2036,2042,2068,2055,2032,2026
2014,2035,2040,2044,2085,2075,2062,2037
2021,2036,2039,2046,2094,2080,2092,2056
2026,2038,2041,2053,2109,2092,2080,2067
2023,2034,2034,2049,2087,2074,2068,2074
2024,2034,2035,2043,2067,2062,2055,2075
2021,2031,2036,2048,2071,2055,2026,2083
2022,2030,2029,2037,2063,2039,2009,2076
2010,2022,2032,2040,2063,2054,2020,2058
2001,2030,2038,2044,2078,2054,2014,2063
2013,2037,2043,2050,2074,2036,2016,2067
2018,2038,2045,2051,2057,2021,2010,2064
2029,2046,2043,2043,2049,2020,2022,2064
2040,2057,2042,2039,2051,2029,2027,2061
2072,2068,2046,2041,2048,2034,2030,2054
2090,2064,2051,2051,2057,2032,2029,2053
2076,2065,2053,2050,2061,2023,2034,2054
2065,2063,2058,2049,2066,2020,2024,2052
2066,2073,2060,2051,2076,2023,2058,2057
2078,2072,2062,2056,2077,2039,2080,2060
2085,2078,2061,2066,2086,2050,2066,2050
2078,2080,2064,2066,2083,2053,2062,2043
2064,2076,2062,2064,2084,2061,2060,2026
2057,2062,2057,2057,2075,2062,2050,2011
2038,2045,2039,2047,2068,2058,2035,1996
2023,2037,2040,2043,2056,2064,2054,1997
2020,2042,2041,2040,2034,2060,2045,2006
2024,2044,2039,2039,2013,2063,2064,2012
2038,2056,2046,2045,2036,2089,2075,2030
2045,2059,2050,2047,2058,2100,2079,2032
2054,2064,2051,2047,2061,2117,2096,2034
2051,2057,2049,2046,2061,2111,2082,2036
2051,2055,2055,2053,2073,2112,2088,2045
2047,2057,2057,2053,2060,2097,2052,2039
2050,2050,2053,2056,2064,2058,2040,2041
2044,2049,2056,2055,2066,2043,2027,2042
2049,2044,2058,2057,2085,2051,2033,2046
2039,2050,2054,2060,2079,2052,2042,2064
2044,2045,2059,2052,2057,2087,2049,2077
2043,2040,2043,2045,2042,2106,2072,2076
2034,2031,2039,2047,2031,2088,2071,2087
2031,2020,2034,2036,2005,2063,2041,2092
2037,2023,2033,2029,1996,2027,2045,2097
2036,2035,2040,2036,2005,1994,2033,2087
2035,2034,2038,2045,2041,1993,2040,2076
2027,2036,2037,2043,2080,2020,2045,2065
2032,2034,2037,2040,2084,2052,2030,2067
2037,2039,2037,2050,2062,2070,2039,2058
2046,2045,2047,2047,2027,2037,2037,2051
2046,2049,2050,2037,1934,2000,2031,2046
2050,2057,2054,2030,1883,1971,2048,2044
2053,2059,2049,2033,1911,1979,2021,2036
2050,2049,2033,2025,1948,2023,2015,2024
2035,2034,2021,2030,2002,2024,2027,2018
2035,2037,2026,2038,2023,2021,2037,2014
2021,2033,2033,2032,2040,2044,2059,2017
2022,2033,2033,2041,2078,2066,2045,2011
2035,2032,2034,2039,2082,2064,2050,2007
2031,2031,2029,2039,2077,2060,2070,2014
2038,2037,2041,2049,2079,2062,2065,2020
2050,2054,2056,2051,2075,2068,2063,2021
2053,2059,2059,2053,2077,2059,2033,2012
2052,2064,2060,2049,2071,2046,2025,2011
2052,2070,2077,2052,2069,2049,2055,2015
2060,2074,2079,2060,2093,2061,2029,2021
2056,2062,2070,2060,2106,2059,2026,2018
2049,2063,2068,2059,2116,2064,2038,2029
2047,2058,2069,2068,2120,2066,2053,2039
2048,2053,2066,2066,2109,2070,2052,2056
2051,2049,2068,2060,2101,2078,2030,2066
2049,2046,2065,2052,2109,2082,2060,2085
2055,2041,2058,2059,2112,2085,2069,2096
2057,2050,2063,2057,2091,2075,2073,2096
2057,2050,2061,2049,2058,2061,2050,2100
2051,2043,2049,2031,2025,2024,2044,2082
2050,2040,2045,2028,2028,2023,2036,2077
2046,2042,2054,2043,2112,2046,2034,2078
2049,2045,2047,2062,2189,2063,2047,2082
2044,2041,2051,2065,2200,2080,2068,2081
2048,2043,2060,2065,2177,2074,2052,2081
2055,2049,2062,2063,2154,2057,2021,2070
2052,2054,2054,2061,2115,2046,2005,2053
2047,2053,2055,2061,2098,2037,2001,2045
2046,2055,2057,2064,2094,2016,2006,2042
2049,2054,2054,2054,2034,1980,1987,2035
2046,2056,2044,2014,1843,1974,1993,2028
2046,2057,2043,2000,1818,1995,1995,2019
2049,2052,2037,2013,1874,2020,2005,2015
2046,2049,2040,2014,1884,2024,2008,2008
2041,2037,2024,2002,1903,2008,2010,2005
2046,2042,2035,2033,1991,1987,2047,2016
2054,2046,2044,2072,2093,1993,2052,2019
2054,2046,2052,2081,2126,2026,2057,2024
2067,2062,2067,2082,2138,2058,2068,2021
2065,2062,2061,2068,2110,2053,2064,2017
2050,2055,2050,2054,2081,2040,2051,2010
2058,2053,2053,2052,2074,2027,2050,2014
2056,2054,2051,2051,2068,2023,2062,2016
2059,2057,2058,2052,2081,2038,2060,2024
2062,2060,2058,2057,2078,2044,2053,2028
2054,2053,2059,2056,2083,2058,2052,2034
2044,2052,2056,2055,2092,2065,2069,2047
2054,2061,2059,2058,2092,2054,2057,2054
2050,2054,2064,2057,2064,2029,2063,2054
2043,2054,2053,2047,2033,2018,2042,2062
2040,2048,2064,2043,2012,2023,2045,2076
2044,2054,2055,2040,2021,2047,2036,2086
2046,2058,2053,2042,2035,2065,2039,2092
2046,2052,2055,2035,2013,2068,2059,2090
2049,2052,2052,2035,2013,2060,2051,2089
2051,2061,2057,2039,2012,2057,2051,2085
2044,2057,2054,2043,2018,2052,2057,2080
2049,2053,2057,2040,2048,2048,2068,2080
2055,2055,2056,2052,2083,2067,2072,2076
2052,2059,2058,2056,2104,2090,2068,2076
2055,2058,2056,2053,2096,2101,2081,2059
2058,2064,2054,2056,2077,2095,2080,2052
2054,2059,2058,2053,2069,2061,2072,2040
2052,2058,2058,2050,2071,2031,2051,2028
2054,2058,2057,2050,2064,2009,2050,2030
2055,2060,2058,2053,2059,1994,2051,2016
2057,2060,2054,2046,2054,1998,2034,2013
2045,2053,2053,2040,2055,2014,2031,2007
2049,2049,2051,2040,2053,2023,2032,2005
2045,2044,2045,2031,2037,2021,2023,1991
2042,2039,2042,2031,2043,2023,2025,1989
2038,2042,2048,2037,2054,2042,2067,2003
2046,2050,2053,2037,2049,2041,2049,1997
2050,2050,2039,2040,2048,2033,2058,2003
2042,2047,2044,2040,2049,2030,2058,2006
2045,2049,2043,2036,2043,2033,2035,2007
2044,2051,2040,2032,2028,2047,2065,2012
2045,2050,2041,2033,2035,2054,2064,2018
2038,2050,2033,2027,2040,2055,2060,2031
2049,2057,2040,2037,2049,2057,2072,2045
2051,2056,2050,2049,2065,2068,2082,2059
2052,2055,2046,2047,2064,2073,2041,2058
2047,2048,2035,2041,2058,2083,2044,2060
2039,2048,2039,2039,2052,2092,2064,2068
2045,2050,2042,2041,2047,2088,2050,2068
2051,2044,2037,2040,2049,2090,2051,2076
2038,2037,2035,2042,2052,2081,2054,2071
2032,2037,2042,2046,2056,2081,2054,2074
2038,2044,2044,2044,2057,2058,2046,2065
2031,2045,2042,2032,2049,2067,2041,2057
2029,2041,2038,2024,2043,2083,2040,2056
2029,2030,2028,2019,2048,2089,2036,2056
2029,2034,2025,2029,2053,2089,2038,2054
2034,2038,2027,2034,2077,2071,2043,2049
2044,2056,2042,2062,2122,2041,2070,2056
2054,2064,2045,2064,2140,2042,2052,2050
2055,2059,2035,2055,2103,2059,2051,2042
2051,2057,2030,2040,2050,2062,2040,2027
2050,2062,2033,2034,2044,2071,2030,2018
2045,2060,2046,2044,2061,2081,2051,2020
2049,2064,2046,2041,2048,2071,2052,2006
2047,2061,2047,2044,2029,2046,2028,2003
2042,2057,2049,2035,2001,2034,2004,1998
2040,2041,2035,2009,1976,2023,1990,1990
2031,2039,2028,2007,1988,2030,2014,1991
2038,2051,2056,2030,2047,2060,2045,1992
2046,2051,2053,2038,2068,2086,2050,1986
2039,2042,2050,2038,2057,2096,2047,1992
2038,2036,2054,2036,2048,2131,2055,2010
2042,2039,2054,2042,2048,2135,2058,2013
2044,2036,2057,2036,2034,2106,2076,2018
2047,2043,2071,2042,2017,2027,2058,2016
2045,2051,2072,2042,2013,1995,2054,2022
2045,2055,2070,2046,2011,2024,2050,2032
2045,2050,2066,2047,2015,2051,2052,2030
2040,2045,2059,2044,2028,2080,2053,2044
2034,2038,2052,2039,2023,2110,2069,2047
2030,2036,2047,2035,1994,2113,2067,2054
2040,2038,2038,2028,1992,2069,2066,2066
2042,2034,2031,2020,1982,1999,2036,2059
2029,2024,2026,2020,1987,1982,2034,2060
2032,2028,2033,2022,1990,1995,2021,2059
2036,2038,2025,2012,1990,2021,2026,2062
2035,2041,2020,2017,2013,2036,2026,2060
2035,2038,2021,2032,2024,2042,2041,2064
2041,2043,2021,2032,2037,2049,2048,2057
2038,2040,2020,2027,2049,2052,2039,2037
2030,2028,2012,2016,2048,2058,2042,2020
2026,2026,2007,2033,2115,2093,2054,2020
2030,2031,2018,2048,2158,2105,2047,2017
2033,2027,2017,2051,2145,2103,2041,2015
2033,2024,2007,2037,2112,2101,2042,2004
2032,2014,2002,2042,2093,2085,2032,1999
2029,2009,1994,2034,2070,2063,2016,1999
2024,2008,1998,2033,2057,2062,2015,2002
2018,2012,2010,2031,2060,2080,2024,1988
2020,2011,2008,2034,2065,2081,2031,1993
2015,2016,2017,2036,2070,2087,2044,1983
2028,2030,2026,2047,2084,2072,2054,1988
2032,2032,2035,2046,2073,2025,2051,1993
2022,2038,2039,2047,2061,2002,2036,1986
2029,2031,2047,2046,2067,2008,2047,1994
2038,2038,2047,2044,2077,2027,2033,2010
2049,2052,2057,2050,2088,2047,2044,2024
2059,2063,2068,2046,2085,2060,2049,2030
2053,2072,2078,2056,2094,2065,2060,2032
2056,2079,2077,2056,2115,2074,2060,2042
2061,2073,2082,2061,2112,2070,2072,2048
2054,2067,2087,2062,2112,2070,2065,2053
2048,2065,2084,2059,2104,2059,2069,2058
2043,2062,2075,2057,2091,2060,2068,2067
2049,2060,2071,2058,2106,2058,2071,2073
2048,2060,2074,2057,2109,2060,2063,2064
2035,2048,2065,2054,2094,2059,2069,2067
2035,2045,2064,2046,2081,2051,2066,2076
2036,2048,2073,2048,2025,2043,2059,2068
2036,2046,2073,2031,1959,2052,2060,2061
2036,2068,2084,2047,1996,2058,2067,2063
2043,2067,2087,2054,2022,2056,2053,2050
2046,2070,2091,2065,2039,2070,2050,2041
2045,2066,2081,2064,2059,2072,2072,2034
2044,2064,2078,2059,2056,2070,2053,2030
2043,2062,2081,2050,2048,2082,2042,2025
2047,2066,2083,2054,2046,2092,2039,2015
2048,2067,2086,2057,2039,2083,2015,2011
2048,2061,2081,2047,2031,2045,2012,2016
2047,2060,2078,2034,2015,2024,2035,2001
2040,2056,2065,2021,2008,2014,2042,1991
2041,2046,2058,2019,1998,2034,2050,1991
2041,2037,2045,2018,2002,2049,2046,1980
2037,2029,2046,2024,2017,2055,2051,1989
2043,2044,2060,2043,2038,2052,2043,2005
2050,2053,2072,2056,2055,2021,2041,2005
2051,2058,2079,2053,2074,1981,2031,2007
2060,2062,2079,2048,2084,2001,2040,2007
2065,2062,2071,2051,2123,2040,2074,2007
2060,2058,2062,2054,2167,2069,2050,2000
2057,2061,2064,2056,2185,2082,2062,2004
2050,2060,2066,2052,2160,2083,2060,2007
2044,2052,2064,2056,2125,2068,2028,2007
2042,2051,2055,2060,2130,2044,2003,2011
2035,2049,2051,2053,2076,2030,2014,2026
2036,2044,2049,2039,1978,2067,2031,2048
2040,2046,2051,2042,2000,2113,2063,2055
2048,2047,2049,2048,2018,2132,2065,2059
2044,2040,2046,2051,2018,2133,2051,2062
2043,2037,2034,2043,2035,2087,2039,2062
2037,2036,2040,2047,2053,2029,2029,2076
2039,2044,2044,2045,2032,2028,2041,2076
2042,2045,2043,2036,2034,2053,2040,2073
2043,2049,2052,2047,2078,2059,2040,2073
2045,2056,2055,2048,2074,1996,2041,2065
2046,2053,2056,2044,2062,2011,2050,2056
2053,2054,2066,2040,2058,2046,2050,2053
2055,2057,2065,2046,2053,2076,2051,2038
2053,2052,2060,2038,2038,2043,2030,2014
2041,2037,2049,2030,2022,2014,2018,2002
2032,2037,2044,2034,2020,2016,2026,2001
2037,2044,2043,2032,2031,2026,2036,1998
2044,2048,2051,2042,2033,2027,2040,2004
2046,2050,2047,2039,2045,2028,2043,2009
2063,2049,2046,2050,2060,2062,2059,2011
2064,2048,2041,2039,2039,2104,2042,1999
2040,2031,2032,2020,1999,2107,2036,1981
2026,2022,2025,2013,1981,2095,2019,1977
2025,2018,2020,1999,1968,2065,2005,1982
2026,2015,2014,1997,1967,2017,2024,1987
2029,2024,2029,2019,2021,1979,2047,2004
2036,2029,2048,2041,2095,2017,2074,2014
2044,2049,2062,2059,2134,2060,2084,2018
2045,2061,2060,2071,2164,2114,2097,2036
2053,2056,2058,2067,2160,2144,2089,2036
2050,2055,2060,2063,2129,2118,2060,2039
2054,2050,2048,2058,2092,2090,2053,2042
2054,2046,2046,2057,2074,2085,2055,2043
2052,2044,2049,2058,2068,2063,2051,2041
2042,2039,2044,2045,2045,2034,2036,2048
2033,2041,2045,2027,2010,2013,2033,2058
2038,2036,2038,2025,1997,1996,2028,2060
2037,2027,2028,2017,1992,1992,2037,2052
2020,2010,2021,2013,2020,2006,2030,2053
2031,2025,2036,2041,2068,2032,2030,2067
2041,2043,2056,2067,2088,2047,2031,2065
2037,2043,2054,2056,2076,2044,2027,2064
2044,2038,2043,2050,2075,2048,2034,2055
2044,2036,2039,2044,2069,2052,2039,2054
2037,2034,2039,2038,2057,2057,2058,2044
2043,2040,2046,2041,2073,2054,2054,2037
2042,2041,2045,2044,2081,2060,2050,2030
2040,2037,2043,2050,2086,2064,2052,2025
2038,2035,2038,2046,2095,2067,2052,2016
2036,2035,2039,2046,2100,2074,2053,2006
2038,2029,2034,2053,2097,2065,2056,1999
2040,2036,2036,2049,2095,2056,2063,2002
2042,2042,2039,2047,2089,2048,2064,1999
2050,2046,2038,2050,2080,2049,2072,2004
2053,2044,2032,2037,2050,2050,2067,2005
2047,2032,2030,2034,2009,2044,2056,2008
2052,2030,2028,2030,2042,2051,2060,2012
2055,2038,2027,2032,2051,2040,2046,2016
2056,2031,2029,2031,2048,2050,2045,2019
2050,2043,2051,2050,2052,2062,2038,2013
2055,2050,2061,2054,2062,2078,2050,2016
2053,2049,2054,2052,2068,2097,2053,2020
2052,2048,2055,2053,2062,2125,2060,2026
2052,2041,2053,2057,2064,2140,2059,2034
2043,2037,2052,2061,2078,2127,2044,2036
2038,2039,2054,2066,2081,2023,2020,2026
2037,2037,2058,2063,2066,1970,2009,2026
2031,2040,2062,2065,2077,2030,2027,2032
2029,2034,2067,2066,2085,2096,2017,2040
2025,2030,2066,2071,2087,2109,2021,2048
2020,2034,2063,2068,2084,2106,2016,2056
2023,2026,2053,2053,2064,2100,2043,2065
2022,2027,2044,2049,2041,2075,2044,2077
2034,2032,2050,2045,2010,2013,2049,2072
2037,2035,2043,2037,1998,1990,2051,2072
2034,2028,2040,2021,1994,2004,2047,2060
2034,2033,2036,2020,2004,2026,2046,2055
2040,2051,2046,2039,2024,2045,2048,2056
2051,2055,2056,2041,2048,2041,2049,2057
2058,2053,2061,2060,2067,2055,2033,2046
2060,2053,2054,2056,2051,2052,2038,2032
2054,2050,2047,2046,2014,2031,2049,2015
2050,2055,2041,2031,1986,2010,2052,2010
2051,2053,2035,2018,1953,1985,2026,2003
2043,2048,2027,2009,1958,2012,2003,1991
2042,2045,2019,2010,2000,2038,2034,1986
2037,2034,2012,2002,2025,2044,2041,1986
2034,2044,2017,2009,2047,2045,2039,1981
2035,2035,2022,2024,2065,2011,2038,1987
2027,2032,2021,2039,2105,1981,2052,1996
2038,2043,2028,2053,2137,2010,2063,1998
2035,2045,2030,2053,2135,2042,2062,2004
2043,2047,2034,2058,2112,2049,2059,2002
2043,2054,2040,2063,2096,2053,2056,2010
2047,2045,2044,2060,2086,2058,2060,2012
2042,2039,2045,2059,2089,2070,2039,2011
2038,2031,2044,2062,2089,2090,2069,2018
2037,2033,2043,2055,2083,2114,2067,2024
2031,2027,2044,2047,2070,2119,2070,2030
2035,2030,2045,2037,2041,2091,2084,2041
2036,2027,2043,2042,2049,2073,2074,2054
2037,2026,2046,2043,2055,2057,2063,2068
2038,2040,2058,2052,2069,2053,2068,2084
2040,2042,2057,2060,2085,2037,2059,2082
2038,2045,2055,2057,2072,2021,2040,2079
2030,2032,2038,2046,2062,2018,2040,2082
2025,2033,2040,2050,2053,2023,2039,2083
2046,2046,2048,2050,2038,2013,2035,2072
2044,2052,2049,2052,2048,2024,2035,2059
2046,2050,2042,2044,2043,2050,2029,2042
2028,2043,2032,2031,2045,2064,2016,2026
2030,2038,2039,2041,2064,2071,2027,2017
2035,2041,2041,2037,2055,2059,2007,2012
2031,2045,2037,2041,2051,2058,2027,2005
2038,2049,2044,2050,2060,2055,2032,1993
2038,2054,2043,2061,2100,2053,2050,1983
2037,2052,2045,2068,2123,2043,2042,1969
2034,2047,2042,2061,2112,2045,2031,1962
2024,2045,2042,2055,2101,2059,2032,1964
2033,2047,2044,2058,2096,2063,2026,1979
2039,2056,2054,2060,2101,2066,2039,1992
2043,2047,2043,2057,2093,2070,2070,2005
2045,2044,2043,2051,2077,2079,2089,2024
2057,2057,2056,2045,2052,2076,2078,2036
2057,2055,2051,2034,2018,2061,2080,2038
2050,2060,2054,2038,2019,2060,2076,2051
2065,2058,2054,2051,2045,2060,2076,2055
2068,2056,2053,2050,2043,2064,2072,2055
2066,2059,2052,2052,2049,2069,2063,2056
2061,2059,2054,2055,2064,2077,2069,2054
2057,2055,2057,2053,2068,2086,2071,2066
2057,2048,2049,2060,2073,2087,2069,2060
2053,2049,2050,2056,2072,2083,2062,2057
2053,2047,2054,2053,2070,2067,2049,2050
2053,2050,2049,2058,2064,2051,2058,2058
2054,2040,2047,2056,2080,2073,2071,2070
2050,2040,2043,2055,2086,2079,2054,2069
2044,2043,2047,2055,2064,2058,2035,2068
2035,2035,2044,2047,2054,2046,2017,2072
2036,2036,2039,2047,2058,2026,2013,2072
2035,2035,2042,2047,2056,2018,2009,2063
2028,2034,2043,2046,2048,2019,2012,2067
2032,2044,2039,2049,2044,2017,2020,2070
2040,2044,2042,2042,2045,2026,2040,2066
2045,2042,2043,2044,2044,2032,2032,2066
2050,2052,2042,2045,2042,2034,2041,2056
2060,2045,2047,2041,2046,2040,2062,2055
2055,2045,2048,2046,2044,2038,2058,2045
2054,2047,2048,2047,2049,2037,2059,2026
2048,2045,2045,2051,2050,2036,2044,2020
2047,2042,2046,2052,2058,2051,2066,2020
2047,2036,2038,2050,2060,2059,2039,2015
2037,2034,2036,2051,2056,2047,2048,2012
2043,2040,2044,2045,2052,2034,2036,2003
2035,2040,2033,2036,2033,2016,2033,1998
2036,2037,2031,2036,2040,2019,2031,2002
2046,2048,2040,2048,2050,2046,2038,2005
2057,2047,2038,2050,2049,2067,2052,2021
2063,2049,2047,2049,2054,2077,2052,2026
2058,2051,2042,2052,2057,2076,2034,2029
2058,2055,2054,2048,2046,2071,2053,2024
2060,2053,2051,2053,2026,2062,2053,2038
2062,2053,2050,2056,2052,2059,2032,2046
2060,2062,2050,2059,2068,2053,2048,2053
2057,2054,2045,2053,2067,2048,2057,2061
2061,2058,2042,2056,2066,2045,2043,2072
2062,2057,2039,2059,2044,2042,2058,2077
2056,2054,2043,2063,2044,2044,2048,2084
2059,2058,2050,2060,2050,2040,2050,2097
2060,2055,2044,2055,2030,2025,2051,2092
2058,2052,2033,2041,1994,2002,2046,2092
2044,2047,2040,2040,2041,2023,2041,2098
2051,2052,2045,2044,2039,2055,2052,2094
2051,2054,2050,2045,2023,2069,2063,2088
2056,2047,2046,2046,2018,2081,2063,2084
2056,2057,2051,2048,2023,2086,2055,2076
2050,2055,2050,2050,2024,2065,2046,2073
2051,2055,2052,2058,2037,2036,2048,2067
2054,2057,2048,2054,2050,2040,2054,2054
2050,2053,2046,2056,2054,2050,2058,2045
2044,2048,2047,2056,2058,2051,2047,2041
2050,2051,2049,2065,2074,2063,2046,2031
2048,2056,2054,2064,2068,2068,2060,2029
2046,2059,2052,2062,2075,2073,2055,2026
2044,2046,2042,2048,2073,2061,2052,2020
2040,2037,2035,2040,2076,2052,2054,2012
2036,2041,2035,2041,2073,2049,2046,2014
2039,2038,2030,2041,2047,2061,2056,2001
2034,2036,2032,2038,2047,2068,2062,2012
2043,2041,2037,2042,2047,2080,2059,2013
2047,2045,2047,2036,2036,2075,2073,2012
2045,2037,2049,2045,2036,2052,2065,2029
2052,2050,2053,2054,2039,2021,2063,2032
2053,2051,2058,2060,2042,2026,2047,2034
2056,2053,2059,2060,2048,2029,2045,2033
2057,2051,2055,2060,2085,2037,2056,2030
2052,2046,2048,2058,2110,2026,2060,2031
2052,2051,2045,2052,2122,2024,2062,2038
2057,2056,2050,2060,2129,2035,2070,2052
2054,2052,2048,2058,2141,2037,2051,2068
2058,2054,2051,2057,2132,2041,2038,2081
2054,2062,2054,2061,2113,2043,2066,2090
2055,2056,2054,2055,2090,2046,2063,2089
2052,2051,2052,2053,2064,2037,2064,2080
2051,2042,2040,2037,1950,2026,2044,2082
2042,2042,2034,2023,1929,2028,2057,2087
2041,2051,2039,2030,1971,2038,2060,2085
2047,2048,2043,2032,1987,2036,2052,2082
2044,2051,2040,2031,1994,2046,2056,2082
2055,2052,2046,2043,2015,2052,2054,2078
2058,2054,2044,2049,2041,2058,2058,2064
2056,2052,2045,2040,2041,2074,2044,2053
2050,2044,2040,2034,2025,2083,2038,2038
2047,2045,2040,2031,2017,2077,2044,2030
2052,2043,2038,2032,2004,2072,2029,2028
2050,2040,2034,2032,2001,2018,2022,2031
2053,2041,2041,2039,2012,1951,2041,2050
2058,2043,2046,2050,2058,1953,2054,2045
2061,2048,2053,2063,2093,1992,2074,2050
2062,2048,2052,2060,2093,1998,2076,2032
2057,2049,2047,2047,2059,1982,2057,2021
2051,2042,2042,2036,1995,1978,2062,2012
2050,2044,2052,2035,1967,1985,2062,2017
2056,2044,2056,2042,1983,1996,2071,2014
2050,2046,2052,2054,2005,2017,2055,1999
2053,2051,2052,2064,2036,2041,2052,2003
2050,2049,2051,2065,2045,2040,2061,2007
2049,2053,2052,2062,2045,2048,2061,2024
2056,2053,2049,2067,2084,2056,2065,2040
2058,2054,2050,2078,2104,2053,2075,2044
2063,2056,2054,2086,2130,2071,2078,2051
2052,2056,2052,2090,2163,2070,2063,2052
2056,2054,2051,2082,2179,2077,2070,2058
2057,2053,2050,2077,2171,2089,2070,2069
2054,2047,2049,2076,2165,2102,2073,2080
2054,2048,2047,2068,2102,2108,2081,2083
2051,2040,2046,2052,2032,2105,2064,2080
2047,2027,2027,2035,1987,2092,2056,2072
2040,2016,2022,2016,1917,2035,2048,2074
2044,2017,2022,2016,1907,2009,2040,2068
2036,2016,2024,2016,1932,2014,2019,2056
2021,2010,2027,2012,1935,2000,2012,2060
2035,2023,2043,2030,1980,1982,2031,2067
2055,2032,2048,2047,2011,2001,2045,2071
2051,2036,2049,2054,2035,2028,2032,2055
2052,2038,2035,2051,2049,2055,2055,2041
2037,2035,2039,2036,2055,2060,2048,2030
2039,2035,2030,2032,2081,2048,2040,2030
2040,2028,2032,2027,2051,2014,2023,2020
2037,2021,2025,2012,1999,1988,2029,2010
2030,2015,2020,2016,1981,1996,2022,2009
2033,2020,2022,2004,1983,2012,2035,2004
2037,2024,2020,2012,2012,2034,2035,2001
2046,2029,2031,2034,2054,2055,2046,2007
2050,2033,2038,2045,2077,2064,2047,2008
2054,2045,2056,2070,2111,2080,2064,2024
2069,2057,2064,2070,2122,2084,2049,2026
2057,2060,2058,2060,2094,2073,2033,2027
2047,2056,2052,2050,2073,2064,2055,2026
2052,2066,2063,2048,2080,2067,2052,2041
2056,2078,2071,2054,2086,2076,2068,2046
2059,2076,2069,2056,2082,2072,2076,2046
2059,2071,2066,2056,2085,2068,2078,2047
2058,2067,2059,2056,2082,2067,2076,2055
2055,2055,2049,2050,2079,2071,2080,2067
2048,2053,2048,2046,2078,2071,2078,2069
2049,2054,2046,2053,2071,2069,2085,2085
2047,2045,2043,2052,2076,2065,2084,2089
2041,2047,2042,2045,2072,2058,2071,2094
2047,2051,2052,2043,2060,2050,2060,2096
2041,2036,2033,2035,2044,2037,2049,2090
2038,2026,2025,2032,2037,2034,2056,2095
2049,2036,2037,2035,2033,2042,2048,2091
2049,2043,2037,2035,2049,2052,2059,2090
2052,2044,2037,2031,2053,2051,2055,2090
2049,2043,2037,2036,2060,2048,2060,2080
2048,2046,2044,2038,2046,2040,2055,2071
2051,2052,2050,2042,2040,2041,2057,2066
2051,2055,2055,2043,2029,2042,2059,2064
2047,2050,2058,2043,2039,2046,2060,2055
2046,2051,2054,2042,2037,2051,2052,2042
2047,2044,2054,2040,2034,2043,2032,2038
2048,2043,2059,2048,2035,2034,2030,2037
2052,2046,2063,2046,2039,2042,2027,2034
2050,2049,2061,2054,2048,2050,2048,2022
2057,2050,2054,2055,2054,2056,2065,2019
2050,2044,2050,2048,2041,2048,2043,2013
2040,2042,2041,2039,2039,2043,2031,2019
2046,2044,2051,2047,2058,2059,2029,2019
2041,2049,2051,2049,2063,2068,2026,2023
2049,2048,2054,2047,2065,2074,2036,2027
2044,2045,2056,2046,2066,2075,2055,2039
2048,2055,2045,2050,2068,2065,2058,2042
2050,2050,2046,2049,2064,2056,2046,2040
2046,2044,2043,2052,2057,2055,2045,2051
2045,2045,2038,2047,2053,2035,2033,2054
2042,2036,2029,2048,2045,2013,2043,2060
2038,2037,2020,2043,2049,2010,2052,2073
2040,2030,2019,2049,2052,2013,2056,2080
2037,2029,2026,2056,2061,2038,2072,2085
2038,2032,2029,2068,2079,2062,2069,2092
2042,2029,2024,2065,2068,2081,2076,2088
2031,2008,2013,2051,2036,2075,2066,2084
2027,2011,2021,2051,2018,2074,2052,2090
2031,2031,2035,2057,2003,2052,2051,2090
2046,2028,2039,2053,1980,2039,2064,2097
2047,2036,2042,2042,1978,2047,2058,2086
2051,2038,2044,2044,1997,2057,2066,2072
2051,2041,2045,2046,2023,2059,2030,2053
2054,2043,2052,2063,2037,2037,2043,2059
2062,2049,2050,2069,2075,2021,1997,2036
2053,2045,2052,2062,2101,1994,2000,2024
2040,2047,2054,2063,2102,1986,2013,2027
2038,2053,2058,2057,2098,1992,2021,2030
2048,2061,2051,2061,2081,2004,2026,2032
2052,2059,2045,2054,2066,2017,2042,2030
2047,2060,2036,2037,2046,2031,2036,2021
2047,2059,2031,2013,2024,2029,2034,2018
2034,2043,2027,2010,2024,2034,2027,2011
2037,2042,2039,2023,2032,2047,2029,2013
2045,2054,2059,2029,2039,2054,2030,2023
2050,2061,2067,2043,2039,2059,2053,2033
2049,2072,2078,2052,2035,2051,2057,2029
2048,2066,2079,2046,2016,2037,2049,2033
2046,2064,2078,2056,2022,2027,2042,2042
2045,2058,2091,2066,2037,2021,2051,2042
2052,2058,2097,2069,2038,2057,2050,2041
2045,2060,2091,2068,2025,2056,2058,2050
2047,2064,2094,2055,2001,2033,2043,2050
2046,2056,2082,2045,1980,2027,2035,2062
2044,2060,2076,2061,2034,2022,2049,2081
2041,2056,2072,2069,2064,1991,2040,2092
2039,2060,2072,2071,2096,2025,2066,2102
2048,2060,2078,2088,2114,2067,2074,2110
2042,2054,2073,2079,2094,2083,2077,2101
2043,2051,2068,2073,2078,2110,2065,2106
2050,2060,2060,2068,2070,2133,2046,2098
2050,2058,2055,2062,2046,2133,2022,2087
2040,2053,2045,2053,2021,2077,2025,2076
2040,2054,2048,2046,2008,1970,2031,2061
2040,2050,2048,2034,2001,1934,2008,2053
2039,2045,2040,2030,2017,1985,2033,2049
2040,2044,2039,2034,2057,2035,2041,2045
2042,2036,2037,2028,2072,2054,2046,2040
2043,2032,2033,2029,2084,2050,2051,2032
2045,2035,2033,2030,2082,2058,2048,2027
2047,2038,2029,2033,2078,2060,2041,2030
2055,2039,2039,2041,2076,2052,2064,2023
2053,2040,2041,2041,2076,2047,2051,2020
2048,2032,2034,2038,2078,2036,2040,2020
2038,2030,2035,2041,2080,2034,2047,2030
2048,2043,2050,2048,2089,2039,2059,2034
2061,2054,2061,2045,2065,2031,2044,2033
2057,2050,2055,2038,2023,2006,2052,2037
2063,2053,2056,2047,2031,2024,2061,2041
2064,2056,2050,2051,2049,2043,2047,2038
2060,2051,2046,2047,2046,2045,2047,2040
2055,2049,2048,2045,2055,2041,2036,2036
2048,2045,2051,2046,2050,2038,2042,2044
2051,2041,2046,2050,2050,2034,2049,2058
2047,2041,2046,2047,2052,2027,2044,2072
2053,2039,2041,2047,2046,2029,2040,2085
2048,2042,2044,2044,2044,2032,2038,2091
2050,2046,2048,2050,2056,2040,2053,2095
2051,2052,2050,2050,2055,2043,2048,2105
2049,2037,2039,2044,2034,2039,2044,2103
2046,2036,2043,2043,2029,2038,2057,2099
2051,2044,2042,2042,2025,2043,2059,2097
2043,2040,2038,2048,2021,2042,2031,2101
2046,2037,2034,2037,1996,2042,2035,2091
2044,2034,2033,2041,2018,2041,2035,2080
2050,2037,2040,2049,2041,2042,2041,2069
2058,2045,2037,2051,2043,2046,2056,2052
2059,2045,2039,2055,2047,2056,2060,2059
2066,2051,2047,2052,2030,2049,2046,2058
2072,2056,2043,2053,2026,2007,2024,2056
2079,2061,2043,2052,2041,1996,2042,2044
2075,2061,2053,2050,2027,1995,2036,2032
2077,2061,2056,2050,2026,2001,2054,2026
2064,2060,2060,2059,2056,2013,2069,2024
2066,2056,2064,2062,2097,2036,2075,2018
2055,2038,2046,2053,2125,2042,2073,2011
2049,2031,2039,2046,2123,2047,2070,2015
2052,2032,2038,2050,2125,2052,2075,2016
2053,2039,2041,2062,2123,2053,2073,2026
2059,2043,2037,2054,2099,2047,2050,2040
2060,2037,2033,2047,2072,2045,2024,2041
2064,2040,2036,2050,2046,2043,2041,2041
2064,2041,2040,2046,1983,2055,2047,2039
2063,2033,2037,2034,1879,2047,2039,2041
2057,2034,2038,2028,1895,2047,2033,2055
2060,2038,2043,2039,1954,2002,2028,2069
2063,2043,2043,2054,2005,1989,2032,2083
2063,2051,2042,2052,2057,2016,2022,2083
2054,2051,2042,2058,2067,2031,2041,2089
2050,2052,2036,2053,2057,2048,2044,2085
2051,2047,2024,2041,2048,2055,2034,2086
2043,2035,2012,2030,2042,2077,2035,2094
2047,2035,2022,2033,2043,2099,2061,2106
2055,2055,2034,2042,2033,2082,2062,2099
2059,2052,2041,2029,2002,2048,2050,2086
2055,2049,2043,2025,1985,2040,2052,2077
2049,2046,2044,2031,1991,2055,2036,2070
2055,2047,2051,2035,2001,2067,2051,2064
2050,2047,2049,2040,2002,2076,2048,2054
2058,2056,2059,2052,2015,2083,2054,2056
2060,2061,2068,2059,2035,2080,2043,2047
2052,2050,2060,2057,2056,2028,2039,2035
2042,2044,2060,2063,2065,2013,2043,2025
2050,2046,2067,2067,2064,2026,2050,2028
2047,2052,2069,2068,2066,2040,2040,2023
2042,2057,2069,2069,2050,2047,2037,2023
2052,2055,2065,2063,2032,2043,2039,2018
2051,2041,2052,2052,2029,2038,2050,2021
2050,2039,2053,2050,2033,2045,2054,2025
2057,2050,2055,2060,2036,2044,2028,2029
2057,2052,2059,2054,2041,2044,2032,2029
2053,2048,2058,2053,2035,2044,2038,2031
2051,2051,2055,2057,2036,2043,2039,2033
2049,2049,2052,2057,2048,2049,2048,2038
2051,2043,2053,2058,2057,2055,2051,2046
2046,2040,2039,2056,2060,2051,2063,2052
2054,2042,2046,2053,2058,2057,2059,2064
2056,2042,2047,2055,2056,2060,2045,2069
2045,2037,2047,2053,2056,2058,2057,2076
2052,2039,2040,2051,2053,2057,2058,2083
2044,2039,2038,2051,2054,2052,2044,2093
2047,2037,2041,2050,2049,2046,2047,2093
2047,2042,2039,2042,2038,2040,2034,2095
2043,2029,2030,2041,2031,2036,2025,2094
2044,2024,2028,2043,2039,2039,2042,2099
2048,2038,2039,2042,2038,2044,2036,2100
2055,2039,2038,2042,2036,2046,2037,2098
2054,2034,2039,2045,2036,2046,2053,2084
2052,2034,2034,2040,2035,2043,2052,2073
2045,2030,2032,2043,2032,2043,2040,2064
2049,2032,2036,2038,2036,2041,2044,2068
2041,2034,2035,2042,2036,2043,2024,2053
2051,2036,2037,2036,2030,2044,2030,2052
2053,2042,2036,2042,2034,2039,2038,2048
2053,2040,2039,2045,2030,2039,2042,2034
2058,2039,2037,2037,2033,2041,2042,2034
2056,2036,2033,2041,2040,2039,2044,2033
2052,2042,2034,2041,2036,2044,2046,2020
2053,2044,2026,2045,2033,2051,2040,2020
2052,2042,2024,2040,2036,2055,2034,2019
2047,2047,2033,2047,2032,2050,2038,2021
2050,2056,2052,2055,2039,2046,2053,2030
2056,2058,2053,2058,2050,2046,2052,2034
2060,2064,2056,2056,2050,2055,2052,2032
2056,2057,2054,2056,2049,2062,2065,2043
2055,2055,2052,2053,2056,2069,2072,2034
2049,2056,2047,2058,2065,2068,2084,2040
2062,2059,2045,2059,2068,2071,2090,2041
2056,2051,2044,2063,2068,2065,2098,2053
2054,2047,2042,2056,2060,2064,2108,2068
2061,2047,2042,2054,2057,2068,2104,2084
2055,2040,2043,2050,2056,2081,2089,2090
2059,2042,2038,2051,2047,2081,2089,2105
2064,2038,2039,2049,2023,2091,2098,2107
2059,2035,2044,2051,1991,2096,2072,2100
2054,2037,2044,2052,1976,2074,2057,2093
2056,2030,2040,2039,1945,2029,2042,2088
2048,2033,2046,2033,1929,1998,2033,2087
2057,2040,2050,2042,1940,1980,2036,2082
2059,2046,2059,2041,1973,1948,2028,2074
2056,2046,2058,2047,2016,1969,2027,2081
2062,2057,2071,2059,2038,1998,2027,2084
2068,2057,2080,2067,2049,2016,2046,2079
2064,2060,2074,2064,2090,2039,2040,2063
2057,2063,2066,2060,2103,2050,2037,2048
2058,2055,2059,2046,2071,2040,2042,2029
2042,2052,2051,2035,2025,2029,2053,2019
2044,2041,2045,2030,2014,2032,2025,2017
2038,2036,2039,2030,2045,2034,2025,2016
2039,2030,2039,2036,2055,2042,2048,2015
2049,2035,2040,2033,2032,2046,2052,2020
2046,2035,2051,2044,2034,2059,2051,2008
2045,2041,2051,2046,2034,2062,2051,2007
2040,2036,2043,2038,2038,2064,2047,2001
2029,2044,2048,2041,2048,2090,2048,2007
2035,2052,2056,2052,2060,2104,2049,2011
2045,2057,2052,2057,2083,2113,2052,2012
2049,2052,2052,2070,2108,2103,2044,2020
2055,2056,2058,2071,2112,2065,2060,2033
2056,2055,2059,2070,2102,2053,2050,2036
2059,2052,2055,2063,2095,2069,2055,2039
2060,2058,2055,2062,2098,2079,2079,2047
2059,2061,2062,2065,2094,2079,2078,2066
2059,2069,2062,2075,2095,2061,2071,2069
2059,2070,2065,2077,2104,2043,2062,2066
2055,2062,2060,2074,2099,2006,2047,2066
2044,2050,2056,2059,2070,1976,2044,2068
2044,2047,2046,2056,2054,1987,2048,2076
2043,2047,2049,2048,2045,2020,2072,2091
2042,2040,2046,2041,2006,2022,2066,2097
2048,2034,2040,2028,1981,2020,2060,2097
2044,2040,2046,2029,1951,2023,2070,2103
2045,2041,2048,2030,1939,2020,2070,2099
2050,2048,2048,2032,1936,2022,2074,2098
2051,2054,2052,2036,1945,2030,2068,2094
2056,2061,2054,2054,2000,2058,2064,2089
2058,2063,2060,2064,2054,2069,2074,2075
2065,2067,2060,2069,2077,2074,2069,2076
2060,2066,2060,2067,2097,2086,2074,2064
2059,2055,2055,2067,2084,2074,2070,2058
2055,2047,2045,2063,2070,2047,2066,2047
2057,2045,2039,2063,2062,2031,2057,2039
2055,2043,2038,2064,2055,2013,2040,2030
2051,2039,2032,2054,2049,2020,2047,2031
2040,2039,2040,2055,2044,2031,2050,2024
2050,2046,2032,2049,2036,2031,2052,2022
2045,2035,2034,2046,2030,2028,2045,2021
2048,2029,2031,2044,2043,2038,2057,2021
2053,2039,2034,2054,2060,2043,2054,2022
2056,2038,2038,2063,2074,2045,2060,2024
2058,2039,2040,2057,2069,2043,2056,2037
2054,2046,2050,2054,2066,2040,2060,2039
2053,2042,2052,2058,2061,2045,2059,2049
2056,2048,2053,2058,2062,2046,2064,2052
2061,2046,2045,2055,2058,2048,2064,2050
2050,2046,2045,2052,2059,2048,2058,2061
2057,2051,2051,2056,2061,2056,2071,2064
2064,2050,2052,2056,2067,2054,2060,2077
2061,2047,2049,2058,2064,2054,2063,2089
2060,2051,2053,2056,2058,2045,2062,2087
2062,2051,2042,2053,2056,2046,2066,2093
2057,2047,2035,2050,2054,2045,2050,2101
2050,2030,2028,2038,2041,2036,2039,2094
2042,2017,2023,2042,2047,2037,2054,2094
2042,2019,2028,2049,2053,2045,2050,2097
2052,2032,2034,2053,2060,2050,2062,2099
2052,2041,2042,2058,2055,2052,2057,2099
2056,2042,2044,2052,2048,2048,2050,2089
2054,2039,2049,2058,2049,2044,2025,2078
2045,2036,2053,2057,2044,2038,2021,2056
2037,2036,2053,2058,2047,2045,2032,2051
2041,2035,2052,2062,2048,2050,2037,2050
2046,2041,2051,2057,2054,2040,2042,2052
2046,2046,2055,2060,2056,2047,2015,2050
2052,2042,2057,2057,2049,2054,2035,2055
2055,2047,2068,2057,2053,2061,2057,2047
2060,2050,2066,2062,2058,2065,2058,2038
2066,2050,2063,2051,2044,2052,2043,2033
2066,2046,2058,2048,2033,2034,2033,2025
2059,2035,2048,2042,2019,2018,2035,2007
2052,2031,2038,2034,1995,2031,2048,2017
2051,2041,2050,2045,2034,2049,2063,2012
2051,2042,2047,2046,2063,2066,2072,2017
2057,2045,2050,2054,2074,2074,2090,2020
2051,2048,2060,2070,2069,2039,2073,2038
2056,2054,2070,2079,2052,2023,2067,2045
2065,2060,2074,2078,2058,2027,2070,2053
2063,2068,2075,2074,2028,2028,2070,2055
2062,2059,2065,2049,1975,2028,2074,2055
2060,2051,2061,2025,1981,2036,2062,2058
2056,2052,2064,2035,2039,2054,2072,2066
2062,2055,2065,2053,2051,2054,2069,2071
2059,2047,2058,2048,2045,2047,2057,2085
2059,2045,2053,2039,2033,2039,2065,2092
2053,2043,2053,2045,2053,2040,2069,2101
2051,2028,2037,2035,2074,2038,2057,2104
2053,2035,2035,2038,2081,2035,2063,2103
2057,2054,2040,2042,2072,2037,2064,2098
2054,2054,2038,2049,2063,2040,2059,2100
2058,2047,2038,2041,2062,2030,2062,2086
2059,2045,2040,2041,2097,2038,2057,2081
2049,2052,2040,2042,2112,2046,2061,2081
2053,2050,2049,2049,2110,2049,2064,2075
2051,2060,2053,2050,2100,2058,2060,2064
2056,2064,2061,2051,2104,2063,2044,2042
2057,2058,2058,2054,2104,2086,2033,2038
2057,2056,2065,2056,2085,2108,2035,2031
2047,2049,2062,2042,2042,2123,2051,2029
2045,2044,2064,2029,1916,2090,2038,2025
2050,2043,2056,2017,1880,2044,2029,2026
2050,2043,2058,2020,1940,2004,2028,2022
2046,2035,2049,2028,1988,2001,2024,2014
2043,2039,2045,2039,2025,2035,2037,2021
2054,2053,2051,2056,2061,2058,2064,2028
2058,2053,2054,2057,2060,2050,2049,2030
2053,2054,2054,2054,2051,2040,2060,2034
2049,2052,2056,2055,2041,2029,2028,2034
2052,2050,2059,2052,2032,2032,2026,2037
2055,2050,2057,2050,2042,2033,2010,2044
2057,2048,2057,2058,2047,2050,2048,2047
2057,2048,2056,2060,2049,2054,2055,2054
2056,2046,2060,2053,2052,2053,2038,2065
