CH1,CH2,CH3,CH4,CH5,CH6,CH7,CH8
2048,2044,2047,2046,2119,2056,2056,2017
2052,2048,2040,2056,2121,2055,2071,2016
2051,2047,2040,2059,2120,2054,2058,2021
2063,2052,2049,2063,2112,2056,2057,2028
2074,2063,2059,2071,2113,2054,2049,2024
2071,2073,2065,2080,2117,2056,2069,2037
2081,2070,2067,2085,2085,2052,2061,2044
2068,2062,2061,2062,1982,2028,2045,2046
2061,2049,2045,2036,1842,2006,2039,2046
2056,2035,2046,2040,1905,2023,2048,2055
2053,2042,2065,2063,1996,2038,2056,2060
2058,2054,2095,2077,2047,2053,2063,2074
2060,2070,2114,2090,2068,2066,2059,2081
2048,2066,2109,2083,2068,2065,2065,2080
2041,2064,2095,2081,2067,2062,2055,2084
2033,2049,2075,2069,2037,2050,2068,2084
2038,2046,2066,2070,2015,2048,2064,2093
2050,2059,2065,2077,2014,2046,2055,2090
2056,2064,2066,2067,2017,2041,2050,2077
2041,2057,2050,2044,2013,2027,2037,2067
2046,2053,2048,2036,1991,2024,2044,2058
2049,2052,2055,2041,2009,2033,2039,2051
2044,2052,2048,2035,2005,2028,2034,2038
2041,2055,2042,2023,1991,2026,2042,2028
2041,2056,2040,2027,2006,2040,2040,2032
2040,2047,2039,2037,2064,2053,2045,2033
2040,2049,2039,2055,2090,2055,2043,2028
2047,2049,2046,2061,2084,2054,2046,2022
2051,2049,2046,2067,2075,2058,2059,2029
2050,2049,2040,2051,2067,2059,2062,2027
2052,2051,2037,2044,2053,2053,2065,2020
2044,2037,2031,2038,2049,2041,2047,2011
2039,2031,2028,2035,2049,2038,2052,2013
2046,2042,2040,2043,2057,2046,2052,2010
2046,2046,2048,2039,2052,2052,2049,2016
2050,2052,2050,2037,2031,2051,2061,2019
2051,2054,2054,2045,2039,2056,2065,2036
2051,2057,2057,2051,2048,2055,2062,2036
2054,2061,2063,2055,2049,2056,2070,2043
2055,2059,2061,2057,2054,2056,2064,2045
2050,2061,2062,2053,2054,2051,2061,2043
2045,2054,2055,2039,2052,2048,2056,2055
2051,2050,2050,2043,2047,2040,2063,2065
2053,2044,2042,2047,2052,2038,2059,2081
2058,2033,2035,2038,2049,2045,2057,2083
2053,2028,2030,2029,2049,2046,2063,2085
2044,2021,2028,2031,2044,2050,2066,2078
2039,2013,2012,2022,2042,2037,2029,2076
2031,2015,2016,2026,2043,2039,2040,2073
2025,2020,2016,2030,2045,2044,2054,2074
2027,2022,2016,2027,2046,2044,2030,2076
2032,2027,2030,2039,2043,2044,2046,2074
2037,2041,2048,2046,2043,2049,2054,2064
2042,2048,2051,2049,2037,2042,2051,2057
2044,2047,2055,2048,2036,2044,2027,2043
2039,2047,2055,2046,2039,2044,2051,2024
2037,2042,2061,2059,2041,2047,2044,2025
2034,2038,2049,2064,2042,2050,2052,2028
2049,2039,2044,2062,2038,2046,2057,2026
2047,2043,2041,2061,2045,2048,2061,2029
2048,2053,2047,2069,2050,2046,2042,2015
2054,2059,2060,2073,2046,2046,2081,2023
2053,2061,2077,2074,2049,2042,2057,2019
2047,2053,2069,2063,2043,2034,2044,2017
2047,2053,2070,2062,2036,2040,2046,2015
2049,2071,2075,2069,2050,2057,2057,2020
2055,2073,2078,2073,2039,2053,2070,2022
2049,2068,2073,2072,2035,2046,2075,2023
2056,2057,2063,2062,2036,2050,2067,2026
2060,2048,2059,2060,2034,2048,2047,2026
2053,2046,2064,2057,2034,2047,2064,2028
2049,2049,2067,2051,2033,2042,2053,2030
2050,2055,2073,2043,2030,2043,2051,2036
2047,2055,2076,2037,2035,2042,2057,2052
2052,2055,2058,2038,2036,2049,2055,2056
2047,2053,2050,2039,2046,2052,2059,2066
2051,2054,2046,2041,2064,2059,2063,2075
2055,2058,2045,2052,2083,2066,2070,2080
2048,2046,2039,2050,2085,2059,2061,2079
2045,2034,2027,2047,2058,2037,2045,2070
2034,2024,2017,2045,2036,2036,2041,2070
2028,2032,2023,2052,2037,2049,2043,2079
2043,2045,2041,2064,2054,2053,2047,2072
2042,2037,2027,2058,2058,2052,2053,2073
2038,2037,2022,2059,2070,2062,2039,2063
2049,2037,2033,2065,2078,2071,2054,2057
2060,2054,2046,2066,2078,2069,2069,2048
2058,2049,2044,2068,2079,2062,2064,2044
2047,2042,2037,2065,2080,2064,2040,2034
2047,2040,2035,2072,2104,2073,2052,2030
2049,2039,2048,2087,2136,2080,2057,2035
2045,2041,2061,2077,2101,2070,2060,2020
2044,2035,2064,2070,2091,2068,2054,2005
2031,2038,2071,2070,2093,2061,2055,2013
2037,2040,2080,2067,2088,2050,2055,2018
2042,2035,2078,2064,2073,2033,2048,2012
2044,2042,2087,2073,2062,2032,2038,2018
2048,2047,2100,2094,2017,2041,2049,2035
2063,2070,2112,2098,2016,2043,2055,2030
2070,2069,2102,2085,1970,2039,2061,2027
2064,2062,2090,2071,1932,2035,2060,2022
2063,2059,2068,2082,1972,2047,2067,2032
2053,2047,2047,2077,1981,2044,2050,2030
2052,2033,2034,2055,1985,2034,2046,2042
2050,2036,2025,2034,1994,2034,2036,2041
2043,2038,2044,2022,2002,2025,2043,2046
2048,2047,2072,2023,1982,2018,2050,2054
2048,2055,2086,2050,2056,2038,2061,2069
2055,2049,2078,2064,2071,2050,2066,2085
2053,2052,2062,2067,2050,2053,2059,2088
2055,2050,2048,2063,2030,2045,2034,2091
2048,2044,2043,2063,2027,2049,2032,2086
2049,2026,2024,2056,2015,2041,2043,2085
2054,2033,2020,2049,2015,2041,2053,2085
2064,2044,2030,2060,2011,2032,2053,2077
2047,2037,2027,2053,2008,2035,2052,2077
2040,2031,2024,2030,1998,2034,2045,2065
2046,2026,2032,2015,1980,2030,2051,2066
2053,2039,2041,2007,1966,2036,2028,2064
2048,2043,2050,1997,1989,2035,2025,2057
2046,2041,2052,1995,2020,2039,2011,2054
2045,2043,2034,1990,2021,2056,2034,2042
2050,2052,2034,2009,2033,2059,2032,2033
2057,2060,2027,2017,2017,2051,2043,2033
2054,2058,2030,2019,2006,2040,2039,2021
2052,2054,2037,2025,2003,2029,2038,2010
2050,2054,2044,2036,1994,2033,2035,2011
2049,2059,2061,2040,1988,2036,2046,2014
2050,2061,2065,2040,1980,2023,2034,2016
2048,2046,2058,2051,1997,2037,2036,2012
2047,2041,2054,2066,2052,2060,2047,2028
2058,2056,2054,2075,2067,2064,2055,2022
2051,2054,2051,2064,2067,2048,2040,2025
2046,2051,2045,2051,2046,2030,2033,2020
2044,2041,2041,2046,2061,2033,2034,2026
2045,2049,2056,2065,2119,2054,2038,2030
2052,2053,2065,2068,2136,2078,2049,2033
2055,2051,2063,2060,2113,2080,2042,2036
2047,2047,2058,2044,2087,2080,2040,2044
2050,2055,2061,2053,2097,2081,2050,2058
2049,2054,2056,2051,2116,2071,2024,2066
2049,2049,2059,2050,2128,2050,2028,2074
2048,2044,2060,2055,2103,2029,2034,2079
2049,2037,2060,2035,2035,2021,2026,2077
2038,2035,2055,2026,1960,2022,2032,2068
2029,2029,2040,2027,2020,2034,2039,2074
2034,2026,2041,2038,2082,2043,2053,2080
2036,2038,2046,2049,2121,2048,2038,2092
2038,2040,2043,2054,2125,2054,2044,2092
2052,2040,2046,2060,2133,2059,2044,2072
2044,2045,2045,2058,2130,2062,2047,2046
2028,2038,2032,2047,2111,2055,2031,2040
2023,2028,2018,2037,2092,2063,2047,2037
2021,2025,2016,2042,2062,2059,2044,2032
2028,2036,2018,2037,1964,2051,2057,2036
2045,2046,2017,2039,1962,2060,2057,2034
2050,2052,2021,2047,2021,2077,2057,2034
2047,2051,2018,2054,2047,2081,2072,2020
2042,2037,2012,2046,2039,2068,2077,2016
2032,2030,2005,2033,2032,2058,2068,2012
2033,2021,2009,2029,2021,2034,2056,2001
2022,2008,2004,2026,2019,2026,2049,1991
2019,2007,2014,2032,2020,2036,2077,2005
2035,2030,2032,2046,2035,2043,2088,2010
2035,2035,2034,2046,2035,2050,2080,2014
2040,2039,2020,2049,2035,2052,2074,2023
2045,2034,2014,2048,2040,2050,2056,2032
2053,2042,2023,2050,2044,2057,2074,2033
2053,2049,2026,2046,2032,2045,2086,2037
2049,2051,2040,2048,2020,2038,2058,2045
2042,2052,2058,2047,2028,2044,2047,2045
2044,2052,2074,2041,2024,2035,2070,2051
2048,2054,2082,2046,2028,2033,2046,2056
2042,2045,2077,2050,2043,2028,2060,2063
2040,2043,2072,2058,2053,2022,2058,2068
2040,2046,2064,2067,2063,2020,2032,2070
2037,2051,2072,2071,2073,2035,2052,2084
2036,2047,2057,2060,2063,2031,2045,2082
2032,2038,2059,2065,2067,2036,2052,2082
2034,2045,2078,2078,2074,2051,2058,2073
2036,2045,2083,2083,2071,2053,2059,2068
2033,2042,2075,2079,2047,2056,2068,2067
2039,2042,2069,2070,2037,2055,2057,2059
2036,2039,2063,2063,2037,2050,2050,2052
2046,2039,2057,2054,2010,2034,2048,2040
2036,2031,2048,2049,2002,2033,2050,2034
2039,2031,2052,2042,2012,2038,2050,2034
2056,2043,2058,2049,2024,2040,2057,2039
2065,2053,2055,2052,2032,2042,2069,2036
2064,2056,2052,2049,2033,2047,2052,2031
2062,2048,2055,2050,2048,2044,2056,2034
2060,2049,2056,2041,2059,2044,2057,2035
2050,2037,2052,2040,2065,2048,2050,2026
2036,2028,2045,2036,2055,2038,2035,2008
2026,2021,2035,2029,2046,2032,2043,2014
2043,2044,2042,2036,2054,2042,2060,2021
2063,2061,2052,2042,2061,2046,2056,2021
2062,2064,2051,2052,2059,2048,2045,2026
2047,2061,2049,2052,2059,2043,2043,2025
2051,2064,2047,2051,2062,2054,2044,2035
2047,2062,2046,2060,2067,2060,2049,2044
2049,2052,2041,2062,2071,2060,2046,2044
2043,2055,2030,2059,2062,2056,2060,2047
2045,2048,2029,2055,2061,2056,2064,2053
2043,2042,2025,2053,2061,2055,2058,2056
2043,2037,2026,2062,2070,2059,2068,2070
2039,2032,2016,2053,2071,2068,2071,2074
2035,2037,2007,2056,2072,2063,2059,2082
2035,2031,2002,2056,2067,2061,2058,2078
2032,2020,2005,2054,2058,2050,2039,2068
2029,2005,1995,2041,2050,2044,2039,2077
2021,2017,2014,2046,2052,2043,2046,2079
2035,2026,2017,2042,2049,2045,2059,2082
2041,2038,2028,2050,2046,2051,2062,2077
2038,2040,2035,2045,2042,2055,2059,2070
2050,2044,2029,2049,2061,2058,2058,2062
2048,2039,2028,2052,2059,2051,2058,2052
2045,2034,2022,2049,2054,2053,2049,2042
2039,2028,2015,2050,2052,2049,2055,2033
2042,2026,2008,2049,2049,2055,2055,2025
2044,2020,2023,2047,2047,2054,2056,2029
2041,2026,2036,2040,2026,2036,2054,2029
2037,2030,2060,2033,2017,2034,2044,2029
2046,2043,2083,2047,2014,2030,2042,2024
2057,2065,2117,2062,2019,2025,2046,2026
2055,2065,2104,2050,2017,2013,2035,2014
2042,2059,2082,2029,2009,2010,2016,2007
2051,2076,2090,2039,2028,2022,2031,2018
2054,2081,2094,2052,2056,2030,2030,2017
2054,2075,2103,2076,2088,2049,2050,2031
2063,2081,2121,2093,2112,2055,2074,2024
2061,2076,2108,2090,2108,2056,2052,2038
2059,2068,2089,2078,2091,2051,2042,2037
2053,2070,2087,2083,2081,2054,2063,2036
2057,2068,2094,2078,2085,2052,2050,2048
2052,2056,2068,2061,2071,2046,2044,2052
2052,2052,2056,2041,2053,2043,2034,2060
2049,2043,2047,2028,2040,2037,2035,2065
2049,2046,2060,2022,2023,2032,2045,2072
2046,2057,2061,2039,2036,2037,2053,2083
2048,2061,2064,2050,2047,2040,2054,2082
2043,2051,2052,2035,2044,2039,2051,2084
2040,2046,2043,2029,2050,2040,2048,2091
2041,2056,2048,2039,2063,2057,2062,2090
2047,2051,2045,2035,2081,2057,2053,2084
2043,2051,2051,2038,2082,2054,2062,2075
2052,2055,2054,2045,2070,2052,2056,2071
2056,2057,2064,2053,2068,2051,2035,2069
2058,2060,2067,2058,2068,2049,2040,2056
2057,2062,2067,2059,2059,2050,2054,2049
2056,2060,2058,2056,2048,2047,2056,2033
2046,2056,2050,2057,2028,2047,2052,2036
2051,2058,2054,2057,2021,2048,2066,2034
2052,2061,2049,2057,2036,2048,2059,2032
2056,2055,2053,2056,2036,2046,2058,2032
2062,2059,2051,2056,2040,2045,2065,2026
2057,2058,2047,2048,2048,2043,2053,2022
2050,2045,2027,2037,2040,2043,2032,2009
2050,2038,2026,2028,2044,2035,2019,1998
2043,2040,2031,2041,2055,2049,2033,1993
2037,2037,2031,2037,2072,2053,2055,2004
2040,2036,2023,2035,2070,2058,2066,2016
2039,2044,2032,2038,2071,2051,2061,2023
2046,2048,2038,2042,2061,2039,2049,2027
2059,2052,2044,2046,2067,2039,2050,2025
2053,2057,2056,2049,2065,2028,2031,2034
2054,2061,2062,2056,2060,2024,2045,2038
2057,2056,2052,2057,2060,2030,2031,2046
2060,2048,2039,2057,2061,2031,2025,2056
2056,2038,2023,2053,2065,2033,2021,2071
2054,2025,2008,2044,2056,2033,2014,2078
2057,2028,2004,2038,2052,2039,2032,2082
2055,2029,2007,2027,2048,2039,2029,2069
2045,2028,2022,2034,2047,2034,2040,2064
2027,2033,2042,2046,2050,2033,2034,2073
2027,2047,2058,2050,2057,2044,2026,2082
2047,2056,2051,2050,2061,2044,2038,2075
2050,2052,2051,2051,2053,2050,2042,2070
2047,2057,2057,2056,2065,2053,2049,2060
2055,2055,2052,2055,2060,2056,2052,2054
2056,2056,2049,2053,2062,2060,2039,2049
2055,2054,2045,2047,2054,2047,2029,2044
2052,2051,2042,2036,2043,2042,2032,2036
2044,2049,2042,2028,2036,2035,2021,2024
2033,2040,2030,2020,2026,2028,2013,2014
2024,2033,2025,2020,2026,2037,2036,2016
2032,2044,2033,2031,2044,2043,2045,2014
2038,2037,2028,2035,2055,2046,2036,2019
2044,2034,2030,2032,2058,2047,2045,2013
2049,2039,2042,2033,2051,2046,2039,2009
2038,2043,2065,2046,2054,2042,2033,2009
2037,2052,2078,2060,2062,2060,2053,2004
2037,2064,2072,2062,2063,2056,2032,2010
2038,2058,2056,2051,2053,2054,2050,2023
2041,2050,2042,2054,2057,2054,2047,2029
2046,2058,2057,2054,2063,2052,2050,2030
2059,2062,2068,2057,2062,2053,2030,2037
2056,2060,2063,2055,2051,2047,2035,2038
2050,2062,2067,2058,2059,2048,2053,2045
2039,2054,2065,2057,2055,2046,2028,2056
2049,2058,2051,2047,2049,2046,2012,2061
2043,2049,2050,2049,2043,2043,2051,2056
2041,2048,2054,2048,2043,2051,2049,2062
2042,2058,2060,2049,2044,2049,2045,2071
2042,2065,2058,2059,2049,2051,2048,2075
2043,2065,2056,2053,2037,2040,2054,2080
2036,2049,2041,2044,2025,2033,2035,2077
2037,2040,2043,2039,2021,2036,2032,2084
2045,2048,2044,2046,2025,2037,2042,2078
2050,2050,2038,2039,2014,2031,2036,2075
2044,2039,2030,2035,2025,2028,2033,2063
2046,2049,2033,2044,2035,2038,2043,2061
2047,2053,2042,2050,2034,2035,2058,2052
2059,2054,2049,2054,2051,2035,2053,2046
2055,2052,2049,2056,2064,2029,2015,2040
2049,2051,2046,2058,2061,2021,2020,2030
2043,2047,2048,2056,2051,2031,2032,2027
2051,2051,2049,2053,2042,2040,2033,2020
2041,2051,2052,2054,2051,2053,2038,2012
2046,2057,2054,2052,2058,2060,2028,2009
2040,2052,2052,2058,2064,2068,2010,2009
2047,2042,2053,2059,2069,2071,2036,2007
2042,2024,2043,2051,2065,2061,2033,2000
2042,2020,2038,2052,2060,2064,2046,2004
2042,2037,2042,2054,2069,2069,2069,2018
2045,2034,2039,2058,2065,2067,2074,2011
2036,2030,2040,2055,2065,2069,2068,2008
2029,2029,2036,2058,2067,2064,2063,2017
2029,2036,2044,2058,2071,2062,2047,2020
2029,2040,2046,2057,2066,2063,2039,2023
2037,2046,2050,2063,2068,2056,2045,2027
2031,2045,2048,2060,2065,2054,2059,2042
2029,2048,2048,2062,2060,2051,2044,2047
2035,2045,2049,2060,2063,2033,2049,2059
2038,2038,2042,2056,2065,2021,2047,2065
2038,2038,2046,2059,2061,2037,2051,2068
2048,2053,2064,2061,2077,2045,2038,2080
2055,2074,2077,2070,2075,2052,2039,2091
2060,2067,2071,2056,2057,2035,2041,2086
2049,2052,2052,2051,2044,2042,2042,2084
2037,2051,2058,2057,2047,2059,2055,2079
2047,2059,2062,2054,2058,2070,2049,2072
2045,2056,2061,2054,2064,2072,2030,2075
2053,2060,2061,2050,2058,2072,2034,2072
2059,2062,2062,2043,2042,2057,2039,2073
2053,2060,2053,2047,2041,2043,2032,2054
2057,2063,2054,2045,2048,2035,2046,2047
2061,2058,2058,2051,2062,2039,2048,2042
2050,2052,2057,2053,2050,2035,2048,2041
2044,2050,2048,2045,2037,2023,2046,2035
2040,2039,2044,2044,2027,2022,2040,2030
2040,2042,2047,2046,2043,2025,2017,2028
2034,2041,2044,2046,2053,2026,2030,2019
2037,2049,2050,2053,2056,2028,2044,2018
2048,2059,2053,2064,2058,2033,2042,2021
2042,2043,2051,2059,2060,2038,2033,2009
2034,2036,2035,2055,2064,2055,2047,2014
2044,2052,2054,2059,2066,2067,2041,2016
2042,2050,2054,2057,2064,2073,2051,2010
2035,2052,2058,2057,2058,2096,2046,2014
2040,2051,2053,2061,2069,2099,2055,2025
2038,2054,2048,2061,2066,2100,2043,2027
2042,2053,2053,2059,2065,2090,2043,2031
2045,2056,2055,2059,2060,2033,2040,2035
2047,2049,2054,2065,2062,2018,2034,2053
2047,2052,2048,2057,2060,2026,2034,2064
2045,2050,2044,2052,2060,2039,2026,2062
2043,2052,2036,2052,2067,2049,2027,2065
2037,2050,2037,2052,2066,2051,2015,2081
2044,2049,2036,2051,2065,2056,2022,2083
2046,2037,2028,2052,2066,2052,2022,2084
2033,2032,2013,2045,2050,2041,2044,2085
2032,2030,2008,2040,2051,2036,2037,2082
2040,2043,2013,2048,2060,2041,2042,2087
2041,2048,2011,2042,2054,2038,2053,2084
2040,2044,2010,2038,2043,2036,2049,2073
2047,2040,2009,2034,2043,2032,2025,2069
2047,2042,2009,2036,2041,2031,2022,2055
2048,2040,2019,2037,2032,2027,2008,2044
2048,2040,2028,2040,2030,2025,2029,2031
2036,2035,2026,2038,2027,2020,2023,2009
2036,2037,2034,2039,2031,2025,2019,2007
2024,2044,2047,2048,2038,2027,2025,2008
2029,2048,2058,2053,2052,2031,2036,2014
2039,2051,2060,2045,2048,2044,2044,2010
2037,2055,2064,2047,2042,2042,2025,2018
2038,2060,2080,2056,2038,2045,2031,2022
2045,2061,2087,2047,2031,2041,2017,2014
2032,2058,2084,2052,2029,2043,2033,2014
2040,2064,2089,2057,2039,2053,2045,2024
2060,2076,2093,2061,2048,2063,2057,2024
2052,2072,2084,2061,2045,2066,2056,2024
2047,2064,2075,2059,2047,2064,2064,2018
2045,2060,2070,2058,2053,2066,2062,2031
2047,2061,2072,2058,2049,2063,2069,2032
2052,2059,2072,2064,2039,2058,2064,2035
2055,2059,2068,2064,2032,2055,2059,2044
2049,2058,2066,2064,2038,2057,2057,2050
2044,2056,2064,2057,2050,2053,2057,2058
2044,2055,2064,2055,2047,2060,2053,2055
2048,2056,2059,2049,2044,2060,2052,2056
2040,2050,2056,2048,2036,2058,2052,2058
2038,2045,2049,2041,2034,2047,2045,2065
2037,2033,2039,2031,2019,2020,2029,2064
2036,2024,2029,2024,2017,2015,2024,2068
2032,2029,2036,2035,2029,2036,2015,2066
2044,2045,2047,2046,2065,2038,2009,2054
2039,2054,2048,2050,2081,2046,2023,2059
2045,2060,2056,2064,2089,2054,2026,2055
2043,2062,2058,2061,2079,2060,2024,2042
2047,2060,2056,2051,2062,2057,2058,2043
2046,2061,2053,2051,2056,2058,2062,2038
2055,2065,2056,2056,2048,2054,2056,2028
2051,2060,2050,2049,2050,2063,2050,2034
2055,2057,2050,2050,2049,2054,2061,2027
2051,2053,2051,2052,2056,2051,2047,2019
2054,2053,2047,2051,2052,2056,2056,2010
2052,2055,2045,2050,2057,2055,2060,2018
2046,2051,2052,2053,2061,2055,2060,2010
2047,2052,2055,2054,2058,2047,2049,2004
2042,2041,2039,2048,2057,2046,2037,2001
2041,2039,2043,2048,2059,2056,2052,2005
2054,2061,2062,2060,2071,2061,2041,2010
2053,2057,2065,2065,2070,2060,2058,2018
2050,2059,2057,2064,2076,2061,2060,2024
2055,2062,2053,2064,2070,2061,2069,2020
2056,2059,2050,2065,2071,2062,2066,2023
2048,2060,2059,2057,2072,2064,2060,2032
2048,2056,2052,2062,2075,2065,2061,2036
2046,2050,2048,2061,2066,2065,2061,2041
2039,2050,2052,2057,2064,2064,2056,2051
2043,2050,2046,2057,2063,2070,2063,2053
2048,2048,2052,2055,2061,2066,2054,2072
2044,2047,2052,2055,2060,2065,2053,2078
2039,2048,2052,2054,2069,2068,2051,2082
2049,2052,2049,2057,2058,2070,2040,2078
2039,2033,2036,2044,2054,2064,2054,2078
2034,2032,2033,2044,2049,2076,2059,2087
2043,2047,2048,2051,2056,2082,2049,2079
2052,2053,2048,2054,2061,2087,2069,2083
2048,2050,2044,2051,2055,2078,2069,2081
2052,2053,2046,2048,2058,2068,2073,2072
2051,2047,2041,2045,2057,2064,2055,2061
2049,2049,2040,2048,2053,2059,2054,2042
2040,2048,2038,2046,2052,2049,2057,2032
2040,2044,2031,2041,2044,2021,2051,2020
2034,2040,2032,2036,2042,2033,2056,2021
2041,2038,2036,2040,2048,2029,2047,2018
2030,2040,2031,2038,2046,2035,2048,2013
2041,2035,2035,2040,2052,2039,2036,2012
2035,2038,2030,2050,2058,2045,2038,2006
2040,2038,2032,2046,2053,2045,2029,2012
2026,2027,2020,2036,2042,2026,2024,2009
2026,2024,2021,2030,2041,2020,2034,2006
2040,2039,2030,2041,2050,2028,2029,2006
2048,2039,2030,2043,2044,2030,2041,2000
2036,2041,2037,2045,2050,2031,2047,2003
2038,2047,2042,2050,2054,2034,2045,2013
2042,2059,2054,2053,2053,2038,2050,2018
2037,2061,2062,2047,2052,2044,2060,2024
2043,2060,2064,2050,2052,2047,2068,2035
2046,2064,2063,2050,2052,2060,2068,2044
2049,2067,2063,2053,2063,2066,2065,2050
2051,2062,2061,2055,2066,2065,2037,2055
2056,2054,2052,2052,2067,2060,2051,2062
2042,2053,2049,2052,2054,2047,2063,2072
2043,2052,2044,2046,2052,2044,2062,2082
2048,2047,2048,2047,2047,2042,2053,2081
2044,2042,2036,2039,2044,2034,2034,2076
2039,2039,2033,2041,2040,2043,2047,2079
2047,2059,2050,2047,2052,2052,2058,2073
2052,2058,2050,2046,2058,2059,2058,2071
2046,2059,2047,2049,2052,2060,2058,2055
2050,2057,2052,2050,2055,2057,2060,2047
2048,2064,2048,2049,2054,2057,2054,2045
2046,2058,2057,2044,2052,2055,2047,2038
2049,2064,2062,2047,2052,2059,2058,2035
2061,2067,2059,2051,2044,2062,2063,2030
2056,2062,2058,2047,2044,2064,2070,2028
2061,2056,2054,2053,2046,2061,2067,2024
2054,2056,2048,2044,2047,2047,2056,2008
2053,2058,2051,2046,2041,2040,2053,2001
2045,2052,2052,2047,2051,2047,2056,1996
2034,2052,2050,2049,2055,2044,2044,1995
2032,2043,2038,2042,2052,2043,2043,1997
2037,2043,2043,2043,2056,2044,2032,2007
2038,2051,2053,2058,2068,2043,2038,2005
2042,2052,2044,2047,2056,2024,2040,2012
2047,2047,2043,2042,2053,2028,2050,2019
2046,2051,2044,2042,2060,2026,2064,2030
2056,2051,2043,2040,2050,2028,2060,2040
2058,2053,2042,2044,2051,2025,2064,2046
2049,2056,2047,2048,2054,2029,2070,2048
2049,2052,2049,2040,2056,2042,2059,2055
2048,2052,2048,2050,2061,2033,2057,2067
2046,2049,2039,2054,2056,2031,2056,2069
2048,2043,2039,2049,2063,2023,2056,2072
2044,2038,2034,2050,2061,2019,2056,2072
2046,2048,2034,2052,2064,2021,2056,2078
2047,2040,2027,2048,2063,2026,2054,2070
2040,2021,2013,2036,2051,2027,2045,2060
2033,2016,2009,2028,2046,2032,2039,2066
2032,2026,2021,2047,2063,2047,2042,2052
2027,2030,2020,2046,2065,2041,2044,2046
2022,2027,2023,2042,2046,2022,2024,2034
2020,2025,2032,2045,2047,2023,2026,2034
2028,2031,2034,2043,2039,2037,2032,2032
2032,2033,2037,2048,2043,2074,2043,2028
2039,2035,2039,2049,2048,2119,2070,2026
2044,2040,2044,2056,2058,2113,2073,2028
2043,2045,2050,2062,2055,2088,2052,2026
2051,2047,2050,2060,2050,2060,2058,2022
2058,2045,2052,2061,2047,2049,2056,2023
2058,2052,2061,2063,2048,2038,2051,2026
2056,2056,2068,2066,2054,2035,2042,2024
2058,2060,2071,2059,2054,2032,2046,2019
2051,2053,2049,2048,2041,2022,2035,2012
2050,2050,2043,2052,2048,2031,2037,2023
2063,2066,2067,2054,2062,2053,2060,2018
2059,2068,2061,2051,2061,2056,2056,2016
2060,2064,2055,2047,2052,2050,2037,2022
2062,2064,2057,2047,2057,2048,2040,2024
2064,2071,2060,2047,2052,2054,2058,2024
2063,2072,2062,2058,2064,2057,2053,2029
2053,2069,2062,2060,2062,2061,2047,2031
2052,2066,2070,2057,2062,2069,2057,2031
2055,2065,2070,2046,2055,2088,2047,2042
2046,2072,2070,2044,2056,2081,2054,2054
2054,2068,2076,2053,2058,2070,2045,2060
2058,2063,2070,2047,2052,2068,2046,2068
2047,2060,2062,2051,2055,2070,2056,2078
2047,2063,2061,2052,2054,2074,2039,2069
2044,2044,2042,2037,2043,2058,2029,2060
2033,2040,2045,2030,2034,2052,2038,2067
2036,2047,2049,2034,2043,2047,2038,2067
2043,2051,2051,2031,2033,2034,2031,2066
2045,2052,2054,2029,2030,2031,2027,2057
2051,2050,2048,2033,2034,2022,2024,2045
2050,2057,2056,2042,2038,2025,2032,2037
2050,2053,2060,2044,2043,2033,2031,2034
2050,2061,2056,2052,2045,2040,2040,2040
2058,2059,2059,2054,2051,2056,2045,2040
2057,2064,2058,2054,2056,2061,2057,2038
2058,2065,2058,2047,2061,2060,2061,2032
2056,2057,2049,2050,2058,2056,2053,2022
2055,2055,2052,2042,2051,2050,2054,2014
2049,2046,2045,2040,2040,2061,2052,2011
2044,2043,2046,2040,2039,2061,2045,1998
2035,2032,2029,2029,2018,2064,2039,2000
2033,2034,2034,2033,2017,2062,2041,2016
2038,2047,2046,2040,2035,2055,2039,2019
2048,2055,2052,2045,2041,2016,2028,2016
2046,2050,2043,2041,2045,2026,2034,2019
2045,2048,2045,2041,2050,2050,2056,2017
2042,2047,2043,2040,2044,2059,2055,2026
2042,2044,2046,2041,2047,2056,2053,2029
2045,2043,2045,2039,2040,2046,2037,2032
2043,2052,2047,2041,2048,2053,2028,2032
2046,2058,2051,2046,2053,2059,2047,2049
2045,2054,2050,2045,2054,2056,2034,2057
2048,2048,2050,2042,2052,2048,2029,2061
2042,2052,2046,2044,2058,2051,2045,2063
2042,2050,2041,2044,2057,2049,2043,2066
2044,2040,2040,2037,2046,2047,2034,2071
2032,2032,2033,2025,2036,2044,2042,2069
2028,2030,2034,2032,2039,2051,2047,2078
2040,2044,2048,2053,2049,2062,2055,2074
2048,2053,2058,2068,2064,2064,2047,2080
2048,2059,2059,2067,2064,2066,2050,2074
2051,2056,2060,2075,2058,2066,2060,2064
2054,2063,2071,2078,2062,2065,2052,2060
2054,2064,2064,2080,2061,2066,2057,2046
2055,2058,2064,2083,2072,2074,2058,2034
2052,2056,2050,2082,2085,2076,2053,2024
2051,2055,2048,2080,2080,2072,2051,2025
2051,2052,2051,2069,2082,2072,2044,2022
2052,2052,2047,2064,2078,2072,2049,2023
2058,2046,2040,2057,2067,2057,2034,2026
2056,2040,2045,2041,2041,2033,2013,2019
2047,2035,2036,2026,2019,2004,1993,2003
2034,2024,2031,2020,2006,2000,1996,1998
2036,2024,2028,2010,2005,2012,2015,1995
2042,2040,2040,2023,2006,2021,2007,2004
2048,2045,2039,2018,2028,2033,2010,2018
2069,2048,2041,2027,2038,2038,2006,2014
2063,2054,2043,2030,2049,2038,2006,2021
2072,2050,2047,2030,2045,2044,2020,2027
2077,2050,2043,2036,2046,2046,2026,2031
2076,2051,2046,2041,2052,2049,2029,2029
2070,2052,2047,2041,2047,2048,2031,2026
2054,2051,2043,2040,2059,2052,2037,2037
2049,2048,2043,2032,2055,2055,2044,2050
2048,2047,2042,2040,2058,2058,2048,2066
2041,2038,2040,2039,2053,2050,2046,2077
2041,2044,2044,2051,2050,2040,2044,2087
2052,2052,2044,2049,2047,2019,2038,2087
2051,2043,2038,2042,2031,2008,2037,2092
2048,2041,2040,2042,2030,2035,2057,2089
2053,2055,2046,2048,2027,2052,2059,2083
2053,2048,2045,2047,2023,2048,2043,2077
2051,2041,2039,2043,2015,2041,2048,2063
2037,2040,2041,2041,2015,2036,2043,2060
2042,2042,2041,2036,2010,2033,2039,2059
2045,2042,2047,2046,2024,2058,2059,2064
2060,2049,2047,2049,2033,2077,2076,2063
2058,2050,2048,2048,2044,2065,2059,2045
2061,2045,2046,2057,2051,2057,2064,2029
2048,2039,2038,2049,2044,2042,2059,2021
2035,2033,2036,2047,2038,2034,2063,2008
2039,2026,2028,2038,2024,2033,2051,2005
2042,2030,2030,2038,2027,2045,2066,2004
2044,2035,2029,2042,2029,2048,2064,2010
2036,2028,2022,2039,2024,2049,2063,2015
2039,2023,2030,2041,2024,2041,2066,2019
2047,2037,2041,2050,2032,2051,2079,2024
2048,2038,2040,2046,2038,2057,2070,2030
2048,2038,2040,2047,2045,2062,2070,2025
2047,2046,2042,2050,2059,2058,2061,2028
2046,2045,2046,2052,2060,2068,2064,2020
2050,2051,2048,2057,2064,2069,2049,2020
2046,2046,2043,2062,2056,2064,2055,2026
2050,2049,2041,2052,2038,2070,2031,2036
2050,2048,2034,2045,2035,2057,2022,2038
2045,2047,2031,2036,2031,2050,2004,2051
2050,2052,2040,2038,2036,2059,2016,2053
2045,2051,2050,2043,2040,2057,2018,2054
2044,2046,2046,2046,2038,2065,2019,2061
2041,2045,2052,2053,2042,2069,2025,2055
2030,2029,2038,2041,2029,2062,2023,2061
2029,2030,2032,2042,2027,2053,2036,2069
2048,2046,2047,2047,2023,2047,2040,2070
2049,2051,2047,2044,2023,2056,2050,2072
2056,2048,2044,2045,2021,2060,2019,2070
2059,2048,2045,2042,2016,2069,2020,2069
2058,2051,2043,2045,2019,2065,2040,2050
2057,2047,2036,2042,2018,2049,2032,2032
2051,2045,2038,2044,2030,2035,2023,2034
2052,2041,2036,2039,2028,2038,2026,2029
2054,2039,2037,2045,2035,2054,2034,2025
2049,2047,2038,2045,2037,2051,2056,2024
2058,2047,2041,2053,2029,2046,2032,2025
2051,2054,2037,2056,2035,2048,2040,2023
2045,2050,2035,2060,2038,2052,2047,2020
2052,2050,2034,2054,2034,2048,2042,2007
2040,2040,2021,2047,2030,2038,2022,1996
2039,2040,2020,2044,2026,2042,2026,2010
2057,2050,2024,2056,2033,2042,2030,2022
2067,2050,2026,2047,2025,2035,2050,2018
2063,2051,2023,2045,2019,2034,2049,2017
2055,2046,2018,2044,2020,2032,2048,2016
2049,2049,2015,2042,2012,2039,2033,2017
2052,2041,2018,2045,2016,2048,2049,2024
2046,2041,2010,2039,2026,2052,2057,2030
2044,2030,2007,2044,2043,2061,2068,2036
2044,2032,2007,2043,2054,2069,2052,2038
2042,2026,2007,2044,2052,2077,2044,2038
2039,2030,2010,2037,2037,2080,2060,2047
2040,2029,2013,2039,2043,2081,2038,2056
2035,2026,2013,2034,2035,2084,2043,2051
2025,2023,2016,2034,2023,2088,2056,2054
2025,2026,2029,2037,2014,2071,2026,2045
2019,2033,2038,2047,2020,2067,2017,2055
2024,2044,2054,2054,2035,2060,2015,2071
2044,2058,2062,2064,2039,2059,2020,2071
2051,2054,2060,2071,2049,2060,2037,2066
2053,2050,2064,2073,2056,2044,2030,2067
2051,2043,2050,2075,2052,2023,2015,2054
2044,2046,2053,2066,2052,2027,2020,2048
2046,2047,2047,2061,2046,2039,2030,2029
2034,2041,2048,2062,2042,2042,2045,2028
2037,2044,2049,2062,2039,2052,2038,2026
2040,2041,2044,2060,2049,2060,2043,2027
2046,2050,2051,2062,2052,2064,2042,2028
2049,2047,2046,2064,2060,2069,2030,2018
2053,2046,2034,2059,2056,2069,2016,2013
2051,2033,2020,2055,2055,2060,2029,2003
2048,2028,2012,2050,2050,2053,2027,1990
2039,2016,2002,2038,2039,2038,2008,1989
2043,2019,2004,2041,2042,2044,2021,2003
2055,2033,2018,2043,2046,2044,2026,2000
2046,2033,2019,2033,2038,2038,2016,2001
2049,2030,2031,2024,2025,2034,2026,2001
2039,2035,2036,2019,2021,2031,2011,1999
2029,2031,2050,2021,2019,2031,2034,2004
2035,2038,2056,2020,2023,2034,2031,2013
2044,2053,2064,2022,2023,2031,2032,2018
2043,2057,2067,2025,2006,2021,2037,2025
2046,2061,2080,2037,1999,2022,2034,2042
2052,2071,2080,2027,2005,2023,2037,2049
2064,2068,2073,2031,2007,2014,2034,2061
2053,2062,2068,2027,2012,2016,2030,2064
2047,2060,2070,2035,2027,2035,2036,2072
2052,2064,2068,2048,2065,2055,2056,2074
2057,2059,2058,2047,2073,2054,2045,2072
2051,2036,2035,2044,2074,2052,2041,2074
2050,2034,2035,2046,2066,2049,2042,2084
2059,2044,2039,2044,2042,2040,2052,2081
2059,2046,2031,2036,2034,2035,2049,2074
2057,2046,2036,2039,2026,2033,2045,2068
2060,2051,2034,2033,2022,2038,2037,2055
2050,2048,2027,2035,2023,2052,2049,2056
2054,2052,2032,2049,2034,2058,2053,2054
2056,2053,2031,2045,2023,2068,2041,2042
2052,2050,2029,2048,2008,2069,2037,2027
2048,2047,2033,2038,1999,2085,2048,2018
2048,2045,2031,2030,2008,2101,2024,2017
2046,2043,2035,2033,2031,2125,2049,2008
2051,2048,2031,2041,2053,2107,2040,2003
2050,2048,2030,2041,2065,2054,2052,2010
2055,2046,2049,2047,2077,2055,2058,2002
2040,2037,2057,2039,2072,2042,2035,1998
2035,2044,2065,2035,2064,2044,2036,1997
2055,2065,2086,2052,2065,2056,2042,2012
2057,2074,2084,2055,2061,2060,2018,2005
2061,2069,2089,2055,2056,2049,2018,2006
2052,2065,2104,2065,2063,2041,2021,2015
2049,2068,2115,2071,2059,2033,2014,2013
2046,2064,2114,2077,2059,2026,2027,2023
2047,2056,2106,2076,2062,2029,2021,2031
2046,2051,2093,2068,2067,2034,2040,2024
2047,2053,2081,2066,2066,2047,2034,2029
2045,2050,2071,2057,2056,2070,2038,2034
2041,2050,2064,2060,2056,2079,2053,2044
2050,2053,2066,2057,2043,2066,2035,2047
2040,2048,2061,2053,2038,2054,2027,2056
2036,2052,2051,2046,2036,2043,2016,2052
2034,2044,2048,2050,2038,2025,2014,2053
2029,2029,2033,2050,2048,2028,2029,2054
2028,2024,2027,2050,2064,2063,2050,2055
2040,2033,2028,2043,2054,2076,2067,2060
2039,2029,2019,2031,2052,2081,2066,2063
2040,2018,2011,2021,2042,2068,2055,2051
2042,2022,2013,2021,2037,2059,2047,2040
2040,2020,2008,2021,2035,2053,2040,2032
2032,2018,2004,2019,2037,2044,2037,2032
2030,2016,2000,2014,2042,2041,2039,2033
2033,2017,2018,2031,2047,2049,2040,2028
2038,2025,2042,2051,2051,2051,2040,2025
2040,2031,2060,2054,2049,2054,2041,2022
2044,2042,2071,2062,2047,2051,2039,2009
2036,2040,2075,2051,2039,2046,2041,2001
2032,2035,2076,2054,2030,2051,2048,2004
2043,2048,2079,2053,2039,2057,2043,2007
2040,2043,2071,2056,2035,2055,2042,1998
2035,2052,2074,2054,2037,2060,2058,2012
2052,2063,2072,2057,2058,2072,2077,2018
2064,2070,2067,2057,2053,2073,2067,2014
2059,2064,2062,2056,2058,2072,2055,2018
2052,2049,2068,2064,2056,2076,2065,2016
2050,2047,2067,2060,2055,2081,2072,2020
2040,2041,2066,2058,2059,2071,2044,2020
2039,2047,2074,2058,2057,2070,2034,2032
2049,2057,2077,2058,2063,2072,2050,2038
2050,2057,2069,2059,2076,2073,2031,2044
2047,2058,2062,2049,2065,2065,2022,2045
2050,2052,2042,2040,2057,2047,2031,2055
2049,2051,2041,2031,2046,2027,2004,2055
2047,2048,2040,2043,2043,2032,2021,2060
2044,2047,2054,2043,2031,2040,2016,2058
2038,2046,2054,2043,2032,2026,1990,2055
2022,2038,2049,2052,2021,1993,2022,2072
2036,2045,2055,2055,2043,2006,2041,2086
2047,2052,2051,2049,2041,2027,2059,2071
2046,2051,2042,2040,2046,2040,2024,2065
2045,2047,2043,2029,2040,2038,2005,2059
2049,2047,2037,2019,2041,2046,2010,2063
2046,2047,2033,2007,2033,2052,2035,2057
2043,2041,2020,1998,2036,2050,2033,2045
2049,2037,2023,2007,2032,2046,2047,2032
2045,2039,2034,2012,2028,2029,2038,2025
2043,2039,2041,2011,2030,2019,2035,2022
2034,2039,2043,2013,2037,2013,2039,2017
2040,2039,2044,2016,2027,2008,2038,2012
2039,2040,2030,2004,2027,2017,2034,2010
2034,2034,2034,2010,2057,2030,2038,2011
2044,2040,2041,2026,2071,2036,2054,2007
2036,2027,2028,2018,2046,2029,2029,2005
2036,2024,2027,2020,2045,2046,2071,2009
2038,2036,2038,2029,2052,2065,2061,2015
2042,2037,2041,2029,2048,2073,2066,2014
2052,2040,2039,2027,2045,2075,2063,2021
2050,2044,2040,2024,2031,2079,2056,2014
2048,2037,2042,2021,2023,2077,2057,2018
2043,2036,2050,2027,2034,2072,2048,2015
2041,2042,2043,2034,2037,2062,2039,2009
2041,2040,2042,2031,2032,2064,2067,2019
2027,2032,2034,2026,2034,2075,2058,2020
2020,2020,2027,2018,2026,2061,2060,2039
2031,2027,2033,2015,2017,2038,2032,2057
2035,2036,2036,2018,2021,2043,2045,2074
2045,2045,2038,2021,2029,2045,2050,2088
2054,2046,2035,2029,2027,2042,2062,2095
2050,2044,2035,2023,2017,2039,2058,2078
2042,2040,2028,2023,2037,2043,2056,2078
2042,2045,2030,2030,2035,2057,2067,2075
2049,2042,2033,2025,2033,2054,2066,2066
2049,2045,2036,2027,2041,2057,2050,2065
2053,2043,2046,2039,2052,2032,2046,2071
2064,2047,2046,2034,2043,2023,2050,2058
2054,2051,2042,2028,2030,2009,2048,2049
2057,2052,2032,2026,2029,2009,2024,2047
2049,2043,2033,2025,2045,2022,2030,2027
2044,2038,2026,2022,2056,2056,2029,2015
2046,2040,2023,2019,2039,2062,2022,2015
2042,2041,2027,2008,2001,2049,2028,1999
2030,2040,2026,2000,1946,2065,2021,1990
2031,2036,2023,1987,1912,2057,1999,1982
2036,2036,2020,1988,1910,2039,2008,1983
2036,2035,2013,1981,1923,2042,2005,1979
2025,2020,1997,1980,1952,2058,2001,1983
2042,2023,2011,2010,2007,2045,2033,2008
2050,2026,2019,2039,2072,2025,2054,2012
2045,2019,2007,2033,2069,2066,2048,2004
2038,2018,2002,2023,2045,2086,2054,2006
2034,2024,2010,2021,2029,2096,2038,2003
2041,2033,2016,2025,2018,2076,2035,2019
2042,2041,2023,2030,1997,2036,2028,2023
2032,2035,2022,2030,2004,1998,2034,2037
2044,2035,2027,2057,2059,1982,2076,2061
2052,2034,2026,2064,2104,2020,2090,2066
2048,2024,2022,2054,2099,2043,2062,2063
2042,2033,2018,2043,2092,2056,2066,2062
2039,2037,2020,2035,2081,2052,2047,2067
2039,2039,2036,2026,2063,2057,2037,2070
2044,2050,2058,2031,2058,2056,2039,2077
2046,2046,2060,2030,2041,2029,2025,2075
2036,2045,2064,2035,2028,2011,2020,2081
2046,2051,2071,2042,2028,2008,2042,2080
2050,2059,2070,2045,2053,2028,2053,2075
2056,2045,2062,2047,2070,2070,2062,2061
2045,2048,2068,2045,2078,2088,2046,2056
2047,2045,2073,2049,2070,2084,2045,2042
2051,2057,2086,2051,2061,2066,2042,2041
2051,2065,2088,2045,2054,2047,2047,2032
2052,2058,2078,2039,2028,2038,2034,2029
2044,2046,2064,2026,2000,2036,2029,2022
2043,2046,2053,2020,1968,2031,2022,2015
2039,2039,2045,2012,1946,2026,2016,2011
2039,2034,2037,2000,1939,2027,2021,2005
2037,2031,2043,2006,1978,2036,2021,2000
2039,2039,2044,2017,2009,2040,2044,2006
2045,2050,2051,2042,2057,2033,2057,2018
2046,2044,2051,2063,2120,2043,2058,2016
2042,2044,2051,2060,2122,2062,2062,2016
2053,2052,2057,2060,2118,2070,2074,2016
2038,2047,2046,2053,2101,2070,2058,2016
2041,2045,2037,2048,2081,2052,2057,2019
2047,2042,2025,2042,2059,2049,2063,2029
2049,2047,2021,2056,2057,2063,2079,2037
2052,2047,2027,2059,2090,2077,2062,2043
2053,2046,2027,2058,2100,2076,2072,2035
2057,2051,2027,2056,2091,2072,2074,2044
2052,2037,2028,2059,2080,2061,2086,2049
2048,2034,2027,2057,2052,2047,2069,2058
2041,2046,2040,2055,2025,2025,2058,2068
2047,2052,2056,2056,2016,2018,2039,2069
2056,2054,2063,2054,2027,2033,2053,2074
2055,2052,2050,2039,2030,2051,2039,2067
2044,2036,2034,2029,2020,2047,2030,2073
2044,2031,2028,2032,2082,2050,2044,2081
2053,2047,2029,2051,2108,2064,2054,2081
2058,2047,2039,2054,2105,2062,2056,2080
2062,2045,2043,2050,2091,2051,2056,2071
2060,2036,2042,2036,2077,2042,2042,2062
2054,2038,2039,2029,2062,2035,2038,2056
2050,2040,2054,2035,2047,2045,2066,2051
2060,2043,2058,2029,2054,2054,2066,2047
2053,2038,2046,2029,2073,2052,2053,2035
2052,2034,2039,2025,2073,2045,2026,2030
2048,2033,2030,2025,2048,2049,2043,2028
2057,2042,2036,2026,2035,2054,2065,2032
2049,2039,2036,2026,2028,2048,2053,2024
2052,2038,2031,2025,2034,2052,2037,2014
2053,2042,2038,2023,2039,2052,2037,2012
2052,2049,2043,2021,2029,2042,2023,2005
2041,2037,2053,2015,2038,2038,2009,2000
2036,2037,2062,2025,2040,2053,2027,2010
2050,2050,2075,2034,2042,2054,2050,2013
2051,2048,2084,2038,2041,2052,2051,2017
2052,2058,2089,2043,2039,2038,2032,2025
2050,2061,2095,2045,2040,2041,2038,2024
2046,2054,2096,2041,2043,2042,2038,2028
2048,2056,2094,2048,2049,2049,2044,2040
2050,2060,2094,2054,2060,2053,2045,2038
2052,2052,2091,2054,2058,2050,2024,2050
2055,2053,2082,2045,2055,2036,2022,2056
2042,2047,2081,2044,2059,2031,2035,2056
2038,2048,2085,2040,2057,2041,2045,2056
2043,2045,2093,2043,2050,2042,2049,2058
2040,2044,2087,2046,2050,2038,2043,2060
2032,2038,2082,2041,2056,2040,2048,2064
2026,2023,2064,2033,2045,2042,2031,2062
2027,2020,2059,2037,2045,2054,2032,2075
2043,2042,2072,2042,2052,2061,2046,2080
2049,2047,2062,2049,2056,2060,2056,2085
2062,2048,2064,2049,2059,2065,2080,2080
2058,2050,2062,2048,2060,2065,2077,2067
2054,2047,2069,2047,2056,2064,2066,2051
2050,2048,2061,2040,2042,2048,2047,2048
2046,2046,2056,2038,2041,2038,2044,2033
2049,2041,2050,2039,2039,2056,2045,2031
2051,2041,2054,2038,2033,2071,2047,2028
2053,2037,2055,2047,2058,2093,2050,2031
2061,2046,2062,2056,2092,2098,2056,2023
2066,2049,2063,2060,2101,2081,2052,2020
2062,2046,2067,2058,2089,2023,2043,2013
2061,2044,2058,2052,2082,1988,2028,2008
2049,2029,2046,2044,2073,1987,2030,2007
2047,2022,2054,2057,2064,1998,2024,2009
2048,2040,2080,2071,2067,2014,2047,2025
2052,2040,2092,2072,2034,2010,2045,2025
2053,2041,2085,2065,2000,2008,2036,2016
2052,2033,2081,2058,1949,2003,2042,2016
2047,2024,2067,2045,1931,2006,2045,2020
2048,2025,2073,2051,1996,2024,2050,2023
2036,2037,2074,2060,2044,2046,2047,2040
2038,2040,2079,2066,2056,2052,2053,2053
2040,2036,2074,2068,2071,2054,2069,2056
2042,2036,2074,2065,2080,2055,2069,2061
2050,2035,2067,2066,2089,2068,2066,2073
2042,2036,2065,2067,2086,2072,2074,2065
2053,2045,2063,2062,2078,2072,2072,2077
2064,2047,2063,2056,2076,2071,2074,2079
2055,2032,2044,2042,2067,2058,2054,2070
2047,2014,2030,2021,2049,2038,2024,2070
2037,2017,2022,2017,2050,2044,2036,2065
2042,2013,2021,2015,2045,2051,2032,2070
2053,2025,2022,2006,2027,2032,2022,2062
2044,2028,2034,2015,2022,2020,2010,2062
2047,2043,2045,2033,2034,2023,2024,2060
2056,2044,2053,2045,2040,2031,2043,2051
2062,2057,2063,2051,2044,2041,2044,2043
2066,2056,2062,2051,2053,2043,2021,2032
2061,2047,2058,2046,2062,2041,2015,2022
2053,2037,2049,2049,2074,2048,2035,2023
2054,2031,2049,2048,2079,2049,2032,2019
2045,2034,2044,2042,2065,2040,2042,2020
2051,2034,2041,2040,2056,2041,2047,2012
2055,2039,2058,2040,2045,2046,2044,2013
2042,2029,2045,2036,2040,2047,2053,1998
2042,2021,2043,2030,2038,2053,2041,2007
2049,2030,2052,2042,2049,2057,2046,2020
2063,2049,2056,2043,2033,2047,2043,2016
2058,2051,2053,2031,2023,2042,2040,2019
2055,2055,2051,2027,2019,2040,2055,2019
2056,2045,2052,2027,2015,2037,2044,2025
2053,2048,2049,2024,1994,2021,2027,2035
2047,2047,2047,2021,2024,2021,2027,2030
2046,2041,2046,2023,2060,2039,2051,2032
2053,2045,2034,2030,2104,2062,2069,2054
2050,2042,2039,2044,2100,2072,2065,2067
2047,2037,2042,2044,2070,2074,2068,2084
2055,2048,2056,2049,2042,2072,2060,2090
2057,2046,2059,2046,2038,2069,2068,2077
2048,2050,2054,2042,2030,2062,2063,2074
2043,2036,2041,2023,2012,2040,2041,2064
2028,2021,2029,2012,2017,2029,2035,2061
2026,2029,2041,2032,2067,2048,2027,2067
2033,2034,2042,2037,2060,2049,2022,2062
2028,2034,2045,2039,2050,2052,2038,2060
2043,2038,2039,2030,2051,2051,2052,2065
2048,2035,2033,2033,2047,2052,2056,2054
2050,2030,2025,2040,2057,2058,2049,2045
2047,2026,2020,2044,2053,2045,2050,2042
2042,2021,2013,2048,2040,2038,2035,2028
2039,2022,2012,2048,2048,2037,2037,2016
2043,2028,2024,2054,2060,2047,2056,2015
2046,2023,2024,2051,2062,2057,2056,2017
2048,2027,2019,2048,2066,2064,2055,2024
2056,2028,2022,2045,2053,2076,2042,2035
2066,2027,2015,2040,2043,2075,2060,2035
2069,2025,2015,2038,2046,2073,2057,2022
2052,2009,2007,2033,2064,2076,2059,2019
2051,2015,2016,2039,2068,2076,2064,2029
2060,2029,2022,2032,2061,2074,2059,2033
2051,2035,2035,2034,2075,2072,2069,2031
2048,2041,2040,2036,2075,2061,2060,2031
2049,2049,2052,2029,2070,2052,2058,2031
2049,2046,2052,2017,2051,2047,2069,2047
2052,2050,2055,2019,2039,2036,2063,2056
2054,2055,2074,2031,2031,2024,2050,2056
2058,2068,2092,2053,2086,2024,2059,2051
2056,2069,2097,2068,2128,2033,2041,2053
2050,2066,2092,2078,2151,2055,2046,2071
2055,2061,2088,2076,2162,2052,2038,2080
2061,2064,2091,2079,2156,2047,2044,2089
2054,2061,2082,2068,2127,2038,2052,2089
2056,2052,2070,2034,2068,2011,2015,2078
2050,2042,2065,2027,2024,2008,2037,2093
2050,2044,2068,2030,2015,2029,2051,2093
2062,2056,2067,2035,1958,2037,2054,2087
2052,2053,2069,2023,1906,2028,2060,2082
2058,2054,2072,2026,1932,2034,2057,2078
2061,2060,2076,2031,1945,2035,2056,2067
2060,2055,2077,2034,1947,2039,2043,2045
2048,2045,2062,2033,1947,2035,2044,2022
2033,2034,2057,2017,1943,2033,2029,2019
2037,2038,2052,2013,1945,2038,2021,2022
2043,2039,2047,2018,1998,2049,2028,2019
2049,2033,2044,2025,2017,2041,2031,2015
2045,2035,2044,2032,2050,2064,2052,2021
2053,2030,2046,2047,2114,2102,2055,2025
2056,2039,2053,2058,2149,2123,2061,2026
2062,2040,2054,2052,2124,2087,2059,2030
2051,2033,2049,2052,2107,2062,2045,2026
2045,2037,2049,2054,2090,2062,2041,2030
2051,2049,2054,2048,2082,2066,2051,2014
2052,2047,2052,2040,2075,2060,2047,2018
2047,2048,2054,2040,2067,2051,2043,2020
2047,2047,2056,2045,2060,2046,2032,2031
2051,2044,2054,2045,2060,2041,2046,2038
2050,2051,2056,2048,2066,2044,2052,2040
2050,2048,2057,2050,2066,2045,2055,2046
2054,2053,2061,2055,2048,2050,2041,2066
2063,2058,2057,2058,2104,2066,2051,2077
2060,2058,2056,2059,2159,2080,2049,2084
2052,2045,2055,2064,2154,2087,2062,2088
2049,2045,2045,2068,2129,2092,2070,2099
2054,2035,2050,2071,2084,2101,2072,2096
2055,2028,2044,2053,1982,2083,2039,2075
2041,2012,2026,2042,1971,2066,2040,2077
2036,1996,2011,2048,2002,2066,2039,2082
2029,2008,2009,2042,1966,2048,2023,2077
2025,2000,2010,2037,1976,2031,2039,2062
2013,1992,2008,2044,2030,2019,2014,2050
2012,1982,2006,2032,2039,2010,2019,2049
2022,1991,2016,2053,2081,2029,2046,2044
2030,2013,2034,2095,2178,2061,2062,2056
2050,2024,2034,2106,2201,2075,2067,2056
2059,2032,2036,2093,2133,2068,2054,2050
2050,2029,2029,2075,2056,2051,2052,2038
2047,2018,2024,2060,2022,2049,2054,2029
2048,2021,2015,2047,2028,2046,2064,2019
2045,2012,2003,2039,2040,2051,2070,2023
2056,2016,2005,2027,2018,2042,2064,2024
2053,2033,2023,2020,2023,2021,2041,2001
2041,2029,2029,2002,2016,1993,2017,2011
2043,2034,2033,1999,2031,1996,2008,2016
2054,2055,2054,2016,2092,2028,2030,2017
2058,2074,2070,2041,2157,2058,2035,2018
2061,2081,2086,2055,2160,2065,2051,2034
2067,2082,2087,2051,2125,2069,2048,2042
2067,2074,2078,2037,2100,2067,2059,2053
2068,2072,2058,2034,2101,2074,2062,2058
2060,2060,2050,2042,2072,2064,2061,2056
2060,2061,2054,2044,2025,2060,2061,2065
2052,2059,2069,2052,2057,2060,2074,2068
2054,2059,2067,2052,2072,2047,2059,2074
2038,2047,2067,2052,2089,2048,2059,2080
2040,2045,2069,2049,2091,2045,2033,2094
2043,2044,2070,2048,2089,2051,2059,2100
2050,2041,2061,2042,2100,2036,2034,2096
2041,2033,2054,2041,2064,2034,2042,2103
2043,2037,2049,2030,1947,2059,2054,2095
2046,2043,2052,2018,1886,2077,2077,2097
2052,2050,2060,2025,1867,2080,2079,2092
2059,2061,2069,2015,1827,2069,2069,2073
2060,2063,2073,2020,1840,2013,2063,2070
2067,2067,2075,2025,1867,2010,2067,2069
2063,2057,2075,2034,1876,2053,2080,2061
2056,2053,2072,2029,1885,2070,2078,2062
2046,2048,2064,2034,1909,2076,2086,2049
2050,2051,2068,2044,1968,2077,2099,2050
2060,2058,2074,2068,2056,2092,2090,2036
2062,2065,2082,2097,2212,2129,2090,2035
2063,2067,2081,2116,2264,2144,2072,2037
2056,2061,2072,2105,2200,2046,2042,2040
2057,2071,2085,2104,2175,1967,2026,2038
2053,2056,2070,2087,2141,1978,2039,2025
2050,2044,2066,2082,2154,2016,2058,2029
2057,2054,2067,2091,2169,2053,2062,2033
2055,2053,2056,2090,2160,2076,2062,2038
2060,2053,2060,2089,2154,2095,2077,2040
2064,2057,2064,2078,2040,2050,2075,2042
2056,2040,2063,2036,1885,1986,2053,2036
2043,2027,2062,2035,1932,1977,2068,2043
2035,2036,2080,2067,1942,1994,2064,2050
2046,2057,2095,2087,1946,2018,2056,2046
2046,2058,2094,2089,1893,2027,2047,2041
2040,2046,2081,2071,1828,2031,2035,2037
2025,2038,2059,2082,1927,2038,2032,2048
2027,2042,2052,2092,2007,2038,2052,2063
2030,2042,2045,2110,2100,2033,2061,2090
2041,2048,2037,2135,2196,2045,2070,2094
2036,2031,2026,2136,2222,2062,2073,2091
2029,2027,2015,2125,2197,2075,2078,2093
2032,2040,2014,2099,2187,2080,2072,2085
2039,2036,2000,2079,2180,2063,2067,2078
2039,2032,1991,2042,2108,2059,2057,2075
2034,2026,1980,1993,1991,2078,2079,2064
2039,2035,1977,1972,1984,2099,2067,2064
2041,2037,1977,1964,2018,2103,2075,2051
2042,2034,1989,1957,1994,2098,2074,2051
2036,2030,1994,1961,1960,2072,2066,2047
2039,2030,1993,1967,1930,1993,2059,2055
2045,2036,2006,1991,1952,1967,2051,2057
2045,2040,2027,2001,1942,1966,2041,2044
2043,2028,2035,1986,1971,1988,2042,2030
2047,2032,2050,2012,2134,2071,2067,2043
2060,2050,2065,2039,2223,2098,2067,2040
2053,2046,2057,2039,2189,2069,2067,2046
2054,2045,2042,2064,2251,2092,2079,2054
2065,2059,2053,2079,2278,2115,2093,2060
2073,2066,2057,2073,2185,2124,2089,2048
2062,2054,2063,2068,2131,2136,2063,2041
2066,2064,2071,2074,2085,2125,2065,2052
2067,2077,2087,2074,2028,2092,2066,2053
2066,2065,2075,2047,1975,2063,2066,2049
2052,2070,2075,2047,1994,2006,2071,2059
2056,2063,2075,2061,1977,1969,2073,2070
2061,2060,2067,2070,1967,1974,2048,2070
2048,2055,2059,2090,2044,1995,2029,2058
2035,2056,2059,2090,2076,2019,2036,2066
2033,2050,2047,2083,2089,2049,2049,2069
2035,2054,2059,2104,2117,2081,2058,2082
2043,2060,2070,2104,2077,2091,2077,2079
2036,2046,2050,2078,2015,2092,2070,2075
2028,2034,2035,2079,2087,2108,2062,2079
2040,2040,2044,2090,2152,2125,2066,2086
2044,2046,2043,2055,2089,2101,2057,2075
2055,2055,2045,2045,2107,2110,2053,2069
2051,2055,2041,2053,2118,2110,2069,2072
2048,2044,2034,2052,2078,2059,2060,2067
2042,2040,2039,2052,2047,1992,2056,2065
2039,2042,2036,2052,2012,1983,2040,2040
2039,2037,2034,2048,1997,1990,2041,2027
2034,2047,2053,2059,1985,2011,2061,2021
2028,2059,2065,2078,2006,2041,2060,2030
2038,2061,2066,2066,1963,2023,2030,2031
2049,2066,2063,2053,1963,2017,2033,2031
2049,2064,2056,2050,1963,2034,2046,2032
2062,2062,2049,2053,1962,2061,2051,2036
2063,2042,2039,2062,1986,2091,2041,2025
2056,2038,2039,2054,2013,2097,2049,2018
2052,2051,2053,2056,2008,2046,2040,2039
2063,2065,2057,2055,1991,1983,2026,2047
2060,2065,2059,2031,1893,1972,2047,2048
2066,2066,2058,2029,1960,2008,2049,2046
2063,2068,2056,2040,2073,2053,2043,2054
2068,2063,2048,2048,2026,2037,2039,2065
2059,2046,2045,2045,2052,2043,2037,2062
2056,2053,2050,2079,2207,2090,2049,2059
2061,2053,2047,2092,2241,2090,2057,2051
2057,2045,2036,2045,2060,2045,2048,2048
2035,2033,2029,2035,2026,2044,2049,2051
2040,2034,2036,2067,2126,2071,2065,2062
2032,2028,2030,2085,2196,2075,2058,2056
2024,2018,2024,2081,2177,2052,2041,2063
2011,2002,2008,2055,2114,2019,2016,2055
1991,1994,2003,2043,2086,2005,2023,2069
2002,2015,2032,2056,2039,2025,2050,2078
2029,2046,2050,2078,2029,2043,2064,2090
2041,2057,2055,2076,2017,2051,2077,2089
2050,2064,2055,2071,2025,2065,2075,2081
2049,2067,2059,2073,2035,2060,2071,2076
2048,2067,2062,2076,2030,2044,2052,2054
2049,2059,2053,2067,2047,2028,2055,2048
2047,2057,2044,2059,2036,2021,2063,2038
2040,2053,2033,2030,1976,2017,2051,2033
2044,2041,2033,2029,2055,2036,2061,2028
2049,2038,2044,2052,2158,2060,2074,2036
2050,2050,2050,2087,2214,2084,2075,2042
2051,2056,2053,2098,2221,2087,2081,2041
2053,2055,2050,2082,2155,2092,2086,2054
2059,2050,2054,2061,2099,2088,2079,2051
2058,2053,2054,2063,2041,2067,2065,2036
2051,2052,2053,2040,1902,2033,2053,2035
2048,2045,2052,2033,1892,2022,2071,2034
2052,2039,2049,2045,1947,2041,2072,2034
2053,2042,2049,2040,1954,2058,2065,2037
2053,2042,2044,2035,1912,2051,2062,2037
2052,2052,2044,2050,1984,2057,2033,2051
2062,2045,2047,2066,1974,2039,2050,2061
2064,2047,2045,2047,1886,2002,2027,2060
2069,2041,2035,2029,1879,2006,2021,2066
2083,2060,2044,2040,1995,2050,2053,2077
2088,2071,2047,2060,2099,2087,2060,2079
2080,2068,2044,2084,2150,2118,2074,2088
2058,2054,2043,2093,2201,2142,2088,2100
2057,2046,2039,2108,2271,2165,2100,2104
2045,2051,2040,2114,2257,2153,2087,2092
2028,2042,2026,2090,2202,2104,2066,2097
2037,2040,2021,2072,2157,2053,2050,2090
2048,2043,2016,2066,2076,2038,2045,2076
2051,2045,2023,2060,1888,2057,2046,2059
2041,2041,2027,2064,1924,2072,2035,2042
2034,2049,2038,2072,2043,2067,2029,2041
2034,2045,2050,2078,2139,2084,2041,2042
2046,2050,2058,2075,2167,2078,2037,2055
2054,2052,2069,2071,2158,2057,2046,2043
2056,2048,2066,2035,2090,2038,2019,2026
2055,2036,2053,2010,2044,2019,2008,2022
2049,2030,2056,2004,1986,2015,2000,2016
2046,2036,2061,2018,1949,2011,1991,2015
2047,2038,2047,2012,1861,1943,1990,2021
2050,2036,2040,2021,1930,1942,2007,2004
2033,2031,2034,2041,1952,1984,2014,2009
2027,2044,2059,2066,1953,2005,2022,2011
2037,2071,2079,2090,1933,2024,2048,2028
2054,2082,2089,2093,1946,2050,2048,2038
2061,2074,2074,2078,1959,2069,2071,2037
2068,2071,2069,2069,1983,2071,2068,2039
2053,2065,2054,2053,1930,2062,2072,2044
2055,2058,2049,2046,1885,2052,2050,2046
2051,2056,2038,2040,1903,2037,2042,2039
2041,2040,2023,2029,1924,2018,2051,2045
2052,2036,2028,2045,2107,2022,2038,2051
2052,2025,2033,2054,2110,2027,2024,2049
2041,2021,2029,2080,2269,2078,2022,2056
2034,2014,2031,2119,2400,2134,2049,2057
2029,2011,2033,2100,2170,2116,2051,2054
2019,2011,2027,2059,2037,2075,2024,2049
2003,2002,2019,2022,1981,2013,2010,2056
2010,2014,2018,2028,2023,1964,2011,2053
2014,2022,2019,2050,2086,2006,2027,2045
2019,2039,2038,2072,2095,2042,2033,2066
2049,2059,2041,2063,2016,2060,2047,2068
2052,2069,2062,2085,2084,2069,2045,2069
2051,2073,2062,2096,2123,2052,2015,2059
2052,2060,2044,2090,2127,2042,2005,2051
2053,2053,2035,2076,2089,2033,2028,2036
2042,2033,2012,2045,1986,2029,2030,2024
2038,2024,2009,2045,1974,2047,2041,2026
2050,2040,2030,2080,2018,2030,2049,2017
2046,2057,2036,2073,1974,2016,2029,1998
2045,2069,2044,2077,1985,2062,2038,2000
2060,2066,2040,2080,1968,2094,2033,1996
2058,2057,2029,2062,1925,2091,2008,1983
2028,2028,2012,2043,1921,2074,2023,1981
2022,2024,2012,2051,1961,2041,2024,1994
2024,2040,2038,2089,2053,2018,2065,2015
2035,2042,2042,2107,2122,2055,2066,2025
2041,2045,2049,2111,2133,2074,2051,2019
2046,2045,2046,2109,2128,2058,2037,2017
2040,2039,2043,2104,2151,2021,2041,2022
2039,2042,2047,2115,2218,2032,2036,2036
2053,2037,2045,2127,2241,2062,2041,2050
2052,2039,2052,2120,2193,2071,2067,2054
2054,2037,2058,2097,2132,2061,2061,2045
2052,2039,2054,2078,2102,2056,2067,2036
2041,2045,2056,2076,2092,2052,2041,2041
2036,2046,2043,2067,2083,2052,2048,2067
2041,2028,2034,2051,2051,2050,2062,2081
2032,2034,2032,2044,2043,2040,2032,2081
2032,2023,2022,2038,2038,2032,2019,2077
2026,2024,2000,2021,2034,2021,2016,2077
2033,2030,2002,2015,2006,2020,2032,2079
2035,2029,2012,2000,2011,2021,2040,2085
2035,2031,2024,2015,2075,2037,2039,2092
2050,2050,2046,2020,2101,2055,2047,2090
2061,2069,2075,2027,2111,2073,2051,2077
2065,2089,2093,2040,2109,2073,2050,2072
2065,2094,2102,2049,2097,2072,2054,2055
2072,2090,2099,2050,2069,2062,2049,2045
2061,2084,2084,2050,2062,2045,2035,2040
2052,2071,2071,2049,2064,2031,2031,2038
2047,2060,2063,2036,1945,2002,2024,2030
2039,2044,2059,2032,1907,2027,2038,2023
2038,2048,2062,2075,1995,2076,2047,2017
2031,2051,2074,2100,2087,2118,2063,2020
2041,2048,2061,2114,2127,2109,2050,2015
2031,2035,2045,2105,2119,2099,2029,2012
2028,2026,2043,2116,2211,2106,2056,2022
2038,2047,2052,2124,2225,2092,2053,2021
2043,2051,2050,2107,2166,2073,2053,2040
2042,2052,2049,2088,2061,2047,2033,2039
2047,2054,2056,2069,1943,2043,2010,2029
2043,2049,2059,2032,1894,2024,2024,2019
2038,2051,2063,2007,1874,2034,2032,2028
2046,2064,2083,2017,1882,2049,2035,2038
2040,2072,2094,2044,1924,2039,2034,2043
2040,2064,2094,2058,2022,2030,2039,2061
2045,2069,2096,2093,2172,2060,2056,2070
2048,2072,2085,2105,2217,2067,2039,2071
2042,2061,2077,2105,2172,2070,2036,2071
2039,2067,2073,2091,2122,2060,2044,2066
2035,2061,2073,2082,2099,2045,2032,2059
2017,2048,2060,2071,2097,2026,2045,2070
2020,2042,2055,2068,2119,2031,2040,2071
2031,2058,2063,2065,2115,2031,2049,2075
2038,2056,2058,2049,2055,2034,2061,2074
2043,2057,2055,2031,2009,2033,2032,2067
2049,2058,2053,2042,2053,2040,2049,2067
2042,2062,2056,2042,2077,2047,2049,2054
2039,2062,2048,2049,2075,2060,2052,2045
2032,2061,2053,2047,2054,2071,2058,2038
2029,2064,2048,2036,2029,2087,2054,2027
2024,2057,2047,2045,2050,2104,2056,2032
2038,2051,2042,2053,2060,2109,2044,2025
2034,2045,2038,2050,2059,2083,2025,2019
2031,2047,2040,2045,2048,2021,2023,2010
2030,2041,2038,2044,2045,1999,2032,2009
2029,2045,2046,2042,2036,2003,2026,2014
2023,2036,2038,2047,2041,2014,2056,2018
2038,2036,2042,2035,2040,2027,2058,2026
2046,2045,2046,2042,2042,2032,2059,2032
2047,2048,2046,2039,2020,2045,2058,2042
2044,2039,2042,2034,2021,2044,2059,2046
2042,2040,2040,2032,2041,2056,2050,2034
2049,2046,2057,2052,2091,2076,2068,2041
2058,2064,2072,2080,2115,2095,2059,2052
2068,2071,2072,2085,2095,2081,2059,2054
2056,2057,2063,2073,2065,2052,2054,2053
2044,2045,2056,2062,2045,2003,2060,2056
2044,2040,2056,2071,2060,1966,2052,2079
2056,2040,2045,2065,2105,1992,2051,2078
2052,2037,2043,2091,2180,2030,2031,2085
2055,2040,2049,2079,2079,2013,2012,2088
2050,2028,2041,2072,2011,2004,2004,2065
2023,2011,2041,2076,2072,2012,2002,2064
2005,2014,2042,2077,2074,2033,2007,2066
1999,2015,2047,2068,2013,2084,2002,2067
2004,2039,2059,2061,1905,2103,2033,2069
2022,2050,2058,2046,1914,2070,2036,2076
2046,2054,2062,2044,1981,2049,2048,2071
2058,2049,2052,2033,2012,2026,2024,2059
2049,2050,2046,2049,2110,2020,2036,2042
2044,2051,2046,2072,2149,2031,2034,2034
2042,2050,2045,2065,2069,2036,2050,2031
2040,2050,2040,2056,2032,2034,2051,2027
2032,2045,2036,2053,2024,2020,2049,2020
2028,2044,2037,2044,2024,2019,2057,2005
2024,2045,2027,2048,2064,2035,2078,2018
2030,2046,2025,2051,2085,2043,2089,2036
2047,2048,2027,2044,2063,2045,2076,2024
2043,2039,2010,2013,2026,2033,2039,1993
2031,2027,1995,1993,1958,2006,2012,1993
2035,2029,2002,1981,1914,2004,2030,2021
2057,2045,2026,2003,1928,2030,2058,2034
2061,2064,2059,2029,1947,2065,2067,2027
2062,2075,2078,2037,1942,2081,2062,2020
2056,2065,2078,2032,1968,2096,2058,2020
2041,2067,2066,2029,1974,2082,2052,2032
2039,2065,2053,2036,2040,2040,2036,2039
2035,2060,2051,2042,2138,2022,2025,2038
2035,2057,2045,2047,2208,2040,2033,2046
2037,2051,2053,2070,2262,2081,2059,2052
2042,2046,2049,2074,2262,2095,2061,2066
2039,2041,2050,2059,2216,2096,2048,2057
2039,2028,2051,2053,2170,2090,2054,2071
2043,2040,2063,2065,2194,2080,2043,2060
2033,2031,2056,2058,2137,2034,2020,2045
2023,2018,2035,2034,1989,2006,2010,2049
2035,2032,2048,2047,2057,2029,2046,2068
2039,2043,2059,2064,2133,2047,2056,2064
2025,2055,2062,2060,2118,2039,2043,2063
2024,2056,2060,2063,2137,2036,2058,2060
2049,2060,2058,2071,2141,2036,2048,2052
2055,2059,2053,2059,2123,2036,2046,2045
2059,2059,2043,2043,2087,2028,2027,2044
2061,2057,2044,2011,1907,2001,2043,2035
2055,2055,2040,1991,1812,1996,2024,2025
2041,2049,2056,2053,2011,2046,2037,2018
2041,2058,2075,2094,2105,2073,2033,2017
2026,2057,2071,2091,2084,2058,2034,2016
2029,2051,2062,2074,2040,2045,2022,2019
2035,2058,2064,2070,2044,2054,2038,2012
2040,2057,2077,2072,2071,2062,2023,2009
2044,2070,2090,2079,2088,2068,2051,2013
2061,2086,2102,2091,2108,2100,2041,2024
2062,2078,2088,2087,2110,2093,2042,2015
2051,2063,2080,2069,2086,2076,2028,2005
2035,2051,2065,2061,2049,2065,2028,2003
2026,2049,2064,2059,2020,2042,2005,2010
2036,2050,2074,2061,1992,1986,2012,2025
2032,2053,2070,2049,1978,1982,2015,2028
2024,2047,2062,2037,2013,2020,2034,2042
2031,2060,2071,2041,2040,2039,2043,2058
2041,2070,2089,2050,2072,2041,2054,2074
2053,2073,2091,2060,2087,2056,2056,2078
2057,2069,2082,2058,2083,2057,2051,2079
2050,2060,2066,2053,2059,2052,2033,2090
2044,2062,2062,2041,2033,2046,2027,2082
2045,2052,2055,2034,2025,2041,2013,2075
2042,2041,2056,2032,2013,2034,2014,2073
2046,2054,2065,2037,2001,2042,2024,2076
2038,2058,2063,2032,1990,2050,2044,2070
2037,2050,2061,2041,2037,2059,2046,2061
2031,2049,2054,2032,2057,2061,2055,2059
2035,2053,2060,2041,2068,2054,2060,2054
2035,2057,2066,2051,2060,2039,2045,2049
2045,2065,2068,2071,2087,2031,2031,2042
2042,2061,2071,2071,2083,2039,2029,2035
2042,2065,2064,2068,2045,2033,2015,2021
2038,2062,2067,2069,2053,2042,2022,2013
2036,2055,2052,2060,2051,2074,2032,2004
2030,2046,2044,2039,2043,2054,2030,2000
2028,2038,2036,2019,2013,2051,2031,1997
2029,2036,2032,2031,2016,2058,2035,1994
2020,2030,2036,2034,2002,2040,2050,2002
2037,2039,2052,2053,2040,2034,2051,2020
2058,2061,2068,2080,2095,2056,2071,2025
2057,2058,2062,2081,2086,2052,2065,2019
2041,2057,2061,2067,2058,2056,2061,2019
2043,2050,2053,2063,2007,2043,2071,2021
2045,2052,2034,2065,1973,2030,2064,2033
2048,2050,2033,2068,1991,2025,2056,2045
2046,2051,2032,2065,2002,2027,2057,2044
2044,2048,2039,2078,2001,2018,2052,2050
2034,2033,2035,2078,2007,2025,2060,2050
2034,2043,2043,2073,2027,2019,2061,2054
2030,2038,2030,2050,2028,2001,2046,2057
2034,2032,2026,2053,2128,2026,2048,2066
2038,2035,2034,2075,2206,2055,2061,2070
2046,2042,2048,2094,2177,2054,2054,2066
2034,2033,2038,2081,2155,2059,2037,2075
2034,2031,2034,2079,2141,2070,2060,2075
2044,2041,2039,2078,2097,2070,2057,2080
2040,2045,2041,2067,2077,2068,2073,2082
2048,2052,2046,2060,2078,2065,2059,2075
2056,2050,2048,2056,2069,2060,2068,2060
2051,2057,2048,2053,2075,2056,2051,2053
2040,2048,2056,2051,2081,2062,2059,2034
2030,2049,2057,2055,2084,2053,2057,2038
2038,2041,2055,2049,2078,2056,2057,2044
2043,2041,2059,2047,2066,2068,2067,2040
2041,2047,2047,2048,2078,2068,2047,2036
2050,2049,2052,2046,2057,2047,2058,2029
2041,2049,2054,2046,2044,2045,2047,2029
2046,2051,2061,2057,2046,2072,2066,2019
2050,2058,2058,2062,2040,2085,2056,2011
2032,2035,2037,2045,2033,2070,2040,1998
2021,2031,2029,2038,2042,2070,2033,2008
2031,2043,2042,2055,2082,2058,2051,2026
2040,2046,2037,2062,2108,2054,2061,2022
2055,2039,2036,2048,2085,2070,2068,2029
2040,2034,2036,2043,2064,2069,2069,2032
2043,2046,2039,2049,2118,2058,2050,2034
2043,2045,2049,2062,2174,2055,2074,2046
2046,2046,2053,2076,2160,2048,2077,2049
2042,2050,2054,2063,2083,2031,2069,2053
2036,2047,2051,2060,2038,2041,2077,2066
2035,2043,2061,2069,2064,2066,2088,2082
2050,2060,2071,2074,2048,2083,2080,2083
2045,2060,2070,2039,1950,2101,2066,2075
2049,2047,2061,2009,1822,2094,2042,2074
2040,2041,2048,1988,1785,2043,2032,2060
2029,2029,2035,1988,1859,2019,2017,2070
2029,2036,2046,2034,1973,1975,2045,2098
2056,2064,2068,2098,2106,1988,2065,2104
2054,2059,2062,2101,2144,2043,2076,2085
2049,2050,2054,2079,2113,2084,2084,2082
2047,2055,2047,2062,2073,2076,2067,2066
2046,2054,2042,2044,2040,2042,2054,2052
2039,2052,2046,2042,2038,2030,2040,2048
2044,2060,2053,2066,2089,2031,2047,2044
2040,2057,2047,2065,2084,2024,2038,2043
2039,2046,2044,2053,2063,2041,2041,2042
2047,2053,2039,2063,2075,2065,2066,2044
2054,2061,2057,2082,2093,2080,2062,2039
2058,2064,2070,2083,2100,2083,2070,2034
2052,2056,2068,2084,2100,2079,2062,2029
2053,2054,2067,2082,2092,2078,2060,2029
2044,2041,2059,2070,2072,2058,2044,2023
2048,2041,2062,2060,2038,2028,2051,2026
2048,2048,2054,2045,2003,1988,2044,2018
2031,2044,2054,2050,1979,1992,2051,2020
2040,2053,2065,2072,2013,2020,2051,2020
2043,2056,2072,2094,2049,2026,2061,2028
2045,2046,2056,2084,2093,2038,2066,2034
2049,2041,2052,2083,2140,2067,2074,2040
2043,2038,2050,2090,2158,2084,2069,2039
2045,2043,2053,2083,2134,2094,2064,2046
2051,2043,2055,2075,2110,2097,2061,2054
2050,2037,2046,2057,2061,2087,2055,2062
2046,2025,2032,2030,1951,2063,2038,2060
2035,2026,2037,2015,1896,2002,2038,2063
2039,2029,2042,2036,1971,1997,2043,2074
2039,2034,2038,2044,2011,2023,2022,2079
2039,2021,2028,2041,2010,2035,2034,2069
2030,2032,2027,2043,1993,2036,2045,2089
2054,2038,2040,2057,2010,2026,2047,2103
2061,2038,2039,2059,2054,2012,2035,2090
2061,2041,2034,2042,2076,1996,2027,2080
2058,2054,2035,2051,2136,2006,2024,2072
2054,2060,2033,2048,2076,2014,2014,2058
2057,2035,2020,2046,2063,2042,2016,2036
2030,2006,2000,2032,2061,2068,2027,2029
2028,2021,2015,2043,2083,2074,2032,2035
2045,2051,2038,2048,2076,2073,2061,2037
2047,2066,2057,2038,2080,2037,2054,2043
2052,2068,2050,2041,2119,2022,2042,2040
2043,2061,2041,2024,2068,2015,2051,2040
2047,2061,2056,2024,1989,2021,2049,2031
2046,2062,2070,2030,1991,2014,2031,2029
2033,2049,2059,2015,1997,1995,2012,2013
2039,2045,2065,2017,2026,2002,1999,2006
2039,2050,2067,2021,2059,2014,1990,2004
2037,2038,2050,2018,2076,2041,2004,2014
2037,2043,2064,2033,2074,2065,2038,2028
2041,2062,2075,2053,2096,2079,2029,2040
2042,2070,2080,2057,2097,2071,2052,2039
2042,2064,2075,2050,2080,2058,2043,2050
2036,2058,2061,2046,2064,2052,2042,2041
2033,2040,2054,2050,2057,2057,2059,2056
2035,2042,2056,2053,2010,2055,2055,2067
2035,2049,2060,2058,2022,2048,2046,2076
2043,2055,2067,2059,2001,2041,2054,2082
2051,2058,2068,2053,1966,2026,2041,2090
2054,2066,2065,2048,1956,2017,2042,2092
2050,2063,2065,2041,1976,2016,2022,2099
2046,2052,2050,2036,2016,2017,2022,2090
2038,2045,2043,2024,2048,2024,2030,2093
2049,2061,2063,2046,2139,2060,2040,2096
2063,2064,2062,2063,2172,2076,2047,2095
2060,2058,2056,2060,2171,2084,2057,2088
2061,2056,2056,2065,2168,2093,2044,2066
2048,2052,2056,2061,2133,2076,2031,2062
2052,2054,2048,2045,2086,2048,2021,2056
2056,2057,2044,2046,2085,2049,2032,2061
2058,2063,2043,2043,2086,2052,2047,2047
2059,2050,2032,2018,2006,2027,2035,2037
2045,2043,2023,1994,1889,2006,2039,2027
2033,2044,2024,2018,1979,2031,2033,2021
2038,2051,2038,2040,2030,2042,2050,2030
2054,2062,2041,2042,2041,2052,2057,2039
2067,2058,2032,2039,2035,2041,2045,2024
2045,2032,2014,2020,1998,2014,2030,2013
2044,2036,2009,2010,1974,2003,2034,2014
2042,2042,2025,2013,1979,2011,2045,2012
2057,2049,2030,2012,1988,2028,2054,2019
2056,2050,2041,2036,2030,2057,2049,2022
2061,2055,2043,2052,2064,2066,2070,2033
2056,2052,2042,2060,2104,2079,2093,2033
2040,2047,2034,2068,2120,2086,2084,2045
2037,2045,2028,2060,2068,2072,2074,2038
2050,2048,2026,2054,2026,2048,2060,2052
2047,2042,2026,2053,2046,2057,2057,2057
2051,2044,2035,2062,2101,2069,2054,2059
2046,2045,2025,2070,2089,2064,2057,2072
2056,2044,2033,2066,2066,2049,2058,2077
2064,2048,2032,2058,2040,2043,2053,2079
2063,2034,2028,2056,2038,2036,2049,2076
2036,2019,2015,2056,2030,2024,2034,2072
2031,2020,2032,2067,2012,2026,2055,2082
2032,2037,2054,2076,2030,2033,2041,2073
2039,2037,2051,2086,2056,2045,2033,2070
2038,2031,2052,2099,2059,2058,2031,2068
2036,2032,2054,2103,2061,2074,2044,2069
2044,2033,2041,2084,2033,2076,2037,2069
2043,2028,2030,2074,2018,2075,2055,2056
2057,2039,2024,2072,2015,2068,2066,2053
2049,2045,2018,2065,2030,2047,2072,2055
2052,2044,2026,2066,2059,2040,2075,2052
2056,2050,2026,2072,2069,2057,2083,2047
2055,2055,2020,2057,2051,2056,2050,2042
2058,2058,2017,2049,2042,2056,2032,2030
2052,2062,2015,2055,2097,2074,2039,2012
2044,2057,2018,2058,2114,2062,2040,2006
2032,2031,1997,2013,2052,2029,2016,2017
2037,2016,1979,1986,2019,2018,2006,2032
2051,2034,2012,1999,2066,2033,2031,2046
2066,2051,2065,2018,2059,2028,2034,2053
2080,2062,2095,2028,2040,2024,2030,2049
2069,2065,2097,2034,2039,2029,2014,2029
2053,2066,2094,2053,2053,2038,2032,2020
2048,2062,2084,2063,2058,2037,2039,2033
2046,2051,2070,2065,2056,2035,2050,2043
2048,2054,2075,2070,2067,2039,2032,2050
2050,2053,2087,2075,2068,2044,2015,2063
2049,2057,2090,2081,2067,2052,2035,2067
2047,2060,2096,2073,2070,2047,2056,2076
2053,2064,2091,2071,2062,2049,2044,2085
2044,2058,2077,2064,2070,2035,2032,2086
2050,2054,2077,2072,2061,2036,2030,2090
2032,2037,2070,2068,2061,2035,2042,2083
2029,2032,2072,2069,2057,2047,2054,2084
2039,2045,2075,2067,2052,2042,2043,2080
2035,2039,2065,2055,2042,2035,2025,2062
2039,2042,2061,2049,2034,2027,2035,2068
2042,2046,2053,2039,2037,2024,2032,2065
2042,2050,2052,2044,2039,2031,2052,2058
2053,2049,2053,2042,2039,2028,2033,2049
2054,2057,2054,2034,2040,2027,2026,2047
2052,2062,2051,2030,2037,2030,2027,2034
2052,2068,2063,2038,2037,2037,2036,2034
2049,2071,2064,2036,2045,2037,2042,2033
2055,2071,2053,2030,2042,2032,2032,2025
2051,2060,2037,2030,2039,2031,2030,2020
2045,2058,2042,2033,2044,2030,2034,2020
2054,2049,2042,2027,2038,2026,2014,2008
2041,2033,2034,2026,2032,2035,2040,2013
2040,2042,2041,2039,2048,2054,2062,2032
2060,2061,2049,2051,2061,2058,2060,2032
2063,2047,2033,2049,2057,2055,2035,2034
2069,2049,2032,2044,2053,2053,2032,2032
2059,2044,2026,2038,2036,2042,2034,2031
2060,2046,2024,2048,2049,2045,2036,2031
2066,2040,2017,2046,2055,2043,2028,2024
2050,2024,2000,2040,2042,2027,2031,2032
2042,2017,1993,2049,2060,2045,2037,2053
2049,2029,2005,2064,2078,2066,2046,2069
2057,2040,2019,2078,2083,2072,2075,2075
2059,2047,2032,2070,2072,2066,2060,2080
2057,2044,2025,2064,2062,2059,2052,2085
2056,2033,2011,2046,2051,2045,2064,2092
2045,2021,1999,2029,2036,2032,2018,2081
2023,2022,2001,2032,2036,2027,2012,2074
2023,2036,2020,2042,2042,2038,2028,2081
2046,2042,2023,2040,2027,2042,2053,2081
2052,2041,2020,2037,2012,2041,2042,2077
2050,2043,2026,2038,2011,2044,2059,2077
2043,2051,2036,2033,2015,2045,2052,2063
2052,2053,2047,2034,2018,2046,2061,2055
2056,2066,2054,2037,2010,2052,2068,2043
2055,2060,2064,2018,2004,2049,2036,2032
2056,2056,2064,2011,1999,2046,2038,2028
2051,2061,2065,2019,2014,2045,2045,2028
2044,2058,2059,2008,2015,2036,2048,2024
2047,2055,2046,2000,2030,2040,2046,2024
2043,2054,2039,1997,2014,2044,2033,2025
2052,2061,2031,1994,2012,2042,2047,2029
2059,2057,2031,1989,2014,2027,2041,2016
2051,2041,2032,1990,2034,2018,2046,2017
2059,2048,2049,2016,2051,2026,2068,2032
2062,2068,2074,2033,2051,2038,2077,2030
2060,2074,2075,2037,2062,2057,2080,2029
2061,2068,2057,2041,2079,2063,2082,2033
2065,2057,2051,2043,2094,2060,2083,2041
2064,2054,2061,2055,2086,2050,2078,2046
2062,2059,2066,2057,2080,2034,2069,2046
2064,2058,2049,2063,2078,2041,2078,2057
2062,2059,2031,2060,2086,2038,2082,2061
2055,2052,1994,2054,2082,2036,2082,2070
2055,2041,1977,2035,2042,2035,2089,2087
2053,2036,1966,2025,1979,2022,2081,2085
2048,2025,1946,2009,1973,2020,2069,2087
2054,2029,1944,1999,1988,2036,2090,2091
2061,2030,1949,2013,2013,2052,2071,2086
2055,2014,1964,2027,2002,2039,2064,2074
2038,1996,1970,2034,1995,2010,2059,2057
2023,1981,1988,2038,2006,1972,2054,2050
2012,1966,1998,2058,2039,1978,2055,2047
2024,1981,2003,2069,2056,1992,2063,2052
2040,1981,2006,2064,2066,2040,2070,2049
2061,2008,2041,2105,2100,2095,2072,2044
2070,2027,2104,2128,2108,2121,2060,2037
2068,2037,2141,2143,2104,2108,2057,2028
2051,2034,2146,2147,2089,2094,2068,2022
2045,2040,2132,2145,2078,2082,2066,2018
2038,2044,2121,2147,2090,2080,2056,2005
2034,2067,2130,2179,2111,2082,2065,1999
2050,2083,2137,2194,2132,2090,2076,1994
2055,2099,2132,2184,2162,2083,2068,1998
2047,2085,2093,2133,2118,2040,2049,2002
2038,2052,2037,2074,1988,1990,2048,2009
2042,2050,2012,2066,1941,1992,2058,2014
2059,2069,1999,2069,1934,2005,2066,2026
2062,2083,2004,2066,1966,2022,2077,2016
2070,2086,2012,2076,1992,2027,2075,2020
2066,2067,2012,2058,1994,2024,2068,2028
2045,2054,2020,2023,1977,2027,2067,2029
2050,2062,2057,2024,2046,2037,2075,2047
2061,2077,2076,1998,2054,2049,2081,2064
2065,2085,2094,1988,2088,2063,2089,2079
2073,2095,2113,1994,2106,2073,2099,2075
2083,2102,2114,2002,2099,2082,2111,2095
2083,2102,2096,1989,2041,2065,2094,2102
2082,2079,2076,1967,1973,2038,2081,2107
2080,2066,2057,1958,1951,2034,2090,2105
2077,2061,2052,1980,2020,2052,2075,2098
2062,2044,2044,1992,2040,2053,2080,2091
2059,2037,2055,1999,2038,2052,2077,2091
2068,2041,2052,2004,2023,2054,2066,2084
2058,2041,2057,2005,2001,2041,2073,2082
2063,2048,2067,2009,1998,2036,2055,2074
2054,2060,2053,2019,2015,2041,2049,2080
2071,2059,2029,2021,2040,2046,2057,2069
2068,2056,2001,2031,2060,2045,2055,2060
2059,2050,1990,2029,2051,2039,2059,2047
2062,2040,1991,2024,2035,2037,2051,2048
2052,2045,2002,2037,2030,2035,2057,2050
2045,2053,2024,2044,2028,2029,2053,2043
2048,2060,2034,2048,2016,2022,2030,2042
2042,2066,2046,2041,2008,2016,2030,2044
2055,2077,2076,2037,2013,2015,2032,2035
2058,2093,2089,2031,2000,2022,2029,2017
2048,2079,2080,2001,1992,2049,2037,2016
2040,2076,2091,2003,2012,2070,2045,2020
2051,2085,2115,2019,2026,2077,2021,2028
2055,2087,2116,2029,2028,2084,2044,2038
2062,2096,2128,2055,2058,2049,2055,2065
2074,2101,2135,2084,2096,2015,2048,2070
2070,2097,2121,2089,2101,2019,2045,2059
2067,2091,2124,2098,2109,2045,2062,2062
2063,2090,2135,2104,2102,2065,2065,2060
2066,2085,2153,2105,2074,2067,2055,2063
2056,2074,2145,2110,2077,2056,2064,2074
2054,2071,2138,2105,2081,2062,2066,2078
2051,2070,2124,2108,2088,2069,2060,2080
2050,2066,2107,2087,2048,2049,2059,2078
2048,2066,2104,2079,2036,2054,2059,2088
2054,2069,2105,2102,2056,2060,2054,2095
2055,2055,2088,2097,2051,2053,2043,2091
2055,2043,2067,2089,2029,2051,2025,2094
2057,2051,2063,2084,1991,2060,2026,2092
2051,2050,2046,2061,1967,2051,2041,2075
2041,2037,2028,2034,1964,2040,2013,2054
2024,2021,2010,2007,1944,2008,2012,2052
2028,2025,2016,2009,1945,1971,2013,2050
2039,2050,2037,2016,1969,1983,2036,2045
2043,2056,2030,2014,1997,2007,2057,2056
2051,2057,2028,2014,2019,2039,2054,2051
2055,2055,2025,2023,2055,2068,2074,2046
2060,2058,2026,2045,2085,2078,2083,2038
2065,2054,2014,2041,2083,2078,2087,2031
2056,2034,2000,2036,2067,2079,2082,2033
2051,2036,2005,2033,2055,2073,2078,2031
2052,2043,2007,2031,2033,2042,2052,2022
2040,2031,1983,2008,1998,2025,2044,2008
2033,2024,1970,2002,2014,2033,2045,2018
2039,2034,1983,2030,2048,2052,2075,2026
2036,2032,1997,2039,2056,2062,2078,2022
2043,2036,2005,2040,2078,2083,2093,2036
2059,2061,2031,2044,2081,2097,2085,2041
2069,2065,2063,2045,2065,2084,2082,2049
2080,2073,2083,2045,2045,2071,2070,2056
2082,2073,2086,2032,2028,2053,2081,2066
2081,2068,2082,2022,2024,2048,2084,2059
2070,2067,2091,2027,2020,2046,2072,2064
2055,2066,2099,2034,2033,2050,2063,2070
2054,2068,2102,2063,2092,2064,2047,2088
2056,2077,2097,2083,2117,2085,2070,2096
2058,2071,2081,2075,2088,2091,2074,2100
2058,2064,2059,2057,2053,2095,2058,2095
2037,2042,2036,2027,1991,2078,2053,2093
2030,2039,2036,2028,2013,2090,2061,2096
2055,2064,2055,2052,2050,2057,2062,2091
2055,2052,2047,2040,2017,1998,2054,2082
2038,2032,2034,2033,1998,1986,2046,2077
2040,2038,2042,2033,2006,2011,2054,2077
2053,2060,2056,2046,2022,2030,2047,2067
2047,2061,2046,2033,2006,2027,2051,2071
2047,2061,2053,2044,2009,2031,2041,2058
2052,2069,2059,2048,2047,2031,2049,2049
2058,2062,2056,2043,2063,2023,2052,2045
2052,2056,2059,2039,2032,2020,2055,2029
2042,2048,2050,2023,2020,2032,2035,2019
2047,2053,2059,2038,2044,2049,2040,2022
2053,2062,2075,2068,2065,2072,2049,2023
2056,2066,2072,2062,2068,2070,2037,2020
2050,2052,2059,2050,2064,2071,2029,2014
2045,2048,2046,2052,2070,2053,2059,2030
2047,2057,2050,2062,2068,2042,2070,2037
2052,2057,2042,2064,2064,2053,2070,2035
2058,2063,2035,2074,2064,2062,2057,2034
2058,2062,2035,2084,2068,2064,2071,2032
2059,2057,2037,2087,2068,2056,2055,2043
2057,2057,2037,2076,2077,2060,2045,2052
2049,2051,2028,2073,2076,2063,2035,2049
2054,2050,2029,2070,2073,2067,2047,2057
2059,2056,2040,2067,2078,2063,2063,2064
2058,2058,2035,2055,2058,2056,2066,2070
2060,2054,2034,2040,2046,2072,2051,2080
2060,2046,2027,2033,2037,2083,2052,2077
2046,2041,2018,2031,2029,2086,2060,2079
2042,2032,2006,2025,2032,2087,2048,2070
2043,2027,2004,2026,2032,2068,2018,2074
2028,2026,2014,2049,2050,2017,2042,2097
2042,2046,2036,2071,2066,2014,2058,2102
2057,2052,2041,2066,2069,2035,2052,2098
2054,2052,2035,2063,2053,2050,2051,2086
2061,2053,2028,2060,2051,2043,2046,2082
2059,2059,2018,2056,2055,2046,2045,2074
2067,2057,2019,2045,2046,2045,2041,2065
2064,2055,2020,2039,2040,2039,2057,2057
2057,2050,2023,2033,2041,2038,2044,2048
2053,2048,2023,2032,2038,2038,2042,2046
2060,2054,2034,2034,2044,2045,2039,2040
2068,2050,2034,2034,2042,2045,2065,2044
2061,2047,2034,2034,2038,2045,2051,2041
2060,2055,2050,2042,2054,2056,2055,2042
2061,2056,2051,2048,2055,2059,2060,2029
2051,2043,2034,2036,2052,2055,2036,2021
2033,2034,2043,2035,2048,2056,2028,2012
2031,2036,2047,2037,2045,2051,2047,2028
2040,2042,2052,2040,2026,2039,2035,2026
2049,2037,2059,2036,2010,2029,2056,2032
2052,2050,2069,2034,1998,2032,2039,2037
2056,2055,2067,2039,1999,2043,2037,2038
2061,2054,2067,2030,1978,2058,2033,2037
2049,2049,2059,2013,1948,2057,2046,2021
2038,2034,2048,2004,1948,2055,2024,2023
2033,2038,2047,2012,1970,2052,2032,2049
2042,2046,2063,2030,1997,2008,2036,2076
2054,2057,2068,2054,2061,1993,2048,2082
2052,2054,2063,2068,2102,2029,2052,2086
2052,2051,2068,2071,2106,2066,2060,2096
2054,2063,2072,2070,2095,2085,2058,2097
2053,2070,2081,2067,2067,2072,2051,2085
2047,2057,2072,2057,2044,2067,2043,2088
2043,2060,2070,2058,2039,2072,2064,2095
2056,2064,2069,2063,2026,2067,2067,2101
2053,2054,2057,2060,1983,2065,2065,2092
2045,2046,2045,2045,2000,2068,2053,2085
2056,2045,2035,2045,2004,2070,2072,2083
2053,2046,2038,2052,2000,2069,2068,2076
2064,2061,2057,2066,1999,2070,2076,2073
2064,2063,2059,2057,2012,2071,2060,2049
2055,2066,2065,2062,2021,2072,2055,2050
2059,2059,2060,2062,2030,2056,2060,2037
2053,2053,2049,2058,2054,2047,2066,2037
2041,2045,2053,2083,2118,2057,2054,2034
2050,2058,2066,2098,2116,2051,2044,2027
2058,2051,2076,2113,2095,2063,2050,2018
2052,2051,2082,2105,2078,2060,2029,2002
2032,2026,2061,2092,2056,2057,2024,2000
2031,2016,2060,2091,2051,2074,2045,2017
2052,2037,2065,2088,2076,2067,2047,2018
2052,2041,2064,2086,2097,2044,2056,2022
2055,2048,2078,2082,2098,2034,2055,2028
2058,2056,2095,2078,2047,2033,2072,2029
2059,2055,2101,2063,2024,2038,2070,2041
2057,2053,2088,2048,2040,2036,2072,2054
2046,2048,2065,2044,2030,2036,2069,2051
2047,2036,2039,2034,2029,2038,2083,2063
2035,2025,2008,2012,2030,2045,2064,2066
2038,2026,2007,2008,2037,2052,2069,2071
2038,2023,2003,2011,2040,2054,2065,2079
2033,2030,2015,2017,2045,2055,2092,2084
2035,2038,2023,2016,2043,2052,2080,2094
2036,2030,2013,2012,2039,2033,2061,2087
2040,2021,2010,2009,2036,2041,2053,2085
2039,2028,2008,2013,2029,2050,2064,2080
2055,2050,2013,2019,2022,2036,2063,2086
2061,2052,2015,2024,2010,2021,2049,2078
2064,2051,2013,2027,2010,2031,2051,2070
2061,2057,2011,2018,2006,2034,2047,2071
2061,2057,2002,2004,2010,2031,2068,2078
2057,2056,2012,2000,1999,2011,2043,2070
2067,2064,2041,2014,2005,2000,2039,2067
2072,2084,2062,2015,2008,2016,2046,2062
2067,2082,2060,2017,2011,2070,2063,2040
2064,2076,2069,2022,2067,2103,2068,2039
2064,2082,2080,2028,2085,2116,2054,2025
2062,2078,2083,2035,2080,2091,2062,2029
2076,2077,2079,2033,2060,2021,2052,2037
2074,2080,2081,2038,2033,1970,2036,2030
2056,2064,2068,2031,2033,1972,2044,2023
2046,2061,2070,2030,2037,2021,2056,2028
2063,2075,2074,2040,2069,2078,2067,2026
2059,2060,2060,2034,1979,2068,2056,2019
2049,2056,2047,2022,1948,2054,2044,2014
2045,2050,2055,2030,2020,2038,2048,2024
2053,2055,2069,2058,2078,2013,2062,2045
2058,2063,2078,2074,2118,2018,2074,2065
2071,2066,2072,2077,2125,2030,2084,2065
2065,2062,2072,2080,2146,2049,2075,2074
2069,2062,2068,2100,2147,2057,2071,2080
2060,2056,2062,2116,2114,2055,2076,2087
2058,2060,2057,2123,2094,2066,2083,2088
2064,2067,2059,2114,2066,2061,2058,2092
2060,2063,2053,2103,2050,2063,2061,2104
2064,2063,2048,2105,2057,2055,2055,2101
2058,2044,2033,2087,2034,2057,2056,2086
2055,2035,2026,2074,2002,2044,2049,2074
2061,2044,2033,2073,1999,2039,2039,2079
2059,2051,2039,2066,2006,2051,2054,2067
2047,2054,2031,2047,2038,2070,2062,2075
2045,2057,2032,2047,2092,2086,2077,2074
2052,2052,2029,2039,2117,2081,2074,2061
2047,2053,2023,2041,2127,2080,2063,2055
2046,2054,2023,2031,2122,2080,2057,2048
2050,2045,2024,2014,2105,2072,2062,2046
2047,2043,2014,1999,2105,2062,2061,2038
2054,2044,2014,1983,2030,2030,2053,2025
2053,2041,2021,1961,1929,2013,2050,2026
2060,2050,2033,1971,1912,2026,2064,2034
2062,2059,2040,1985,1938,2033,2063,2036
2065,2052,2032,1994,1966,2035,2060,2024
2043,2025,2012,1999,1972,2031,2045,2017
2027,2019,2007,2010,1986,2031,2056,2029
2043,2037,2025,2032,1994,2041,2064,2037
2045,2034,2027,2045,2026,2047,2059,2042
2046,2041,2046,2071,2061,2062,2070,2045
2052,2052,2060,2080,2064,2066,2062,2050
2053,2052,2064,2066,2058,2056,2049,2053
2059,2049,2067,2046,2072,2059,2059,2061
2058,2051,2063,2027,2086,2056,2064,2068
2061,2045,2056,2021,2094,2059,2061,2064
2058,2048,2055,2026,2074,2061,2058,2062
2047,2056,2049,2034,2064,2072,2059,2081
2062,2049,2045,2040,2051,2067,2062,2086
2069,2053,2040,2040,2052,2062,2058,2091
2055,2042,2025,2037,2043,2051,2030,2092
2052,2036,2030,2046,2047,2016,2018,2100
2040,2024,2016,2048,2046,2013,2036,2102
2041,2029,2014,2042,2038,2025,2041,2099
2049,2044,2021,2050,2045,2043,2064,2098
2057,2055,2029,2050,2044,2054,2054,2100
2062,2053,2034,2045,2058,2048,2048,2087
2070,2055,2036,2045,2057,2055,2048,2088
2066,2049,2042,2042,2047,2053,2054,2077
2065,2041,2041,2038,2040,2051,2050,2062
2052,2040,2035,2031,2039,2050,2038,2058
2051,2041,2036,2031,2036,2050,2044,2042
2055,2042,2037,2032,2036,2056,2039,2039
2049,2050,2046,2039,2048,2061,2041,2041
2061,2058,2053,2050,2050,2060,2054,2032
2058,2057,2060,2043,2038,2057,2048,2033
2053,2066,2060,2039,2040,2058,2058,2024
2046,2059,2061,2039,2035,2048,2049,2017
2023,2042,2042,2021,2027,2038,2038,2020
2029,2042,2034,2025,2024,2040,2053,2037
2055,2055,2047,2040,2036,2044,2063,2044
2064,2058,2044,2034,2033,2040,2071,2044
2064,2051,2035,2033,2039,2044,2064,2047
2060,2052,2034,2048,2062,2054,2062,2052
2058,2054,2045,2058,2080,2064,2073,2056
2060,2044,2027,2050,2070,2064,2050,2066
2052,2034,2008,2041,2056,2046,2054,2060
2044,2029,2012,2039,2050,2050,2065,2057
2035,2032,2017,2041,2053,2048,2057,2065
2044,2032,2019,2042,2052,2048,2062,2077
2052,2019,2021,2046,2049,2043,2056,2083
2048,2023,2018,2044,2055,2054,2068,2088
2056,2044,2041,2059,2060,2069,2071,2100
2052,2038,2029,2044,2061,2058,2061,2089
2022,2020,2020,2042,2048,2046,2043,2071
2004,2021,2038,2045,2046,2053,2057,2078
2032,2052,2060,2056,2043,2047,2059,2086
2041,2046,2046,2050,2036,2039,2053,2083
2046,2046,2033,2045,2029,2029,2056,2073
2047,2049,2024,2045,2035,2031,2042,2074
2044,2046,2025,2046,2027,2027,2024,2070
2047,2036,2022,2039,2019,2023,2036,2055
2045,2039,2020,2051,2029,2031,2055,2055
2051,2052,2037,2059,2030,2028,2051,2063
2060,2059,2040,2061,2031,2033,2061,2060
2064,2055,2043,2059,2036,2043,2053,2045
2051,2053,2043,2075,2040,2036,2054,2037
2045,2058,2056,2070,2037,2038,2056,2028
2047,2062,2076,2065,2041,2040,2032,2031
2053,2057,2090,2057,2035,2030,2037,2028
2040,2036,2070,2042,2029,2032,2036,2023
2037,2036,2064,2026,2033,2042,2039,2031
2052,2054,2068,2028,2028,2045,2026,2029
2051,2056,2064,2022,2029,2050,2043,2036
2046,2060,2072,2023,2004,2059,2038,2044
2052,2058,2080,2030,2020,2065,2049,2050
2052,2066,2083,2028,2033,2067,2045,2060
2055,2066,2078,2031,2030,2064,2051,2074
2056,2067,2089,2041,2029,2061,2065,2075
2053,2066,2085,2047,2009,2058,2077,2078
2055,2066,2080,2044,1994,2045,2069,2080
2059,2064,2069,2038,1992,2040,2071,2098
2056,2056,2062,2021,1981,2031,2063,2104
2054,2050,2050,2008,1996,2030,2065,2101
2044,2051,2055,2019,2027,2063,2069,2110
2053,2064,2069,2047,2052,2088,2077,2115
2054,2061,2067,2057,2063,2082,2072,2108
2051,2068,2072,2064,2079,2096,2069,2126
2063,2080,2087,2073,2086,2104,2070,2119
2068,2067,2080,2066,2066,2093,2058,2113
2071,2071,2070,2057,2055,2106,2054,2112
2071,2066,2070,2061,2060,2106,2060,2098
2066,2071,2065,2059,2055,2088,2037,2088
2069,2069,2068,2052,2027,2049,2023,2073
2072,2063,2065,2041,2003,1980,2020,2059
2058,2064,2056,2029,2004,1967,1996,2041
2050,2052,2040,2022,2002,1983,1998,2028
2033,2035,2032,2024,2026,2014,2019,2030
2041,2036,2039,2052,2055,2038,2044,2036
2050,2038,2056,2063,2058,2039,2042,2041
2046,2043,2047,2066,2051,2043,2036,2047
2046,2041,2044,2065,2055,2036,2034,2039
2047,2030,2023,2053,2032,2022,2026,2032
2041,2020,2016,2043,2027,2027,2018,2029
2033,2025,2019,2046,2010,2040,2016,2028
2040,2038,2023,2049,1968,2036,2021,2028
2051,2038,2025,2050,1988,2036,2038,2029
2046,2049,2032,2052,2015,2041,2040,2040
2046,2042,2023,2062,2011,2055,2036,2045
2049,2045,2026,2064,2007,2062,2034,2046
2050,2040,2020,2067,2023,2071,2024,2044
2048,2034,2024,2057,2018,2066,2018,2058
2047,2044,2030,2058,2015,2037,2039,2065
2050,2050,2041,2060,2031,2027,2057,2082
2049,2054,2043,2071,2060,2032,2043,2084
2048,2045,2040,2057,2065,2040,2030,2092
2053,2049,2032,2049,2096,2065,2061,2093
2045,2041,2027,2044,2104,2073,2052,2096
2046,2039,2043,2030,2064,2058,2028,2094
2027,2027,2044,2016,2017,2050,2015,2092
2025,2028,2047,2006,1986,2045,2035,2099
2043,2049,2047,2006,1966,2033,2042,2102
2041,2042,2041,1995,1948,2012,2042,2105
2045,2046,2052,2007,1965,1988,2036,2100
2050,2048,2059,2018,1976,2006,2040,2086
2047,2052,2061,2020,2011,2047,2035,2060
2034,2056,2061,2010,2014,2073,2011,2052
2047,2061,2055,2011,2022,2086,2039,2051
2052,2063,2051,2021,2039,2092,2024,2044
2060,2063,2046,2025,2045,2067,2024,2049
2064,2064,2056,2047,2083,1980,2045,2073
2070,2077,2071,2083,2158,1978,2059,2064
2068,2085,2081,2085,2164,2022,2049,2059
2074,2078,2075,2077,2134,2057,2051,2061
2069,2076,2082,2068,2030,2038,2042,2050
2064,2061,2072,2050,1947,2000,2024,2039
2052,2045,2067,2041,1977,2003,2019,2041
2045,2043,2069,2054,2040,2030,2019,2043
2057,2050,2072,2069,2125,2061,2048,2046
2056,2062,2069,2075,2127,2072,2045,2051
2061,2064,2073,2065,2038,2052,2038,2058
2064,2060,2062,2057,2038,2057,2054,2066
2062,2064,2063,2068,2106,2068,2074,2059
2062,2057,2060,2066,2124,2065,2052,2062
2061,2049,2058,2069,2122,2057,2046,2061
2064,2056,2057,2068,2126,2007,2040,2068
2055,2052,2057,2070,2136,1972,2024,2076
2053,2054,2057,2070,2096,1978,2036,2091
2061,2051,2057,2069,2061,1999,2038,2089
2051,2047,2053,2066,2070,2032,2042,2091
2047,2039,2049,2057,2088,2082,2057,2098
2049,2040,2045,2045,1988,2080,2042,2088
2047,2034,2035,2030,1917,2054,2023,2081
2048,2031,2035,2039,1955,2035,2016,2083
2053,2047,2044,2042,1982,2034,2010,2089
2054,2049,2047,2047,1997,2034,2031,2085
2050,2044,2044,2046,1994,2023,2023,2075
2042,2049,2044,2045,1970,2017,2030,2070
2047,2043,2044,2040,1988,2026,2035,2064
2046,2045,2046,2042,1998,2038,2024,2061
2043,2043,2040,2045,1993,2049,2016,2043
2040,2044,2038,2045,1968,2064,2043,2038
2040,2044,2036,2042,1946,2073,2031,2034
2045,2039,2044,2041,1950,2080,2028,2022
2044,2032,2038,2038,1962,2061,2030,2024
2042,2032,2037,2034,1983,2015,2017,2038
2049,2041,2050,2055,2052,2017,2046,2042
2058,2058,2052,2080,2101,2047,2037,2049
2066,2062,2052,2085,2113,2062,2026,2030
2059,2047,2042,2075,2092,2061,2021,2031
2059,2046,2039,2074,2086,2066,2041,2041
2066,2063,2054,2077,2107,2070,2054,2048
2061,2063,2051,2072,2114,2070,2056,2044
2052,2052,2034,2063,2125,2064,2064,2034
2042,2043,2026,2057,2132,2066,2062,2025
2035,2045,2025,2052,2070,2049,2038,2022
2040,2038,2021,2049,2022,2045,2047,2036
2040,2043,2021,2064,2027,2051,2035,2045
2046,2040,2026,2062,2053,2067,2049,2059
2049,2043,2023,2052,2061,2070,2052,2071
2043,2042,2017,2033,2054,2065,2049,2069
2049,2051,2039,2034,2052,2062,2058,2087
2056,2064,2051,2039,2053,2063,2052,2093
2067,2063,2048,2032,2040,2058,2034,2097
2062,2058,2044,2032,2042,2060,2039,2103
2051,2054,2055,2035,2032,2055,2033,2099
2043,2043,2053,2046,2027,2041,2040,2092
2036,2047,2067,2054,2029,2043,2050,2100
2048,2056,2079,2063,2016,2047,2045,2096
2056,2057,2077,2066,2008,2051,2035,2089
2060,2054,2073,2069,2006,2058,2043,2079
2055,2054,2082,2071,2009,2052,2047,2064
2049,2064,2076,2078,2021,2041,2034,2062
2055,2070,2084,2082,2023,2016,2018,2057
2059,2067,2089,2073,2015,2010,2031,2053
2059,2062,2080,2064,1984,2017,2043,2054
2053,2053,2064,2053,1965,2027,2049,2046
2050,2054,2043,2045,2008,2034,2050,2041
2058,2058,2034,2042,2021,2034,2048,2033
2063,2045,2024,2041,2029,2033,2024,2043
2066,2051,2020,2035,2036,2036,2039,2042
2058,2044,2019,2030,2041,2035,2051,2035
2053,2054,2027,2033,2032,2038,2042,2018
2038,2051,2035,2040,2034,2041,2034,2012
2046,2050,2034,2049,2045,2059,2055,2025
2052,2053,2034,2042,2044,2061,2073,2036
2043,2054,2037,2033,2039,2058,2062,2039
2043,2062,2047,2038,2045,2060,2063,2044
2047,2066,2051,2042,2067,2066,2068,2056
2052,2058,2041,2042,2062,2061,2056,2060
2052,2064,2046,2041,2050,2049,2038,2074
2057,2062,2044,2039,2030,2039,2047,2062
2051,2056,2041,2036,2023,2030,2039,2059
2040,2041,2027,2033,2029,2039,2048,2058
2038,2035,2032,2038,2051,2058,2065,2073
2045,2048,2040,2053,2044,2054,2064,2082
2044,2046,2034,2044,2023,2041,2070,2082
2039,2042,2029,2034,2010,2026,2047,2085
2049,2035,2024,2029,2009,2024,2036,2096
2044,2032,2022,2030,2027,2034,2040,2094
2048,2035,2032,2043,2039,2044,2045,2097
2056,2043,2047,2052,2058,2052,2041,2098
2054,2040,2041,2057,2061,2060,2044,2094
2059,2037,2040,2070,2053,2054,2041,2088
2051,2042,2025,2065,2031,2049,2021,2079
2046,2035,2020,2057,2026,2050,2030,2066
2041,2035,2028,2053,2024,2045,2043,2060
2039,2042,2038,2055,2034,2048,2044,2062
2047,2043,2046,2059,2036,2051,2049,2060
2046,2047,2041,2047,2039,2047,2045,2050
2042,2038,2029,2046,2042,2046,2031,2039
2038,2035,2020,2032,2041,2044,2031,2034
2037,2026,2011,2026,2039,2043,2037,2026
2033,2032,2015,2036,2045,2051,2044,2019
2036,2040,2021,2041,2037,2041,2034,2015
2043,2043,2018,2033,2031,2031,2020,2009
2042,2031,2017,2037,2040,2041,2029,2004
2052,2049,2045,2058,2061,2058,2042,2018
2071,2071,2068,2065,2063,2053,2018,2020
2064,2066,2069,2066,2066,2051,2027,2031
2057,2061,2070,2061,2095,2053,2040,2028
2037,2054,2066,2058,2114,2050,2022,2026
2034,2043,2052,2053,2110,2061,2051,2031
2031,2039,2050,2051,2108,2073,2054,2039
2039,2046,2048,2055,2100,2078,2054,2040
2049,2052,2056,2057,2088,2078,2052,2055
2052,2054,2072,2058,2073,2070,2054,2064
2054,2058,2093,2065,2055,2048,2062,2078
2057,2063,2106,2074,2031,2051,2074,2078
2044,2059,2112,2070,1973,2049,2067,2074
2039,2052,2100,2053,1979,2046,2049,2084
2041,2046,2085,2047,2006,2044,2044,2086
2047,2038,2076,2029,2008,2037,2030,2078
2038,2030,2063,2026,1999,2047,2041,2082
2038,2045,2072,2036,2000,2061,2046,2088
2050,2058,2076,2041,2004,2063,2049,2081
2050,2057,2074,2038,2000,2035,2036,2076
2054,2054,2066,2040,2024,2017,2031,2080
2057,2059,2069,2058,2049,2019,2052,2077
2057,2060,2072,2069,2062,2027,2053,2064
2062,2056,2063,2064,2056,2030,2043,2057
2064,2060,2061,2064,2061,2045,2053,2058
2060,2062,2052,2052,2053,2042,2049,2047
2063,2063,2044,2045,2049,2044,2043,2049
2063,2054,2031,2044,2045,2040,2054,2034
2061,2046,2027,2043,2043,2043,2049,2039
2058,2041,2019,2045,2049,2044,2041,2032
2057,2037,2014,2044,2045,2036,2046,2030
2057,2031,2008,2052,2030,2036,2039,2021
2054,2018,2002,2043,2007,2021,2031,2013
2034,2002,1984,2027,2003,2025,2035,2006
2038,2010,1992,2036,2025,2053,2051,2011
2045,2032,2022,2063,2061,2075,2044,2016
2052,2051,2054,2087,2080,2078,2068,2031
2054,2054,2060,2081,2064,2069,2067,2039
2057,2050,2063,2071,2061,2067,2063,2047
2059,2051,2064,2067,2050,2059,2058,2044
2065,2051,2059,2060,2045,2061,2061,2053
2067,2056,2055,2059,2042,2068,2058,2057
2068,2056,2062,2047,2034,2069,2060,2053
2056,2046,2059,2034,2025,2055,2065,2056
2043,2034,2056,2023,2014,2037,2056,2069
2041,2036,2063,2019,2017,2033,2034,2080
2043,2041,2064,2017,2033,2034,2031,2095
2048,2056,2073,2027,2058,2044,2037,2105
2065,2074,2096,2042,2072,2043,2047,2097
2061,2077,2097,2030,2063,2036,2040,2092
2058,2072,2089,2031,2061,2050,2032,2100
2066,2082,2086,2036,2067,2063,2023,2081
2057,2073,2083,2043,2064,2062,2036,2074
2054,2065,2069,2038,2050,2053,2039,2079
2054,2051,2058,2040,2048,2055,2039,2068
2051,2049,2057,2047,2056,2067,2050,2073
2060,2066,2070,2053,2062,2078,2056,2072
2061,2075,2068,2062,2061,2072,2056,2066
2062,2064,2056,2049,2054,2066,2053,2049
2054,2044,2049,2040,2047,2058,2049,2044
2038,2034,2047,2040,2042,2061,2046,2038
2038,2039,2052,2048,2044,2060,2052,2042
2050,2049,2060,2056,2030,2052,2035,2045
2059,2053,2062,2058,2037,2049,2032,2044
2062,2058,2056,2056,2036,2059,2027,2043
2061,2067,2057,2035,2035,2051,2027,2032
2052,2055,2042,2029,2029,2038,2026,2031
2048,2050,2048,2037,2047,2035,2031,2039
2062,2073,2072,2051,2038,2035,2033,2036
2063,2071,2065,2056,2023,2040,2032,2042
2058,2068,2061,2058,2031,2031,2042,2042
2063,2069,2065,2058,2029,2032,2057,2045
2062,2067,2064,2058,2026,2030,2042,2047
2064,2068,2061,2054,2028,2041,2049,2056
2071,2059,2069,2047,2018,2058,2061,2063
2072,2061,2069,2051,1998,2071,2070,2071
2072,2062,2070,2041,1984,2064,2073,2076
2065,2062,2066,2023,1963,2049,2065,2079
2065,2064,2067,2008,1967,2035,2059,2084
2061,2057,2060,2017,1975,2045,2047,2082
2055,2051,2057,2023,1986,2054,2051,2085
2054,2051,2052,2014,1964,2058,2047,2084
2052,2045,2047,1997,1922,2040,2021,2083
2033,2035,2038,1983,1915,2013,2017,2081
2031,2041,2041,2007,1929,2032,2030,2082
2044,2054,2046,2019,1921,1993,2043,2080
2050,2054,2055,2030,1975,1936,2032,2083
2060,2060,2058,2062,2081,1985,2051,2086
2069,2065,2063,2090,2145,2034,2052,2076
2064,2062,2058,2085,2177,2058,2048,2058
2060,2056,2050,2068,2163,2070,2037,2043
2051,2050,2043,2061,2125,2058,2022,2044
2051,2048,2040,2060,2104,2050,2014,2036
2050,2049,2039,2056,2090,2060,2024,2024
2050,2035,2035,2049,2073,2067,2017,2021
2046,2039,2043,2043,2068,2073,2006,2010
2043,2038,2040,2042,2061,2072,2018,2011
2041,2040,2037,2038,2062,2085,2033,2011
2039,2035,2032,2036,2062,2089,2045,2004
2032,2020,2014,2030,2050,2090,2033,2006
2034,2018,2016,2032,2051,2067,2046,2009
2041,2030,2027,2040,2070,2027,2061,2022
2050,2036,2030,2042,2084,2017,2064,2022
2046,2036,2029,2048,2083,2029,2057,2015
2046,2032,2026,2037,2078,2039,2065,2010
2045,2030,2028,2044,2072,2050,2069,2017
2042,2032,2027,2042,2068,2043,2060,2020
2047,2032,2031,2044,2080,2044,2045,2030
2043,2032,2032,2050,2082,2054,2060,2050
2053,2043,2038,2060,2084,2064,2088,2069
2056,2048,2043,2057,2091,2063,2071,2076
2055,2044,2040,2060,2087,2062,2064,2080
2055,2049,2052,2057,2070,2059,2059,2078
2053,2048,2068,2055,2075,2057,2043,2077
2052,2048,2073,2060,2074,2054,2065,2084
2051,2052,2069,2060,2066,2041,2045,2076
2037,2037,2059,2042,2023,2035,2024,2088
2041,2032,2042,2030,1973,2032,2030,2090
2057,2051,2052,2033,1978,2041,2030,2088
2059,2052,2050,2026,1982,2040,2031,2086
2059,2056,2053,2027,1985,2044,2030,2063
2054,2053,2048,2020,1986,2050,2033,2061
2058,2050,2047,2019,1996,2051,2042,2062
2058,2053,2052,2022,1996,2023,2052,2070
2074,2063,2060,2041,2029,2023,2058,2073
2074,2061,2066,2048,2054,2041,2062,2063
2078,2056,2057,2037,2076,2055,2054,2053
2062,2042,2044,2025,2077,2059,2038,2043
2060,2036,2043,2016,2065,2078,2047,2023
2055,2036,2045,2033,2079,2077,2041,2019
2058,2046,2055,2037,2062,2035,2045,2014
2061,2048,2056,2043,2070,1997,2047,2025
2073,2061,2062,2054,2088,2018,2040,2015
2057,2049,2055,2054,2090,2042,2052,2021
2051,2045,2052,2054,2102,2073,2052,2035
2054,2063,2065,2060,2093,2057,2049,2027
2044,2067,2061,2042,2011,2033,2040,2019
2041,2064,2056,2030,1979,2041,2048,2013
2045,2058,2054,2036,2017,2049,2058,2015
2051,2051,2053,2040,2066,2065,2061,2021
2053,2046,2046,2044,2128,2078,2064,2028
2050,2044,2052,2049,2156,2084,2064,2042
2057,2053,2048,2056,2166,2069,2066,2057
2053,2043,2051,2047,2144,2058,2058,2054
2047,2045,2050,2046,2067,2044,2067,2053
2044,2047,2048,2049,2028,2045,2054,2056
2045,2041,2052,2053,2076,2039,2052,2070
2047,2047,2051,2058,2096,2040,2061,2080
2050,2045,2058,2045,2100,2045,2052,2083
2044,2037,2050,2028,2085,2044,2046,2078
2044,2031,2040,2013,2013,2025,2034,2070
2037,2032,2043,2014,1973,2030,2040,2075
2051,2037,2045,2019,1968,2018,2037,2078
2062,2045,2047,2020,1994,1999,2042,2071
2061,2044,2042,2026,2021,1996,2037,2063
2050,2038,2037,2031,2020,2011,2039,2046
2044,2034,2039,2037,2046,2038,2032,2038
2042,2040,2044,2042,2065,2053,2043,2038
2045,2049,2050,2038,2068,2054,2057,2031
2052,2057,2052,2042,2075,2030,2041,2025
2052,2058,2046,2049,2096,2059,2048,2027
2049,2052,2046,2059,2103,2092,2034,2012
2035,2058,2048,2059,2094,2089,2030,2003
2032,2054,2049,2054,2071,2069,2030,2005
2037,2043,2049,2047,2048,2045,2030,2013
2044,2035,2045,2037,2029,2024,2032,2006
2039,2034,2036,2029,2011,2008,2017,2003
2040,2031,2034,2033,2013,2021,2035,2007
2048,2048,2051,2047,2025,2041,2023,2008
2049,2063,2051,2046,2026,2037,2034,2011
2040,2050,2048,2041,2023,2037,2032,2004
2038,2041,2047,2034,2028,2040,2023,2009
2042,2043,2054,2046,2034,2041,2020,2017
2039,2045,2060,2049,2041,2038,2017,2016
2036,2042,2056,2044,2050,2045,2051,2026
2037,2043,2054,2047,2051,2057,2049,2042
2048,2050,2058,2050,2055,2065,2050,2062
2059,2050,2057,2050,2060,2068,2076,2072
2066,2050,2054,2056,2059,2068,2065,2082
2067,2047,2056,2050,2057,2059,2058,2080
2060,2048,2054,2039,2045,2049,2056,2090
2062,2049,2053,2042,2029,2042,2053,2079
2052,2042,2053,2036,2020,2028,2041,2073
2029,2026,2040,2033,2025,2018,2046,2077
2037,2028,2043,2034,2027,2029,2063,2086
2050,2049,2062,2051,2045,2046,2057,2096
2051,2061,2059,2051,2043,2050,2063,2095
2062,2052,2059,2051,2038,2052,2066,2077
2059,2047,2050,2050,2012,2047,2042,2067
2058,2045,2048,2041,2005,2043,2041,2063
2060,2038,2049,2046,2028,2053,2031,2051
2056,2039,2049,2047,2043,2056,2054,2046
2058,2040,2051,2049,2041,2042,2042,2041
2059,2047,2060,2043,1987,2011,2041,2036
2057,2047,2056,2038,1967,2010,2051,2039
2056,2055,2055,2045,1970,2024,2043,2021
2049,2049,2049,2031,1976,2031,2033,2005
2052,2050,2046,2029,1998,2038,2023,2007
2057,2056,2057,2049,2056,2064,2057,2016
2063,2056,2057,2044,2074,2067,2053,2011
2049,2041,2043,2032,2062,2068,2046,2005
2044,2037,2034,2032,2062,2070,2035,2003
2052,2038,2050,2038,2077,2064,2048,2000
2046,2043,2049,2045,2107,2056,2064,2014
2047,2044,2049,2056,2104,2049,2056,2017
2036,2043,2046,2047,2081,2044,2048,2026
2038,2044,2049,2039,2056,2027,2042,2032
2041,2040,2045,2037,2038,2028,2051,2046
2045,2037,2040,2046,2054,2030,2048,2054
2044,2040,2037,2057,2086,2050,2053,2061
2051,2052,2045,2060,2077,2061,2038,2082
2061,2061,2047,2062,2071,2059,2039,2082
2069,2060,2051,2059,2057,2051,2024,2077
2066,2057,2047,2054,2055,2054,2033,2078
2053,2045,2039,2046,2063,2043,2023,2074
2045,2041,2037,2041,2088,2046,2026,2072
2034,2030,2023,2029,2085,2038,2018,2076
2029,2022,2023,2031,2088,2063,2038,2079
2035,2032,2034,2040,2096,2086,2063,2080
2045,2035,2034,2035,2062,2060,2058,2064
2040,2038,2033,2026,2026,2049,2068,2071
2044,2035,2029,2012,1992,2058,2067,2063
2045,2034,2022,2007,1992,2038,2053,2052
2046,2036,2030,2008,2013,2021,2041,2041
2057,2044,2051,2036,2052,2038,2035,2047
2061,2057,2064,2058,2086,2057,2051,2043
2061,2054,2055,2058,2100,2083,2034,2033
2055,2044,2051,2052,2103,2089,2031,2020
2039,2034,2046,2043,2084,2073,2020,2008
2035,2037,2042,2039,2068,2068,2029,2005
2041,2041,2039,2041,2067,2069,2024,2004
2046,2042,2045,2051,2076,2064,2043,2015
2055,2047,2045,2045,2066,2044,2043,2009
2048,2043,2047,2040,2052,2039,2034,2006
2052,2045,2045,2039,2047,2042,2037,2029
2063,2054,2055,2050,2066,2048,2042,2035
2064,2048,2053,2052,2065,2058,2033,2040
2061,2050,2051,2052,2075,2061,2025,2036
2060,2047,2053,2052,2070,2053,2039,2047
2067,2053,2055,2047,2067,2037,2034,2050
2081,2055,2057,2042,2064,2036,2058,2070
2084,2060,2055,2051,2071,2043,2069,2094
2083,2065,2058,2057,2072,2065,2064,2084
2088,2063,2061,2036,2011,2090,2058,2071
2070,2054,2051,2015,1959,2110,2054,2063
2057,2052,2041,2014,1957,2141,2058,2056
2062,2044,2044,2010,1936,2125,2067,2061
2055,2047,2046,2018,1931,2053,2080,2082
2060,2055,2064,2051,2018,2020,2102,2108
2064,2061,2071,2072,2092,2022,2085,2108
2061,2054,2067,2073,2105,2071,2065,2118
2067,2059,2066,2057,2070,2104,2048,2127
2073,2069,2064,2049,2055,2087,2024,2102
2068,2064,2053,2044,2057,2092,2032,2073
2066,2053,2045,2042,2065,2083,2034,2057
2063,2052,2039,2048,2045,2003,2022,2039
2060,2045,2039,2037,2051,1962,2011,2033
2057,2045,2038,2035,2075,1930,1982,2024
2062,2043,2032,2019,2044,1922,1980,2021
2062,2047,2034,2013,2041,1943,1977,2020
2064,2045,2032,2028,2063,1984,1998,2015
2061,2046,2031,2028,2092,2040,2012,2010
2073,2043,2036,2038,2095,2072,2017,1998
2076,2055,2041,2042,2082,2063,2022,1989
2078,2061,2044,2039,2073,2059,2007,1993
2083,2065,2048,2036,2075,2052,2023,1987
2076,2059,2037,2028,2071,2051,2004,1982
2066,2053,2034,2028,2062,2046,2003,1972
2058,2059,2047,2037,2072,2072,1997,1987
2073,2069,2054,2043,2077,2073,2023,1978
2066,2061,2052,2040,2071,2072,2033,1966
2037,2056,2050,2036,2067,2066,2017,1956
2022,2041,2052,2041,2069,2073,2040,1956
2012,2030,2048,2035,2073,2084,2040,1981
2022,2032,2049,2038,2069,2081,2063,2013
2035,2040,2055,2041,2071,2062,2052,2042
2056,2050,2062,2041,2069,2029,2028,2057
2065,2065,2072,2044,2060,2001,2013,2078
2058,2063,2068,2045,2061,1984,2028,2091
2067,2067,2061,2043,2062,1976,2031,2104
2064,2060,2059,2050,2064,1974,2062,2094
2070,2062,2069,2051,2073,1967,2066,2100
2054,2056,2058,2052,2070,1953,2046,2090
2034,2039,2048,2037,2060,1962,2049,2085
2038,2041,2043,2042,2060,1969,2032,2096
2071,2062,2059,2051,2064,1997,2064,2095
2110,2072,2064,2057,2075,2029,2057,2068
2086,2071,2066,2055,2071,2056,2067,2041
2070,2066,2069,2058,2072,2072,2060,2024
2063,2063,2066,2043,2074,2058,2061,2016
2062,2060,2056,2036,2094,2070,2044,2026
2067,2056,2059,2036,2108,2080,2040,2021
2064,2062,2060,2037,2100,2070,2046,2038
2068,2058,2057,2041,2110,2000,2038,2026
2061,2052,2051,2035,2108,2017,2028,2017
2047,2053,2053,2036,2107,2104,2043,2011
2041,2051,2048,2039,2098,2129,2056,2006
2045,2048,2051,2040,2069,2112,2040,2001
2038,2053,2053,2041,2027,2049,2024,1979
2035,2050,2047,2042,1981,1990,2009,2001
2043,2050,2054,2053,2045,2049,2039,2015
2063,2063,2057,2062,2071,2077,2062,2026
2089,2082,2070,2071,2087,2095,2064,2015
2084,2082,2067,2059,2080,2060,2035,2007
2088,2078,2065,2034,1957,2039,2048,1992
2078,2074,2056,2020,1903,2098,2035,2003
2075,2073,2060,2027,1902,2128,2036,2015
2063,2068,2053,2022,1932,2109,2023,2032
2065,2070,2058,2038,1998,2077,2041,2074
2107,2093,2079,2064,2070,2105,2054,2127
2144,2109,2084,2065,2103,2112,2076,2144
2165,2114,2081,2060,2126,2127,2078,2126
2158,2116,2078,2063,2116,2128,2065,2116
2160,2103,2072,2057,2103,2118,2043,2141
2154,2101,2063,2048,2127,2140,2058,2128
2149,2090,2053,2050,2140,2194,2047,2106
2131,2069,2038,2052,2145,2251,2047,2067
2118,2056,2028,2039,2121,2242,2014,2044
2106,2052,2034,2032,2098,2234,2004,2034
2118,2068,2043,2036,2093,2193,1998,2030
2119,2080,2052,2050,2096,2066,1993,2035
2110,2079,2063,2053,2086,1919,1993,2053
2091,2081,2058,2052,2086,1913,2030,2081
2099,2083,2068,2059,2098,1961,2052,2077
2084,2072,2064,2056,2122,2019,2053,2040
2048,2065,2059,2055,2104,2026,2045,2024
2027,2045,2048,2040,2082,2061,2048,2030
2024,2045,2047,2037,2076,2063,2049,2033
2036,2044,2044,2036,2080,2066,2070,2020
2024,2029,2039,2042,2069,2075,2076,2031
2022,2026,2044,2044,2078,2106,2078,2031
2016,2029,2041,2056,2091,2108,2073,2030
2020,2034,2048,2067,2121,2141,2070,2026
2012,2017,2038,2059,2095,2168,2062,2010
2013,2009,2031,2051,2056,2100,2055,2011
2023,2036,2053,2061,2065,2002,2091,2034
2048,2053,2058,2059,2053,1908,2085,2048
2043,2046,2055,2056,2066,1952,2098,2062
2049,2052,2057,2067,2132,2046,2110,2062
2054,2052,2056,2070,2160,2100,2103,2053
2038,2053,2055,2061,2126,2150,2104,2031
2007,2033,2044,2048,2059,2185,2108,2023
2002,2034,2042,2051,1975,2239,2111,2021
2000,2039,2056,2053,1948,2187,2078,2033
2006,2040,2061,2039,1918,2048,2057,2030
2009,2047,2055,2015,1859,1931,2031,2023
2005,2046,2050,1990,1851,1997,1996,2017
2000,2038,2050,2014,1973,2144,2045,2045
2004,2036,2067,2059,2127,2264,2076,2061
2009,2039,2061,2074,2176,2207,2072,2060
1997,2015,2051,2072,2169,2230,2093,2084
2000,2012,2035,2073,2177,2320,2106,2097
2005,2021,2036,2076,2194,2366,2127,2078
2000,2009,2030,2062,2126,2132,2117,2061
1986,1999,2021,2041,2064,1941,2088,2063
1987,2001,2018,2042,2069,2026,2089,2067
1989,2008,2025,2050,2139,2107,2092,2044
1986,2002,2026,2056,2191,2111,2092,2033
1995,2014,2033,2052,2174,2056,2083,2027
2002,2020,2031,2046,2136,1978,2035,2017
1993,2014,2027,2034,2133,1956,2041,2015
1992,2010,2020,2038,2124,2004,2044,2017
1999,2004,2022,2038,2088,1975,2028,2019
2011,2004,2014,2039,2078,1961,2002,2010
2014,2014,2018,2037,2025,1837,2002,1990
2008,2021,2015,2005,1864,1773,2000,1993
2015,2027,2012,1986,1821,1885,1996,1988
2012,2031,2026,2022,1955,1991,2009,1980
2018,2046,2046,2048,2000,2061,1990,1977
2025,2070,2065,2064,2024,2068,1985,1988
2038,2063,2072,2066,2031,2042,2001,2006
2052,2061,2067,2058,2030,2036,2032,2014
2051,2056,2072,2060,2027,2053,2050,2017
2046,2047,2060,2059,2004,2095,2034,2007
2033,2041,2052,2056,2004,2109,2028,2012
2037,2045,2061,2057,2025,2126,2047,2024
2036,2051,2057,2050,2049,2131,2051,2018
2028,2044,2054,2040,2088,2159,2050,2028
2014,2048,2054,2049,2135,2204,2078,2028
2007,2055,2058,2055,2148,2159,2064,2037
1998,2054,2060,2053,2123,2051,2048,2044
2004,2056,2059,2059,2094,2025,2053,2056
2015,2062,2061,2068,2068,2088,2030,2056
2009,2042,2047,2051,2039,2097,2036,2070
2022,2035,2044,2047,2016,2112,2059,2086
2028,2045,2053,2050,2043,2078,2081,2098
2025,2046,2061,2050,2048,2023,2076,2100
2030,2036,2051,2033,2013,1952,2070,2072
2027,2039,2052,2031,2022,1943,2081,2054
2018,2023,2046,2046,2074,1940,2063,2032
2014,2018,2045,2055,2166,1975,2056,2034
2023,2035,2058,2076,2220,1979,2025,2034
2038,2046,2058,2076,2197,1967,2000,2015
2040,2039,2050,2064,2142,1986,1981,1987
2038,2036,2041,2057,2122,2066,1992,1975
2025,2029,2043,2063,2143,2163,1997,1964
2018,2026,2038,2052,2106,2221,1994,1965
2016,2024,2035,2033,2008,2257,2002,1970
2007,2016,2019,2005,1946,2265,2027,1966
2009,2017,2011,1998,2010,2228,2026,1956
2000,2000,1995,1991,2018,2175,2005,1950
1997,1999,1992,2004,1978,2066,2015,1970
2009,2019,2024,2043,1983,1988,2009,1972
2013,2029,2036,2056,1970,1902,1987,1975
2013,2030,2037,2049,1973,1889,1971,1973
2009,2026,2028,2035,1969,1933,1970,1972
2012,2026,2026,2017,1936,1958,1978,1964
2011,2024,2027,2008,1942,1990,1988,1977
2017,2026,2035,2021,1985,2000,2004,1990
2026,2040,2036,2039,2028,1982,2021,2010
2038,2049,2047,2055,2095,1964,2031,2035
2048,2059,2058,2076,2143,1963,2036,2045
2054,2063,2060,2080,2144,1942,2030,2046
2046,2066,2062,2063,2120,1956,2026,2044
2040,2060,2067,2062,2086,1970,2008,2042
2040,2056,2056,2052,2080,1994,2030,2045
2032,2055,2051,2039,2095,2021,2015,2038
2014,2032,2042,2040,2084,2041,2003,2024
2008,2020,2027,2029,2057,2053,2018,2034
2009,2030,2038,2033,2012,2049,2023,2045
2022,2034,2032,2016,1934,2039,2025,2050
2033,2032,2031,2011,1929,2023,2034,2053
2034,2044,2043,2037,1999,2017,2030,2049
2043,2056,2057,2053,2048,2022,2043,2035
2036,2056,2060,2057,2057,2020,2029,2020
2027,2048,2056,2052,2065,2013,2031,2011
2030,2048,2055,2052,2058,2004,2041,1999
2026,2036,2045,2039,2047,2010,2038,1987
2021,2028,2046,2042,2046,2024,2041,1988
2025,2035,2057,2046,2038,2034,2033,1987
2021,2046,2060,2044,2019,2025,2040,1982
2017,2038,2057,2049,2013,2011,2041,1977
2017,2038,2049,2048,2030,2008,2033,1973
2016,2032,2040,2039,2021,2006,2037,1970
2016,2018,2025,2037,2007,2010,2034,1964
2013,2015,2026,2039,2006,2017,2033,1969
2023,2032,2035,2038,2026,2029,2034,1980
2027,2030,2033,2043,2049,2036,2046,1984
2032,2031,2037,2042,2040,2027,2031,1993
2031,2041,2043,2046,2023,2025,2039,1994
2031,2046,2046,2038,2036,2032,2038,1994
2031,2041,2039,2040,2042,2040,2033,2001
2020,2035,2032,2040,2045,2050,2040,2001
2024,2032,2020,2041,2065,2056,2043,2010
2027,2029,2018,2045,2092,2056,2039,2021
2024,2023,2010,2038,2112,2053,2045,2022
2019,2027,2007,2038,2113,2054,2034,2037
2026,2023,2004,2038,2093,2061,2057,2047
2024,2022,1999,2029,2076,2068,2052,2046
2028,2022,1998,2031,2067,2063,2060,2050
2019,2023,2001,2034,2056,2037,2058,2056
2027,2041,2030,2049,2058,2027,2044,2047
2030,2060,2048,2062,2076,2021,2037,2038
2024,2050,2048,2060,2087,2013,2040,2035
2020,2050,2061,2064,2094,1995,2037,2026
2018,2058,2069,2062,2091,2006,2039,2015
2023,2064,2077,2069,2111,2050,2044,2016
2032,2062,2065,2060,2117,2100,2048,2019
2035,2058,2065,2054,2122,2123,2057,2014
2042,2055,2056,2045,2103,2129,2053,2002
2037,2064,2061,2042,2080,2096,2051,1993
2051,2061,2076,2044,2057,2041,2044,1989
2052,2060,2076,2043,1977,1966,2032,1987
2051,2053,2067,2028,1936,1953,2032,1979
2042,2043,2057,2019,1933,1951,2021,1968
2026,2034,2045,2003,1936,1956,2007,1959
2029,2039,2049,2036,1981,1990,2030,1969
2034,2038,2053,2060,2023,2023,2036,1971
2031,2035,2051,2065,2056,2058,2054,1977
2028,2046,2060,2078,2072,2101,2066,1990
2033,2045,2064,2072,2072,2128,2073,2000
2043,2046,2052,2069,2050,2136,2077,1995
2037,2046,2058,2064,2049,2143,2073,1998
2042,2043,2060,2057,2062,2109,2052,1999
2040,2038,2053,2038,2050,2033,2023,1995
2027,2030,2041,2030,2072,2050,2025,1994
2026,2027,2030,2044,2115,2156,2050,2006
2026,2021,2030,2047,2103,2162,2068,2017
2038,2021,2020,2044,2080,2081,2063,2023
2041,2018,2024,2040,2056,1968,2062,2033
2028,2017,2018,2030,2024,1979,2053,2028
2030,2014,2013,2023,2004,2009,2051,2025
2035,2016,2012,2023,1994,2018,2051,2039
2035,2007,2000,2003,1986,2020,2050,2029
2027,2000,1993,2011,1995,2042,2045,2039
2034,2013,2009,2028,2022,2071,2052,2043
2052,2032,2024,2038,2024,2069,2046,2034
2041,2034,2030,2038,2027,2056,2034,2027
2043,2037,2025,2037,2009,2021,2020,2024
2045,2045,2038,2038,2017,2016,2022,2027
2050,2050,2043,2034,2012,2004,2010,2012
2054,2051,2046,2029,2002,2001,2009,1996
2053,2058,2056,2027,1994,1986,2021,1992
2051,2060,2063,2022,1999,1980,2014,1985
2038,2051,2058,2015,2012,1985,2014,1984
2037,2049,2062,2034,2084,2004,2019,1989
2026,2053,2076,2069,2143,2030,2019,1981
2026,2053,2081,2081,2129,2027,2018,1984
2032,2061,2085,2074,2128,2023,2038,1984
2039,2063,2082,2072,2140,2035,2038,1980
2033,2050,2070,2061,2142,2038,2039,1972
2029,2043,2064,2061,2147,2045,2040,1972
2024,2045,2071,2066,2148,2066,2043,1985
2027,2053,2072,2067,2145,2069,2033,1982
2028,2061,2073,2073,2135,2066,2051,1984
2028,2052,2066,2071,2121,2066,2049,1976
2027,2048,2060,2067,2059,2063,2052,1989
2036,2046,2059,2048,1996,2054,2036,2003
2040,2052,2058,2044,2001,2036,2057,2008
2055,2054,2056,2037,1981,2018,2017,2005
2049,2049,2057,2043,2000,2039,2050,2023
2050,2046,2059,2052,2042,2053,2061,2035
2051,2049,2059,2051,2064,2039,2067,2041
2043,2042,2049,2050,2055,2016,2057,2045
2036,2039,2042,2047,2036,2003,2040,2028
2036,2036,2047,2040,2026,1997,2016,2028
2032,2034,2048,2040,2037,2018,2025,2026
2025,2024,2042,2037,2028,2038,2029,2025
2024,2020,2043,2033,2026,2073,2041,2028
2031,2040,2054,2049,2040,2090,2053,2034
2044,2045,2055,2048,2050,2073,2062,2032
2040,2048,2058,2050,2057,2066,2064,2031
2034,2042,2052,2057,2071,2060,2049,2032
2034,2040,2046,2051,2077,2064,2034,2031
2025,2037,2046,2053,2066,2055,2046,2025
2033,2034,2044,2053,2060,2044,2043,2014
2029,2035,2044,2048,2054,2033,2038,2004
2036,2040,2041,2047,2056,2043,2025,2003
2035,2032,2045,2044,2057,2061,2033,2004
2040,2037,2040,2045,2049,2074,2030,2003
2049,2034,2041,2044,2054,2080,2052,1999
2049,2032,2041,2046,2056,2081,2035,1989
2040,2037,2036,2042,2046,2073,2062,1982
2039,2028,2037,2034,2033,2058,2049,1977
2022,2018,2026,2027,2021,2043,2028,1982
2028,2025,2023,2023,2027,2043,2056,1992
2041,2036,2038,2035,2054,2053,2072,1991
2044,2034,2046,2042,2070,2062,2079,1999
2046,2036,2049,2048,2074,2046,2080,1994
2041,2037,2050,2052,2059,2028,2068,1996
2043,2041,2049,2050,2058,2021,2048,1993
2045,2042,2053,2044,2048,2000,2030,1999
2038,2046,2039,2037,2034,1976,2032,1998
2032,2029,2038,2032,2041,1985,2062,2006
2035,2027,2037,2036,2054,2014,2070,2015
2034,2033,2036,2045,2079,2042,2049,2023
2053,2046,2044,2061,2103,2046,2045,2030
2056,2047,2046,2071,2107,2028,2042,2032
2053,2046,2046,2066,2086,2047,2031,2041
2046,2043,2045,2059,2072,2076,2016,2041
2052,2047,2041,2049,2059,2084,2000,2039
2030,2037,2038,2046,2078,2087,2023,2035
2031,2035,2040,2045,2094,2086,2013,2032
2032,2040,2040,2041,2109,2061,2026,2029
2036,2045,2038,2024,2042,2000,2025,2025
2035,2046,2035,2017,1949,1988,2025,2030
2035,2048,2045,2025,1925,1997,2013,2021
2037,2046,2040,2023,1926,1998,2008,2011
2029,2043,2041,2027,1924,2023,2019,2008
2022,2029,2032,2015,1952,2066,2030,1990
2024,2024,2024,2010,1974,2121,2033,1986
2027,2025,2025,2008,1962,2180,2027,1984
2028,2030,2030,2016,1978,2135,2024,1991
2035,2038,2044,2046,2031,2029,2023,2004
2043,2049,2058,2062,2091,2013,2020,2003
2048,2050,2056,2066,2106,2014,2038,2007
2050,2047,2056,2073,2142,2025,2062,2013
2044,2038,2045,2074,2154,2037,2067,2004
2032,2030,2035,2066,2138,2061,2060,2004
2041,2036,2041,2064,2132,2077,2057,2005
2035,2038,2036,2051,2105,2085,2056,1992
2030,2030,2032,2047,2084,2085,2067,2000
2029,2028,2035,2054,2076,2085,2066,2015
2040,2038,2039,2058,2078,2094,2071,2023
2046,2045,2045,2053,2085,2106,2076,2036
2054,2050,2045,2050,2076,2113,2078,2038
2052,2048,2042,2051,2074,2106,2088,2050
2052,2050,2049,2046,2072,2109,2092,2047
2046,2052,2046,2052,2080,2106,2081,2052
2044,2046,2041,2051,2073,2096,2081,2055
2037,2041,2037,2056,2069,2108,2081,2053
2033,2041,2043,2059,2070,2118,2089,2061
2031,2042,2050,2058,2075,2131,2078,2064
2033,2047,2050,2062,2073,2110,2069,2056
2018,2034,2040,2059,2068,2057,2041,2050
2020,2038,2043,2058,2066,1983,2053,2056
2029,2052,2047,2051,2062,1965,2038,2054
2030,2054,2048,2047,2052,1986,2034,2043
2027,2047,2049,2049,2047,2011,2025,2033
2032,2049,2047,2048,2046,2022,2028,2031
2043,2056,2046,2047,2044,2033,2047,2033
2044,2051,2045,2041,2045,2048,2033,2025
2042,2048,2041,2039,2045,2050,2042,2010
2047,2045,2041,2040,2033,2048,2036,2003
2043,2045,2045,2034,2014,2055,2034,2001
2029,2044,2045,2035,1997,2049,2024,1993
2039,2049,2042,2031,1986,2055,2030,1981
2028,2041,2044,2028,1995,2052,2028,1981
2015,2038,2037,2037,2022,2031,2039,1986
2026,2036,2041,2052,2078,2049,2049,1987
2037,2031,2036,2054,2104,2078,2052,1993
2033,2020,2028,2052,2116,2087,2036,2003
2033,2022,2036,2055,2117,2095,2054,2012
2047,2037,2041,2048,2099,2068,2060,1991
2030,2034,2041,2039,2050,2058,2058,1985
2023,2032,2045,2045,2030,2058,2065,1992
2018,2042,2053,2040,2028,2060,2058,2006
2034,2043,2049,2040,2003,2085,2046,2015
2037,2049,2057,2050,2016,2120,2079,2024
2044,2065,2059,2054,2019,2136,2082,2040
2057,2067,2070,2055,2042,2183,2080,2042
2050,2067,2064,2052,2075,2198,2069,2038
2036,2058,2058,2050,2106,2111,2054,2037
2026,2056,2058,2048,2112,1980,2038,2047
2031,2049,2051,2041,2087,1994,2036,2056
2028,2044,2053,2055,2077,2043,2047,2069
2036,2040,2054,2060,2078,2010,2041,2085
2040,2032,2042,2044,2047,1947,2009,2093
2031,2034,2044,2041,2062,1950,2008,2092
2033,2052,2054,2051,2090,1994,2042,2086
2039,2049,2056,2046,2082,2006,2041,2059
2030,2052,2052,2054,2102,2017,2032,2049
2027,2053,2050,2048,2088,2011,2035,2031
2027,2043,2045,2041,2063,2030,2043,2022
2036,2044,2042,2028,2042,2062,2060,2026
2041,2048,2038,2021,2051,2088,2064,2022
2050,2051,2041,2028,2050,2090,2057,2018
2054,2053,2037,2027,2050,2076,2048,2009
2056,2049,2038,2028,2062,2053,2040,2011
2053,2053,2047,2033,2050,2028,2032,2004
2050,2058,2047,2038,2024,1986,2023,1986
2041,2046,2044,2039,2005,2010,2032,1981
2040,2052,2045,2032,2005,2029,2034,1983
2042,2051,2036,2028,2004,2040,2053,1988
2039,2034,2033,2022,1983,2060,2068,2011
2045,2042,2046,2036,2006,2080,2063,2028
2059,2064,2063,2052,2083,2072,2047,2030
2050,2065,2061,2054,2080,2032,2065,2025
2047,2061,2058,2060,2047,2034,2062,2023
2044,2051,2055,2049,2040,2048,2052,2026
2044,2051,2049,2050,2097,2076,2069,2040
2048,2055,2052,2053,2132,2126,2065,2041
2048,2051,2050,2053,2129,2184,2064,2042
2045,2045,2045,2052,2114,2181,2063,2042
2044,2040,2045,2048,2102,2069,2056,2044
2041,2041,2049,2044,2092,1947,2060,2047
2035,2038,2043,2045,2105,2006,2066,2060
2025,2038,2036,2044,2129,2058,2065,2072
2029,2047,2038,2043,2133,2074,2068,2076
2032,2051,2044,2020,2040,2078,2061,2074
2027,2053,2043,2014,1982,2076,2046,2071
2019,2032,2029,2017,1985,2080,2014,2072
2025,2030,2024,2026,2008,2086,2024,2074
2035,2049,2037,2039,2041,2093,2048,2073
2045,2049,2049,2052,2085,2068,2062,2086
2059,2054,2055,2053,2109,2041,2053,2077
2050,2054,2047,2045,2078,2006,2031,2064
2042,2047,2045,2037,2043,2003,2005,2041
2036,2046,2045,2037,2035,2023,2011,2029
2038,2043,2050,2047,2045,2057,2020,2029
2032,2040,2047,2045,2054,2084,2026,2023
2027,2040,2048,2046,2061,2091,2030,2023
2026,2048,2046,2045,2073,2098,2053,2036
2028,2055,2046,2046,2060,2078,2046,2029
2034,2050,2051,2045,2045,2035,2023,2017
2039,2048,2043,2044,2028,1990,2040,2014
2040,2045,2042,2043,2022,1970,2033,2014
2032,2039,2032,2036,2022,1968,2038,2006
2025,2032,2026,2034,2026,1983,2061,2011
2029,2044,2041,2047,2040,2008,2066,2019
2044,2053,2047,2057,2036,2009,2066,2018
2038,2057,2051,2046,2031,2011,2070,2020
2050,2056,2047,2053,2058,2027,2088,2025
2048,2061,2050,2057,2093,2040,2081,2033
2043,2051,2054,2062,2107,2032,2077,2032
2031,2051,2053,2053,2083,2010,2044,2030
2034,2048,2050,2042,2061,2007,2034,2036
2036,2042,2040,2037,2040,2017,2018,2038
2034,2034,2039,2038,2049,2038,2025,2044
2024,2033,2031,2025,2054,2073,2036,2044
2024,2036,2039,2037,2080,2096,2048,2054
2035,2053,2061,2061,2029,2099,2037,2077
2042,2068,2066,2055,2027,2078,2041,2080
2043,2060,2064,2054,2036,2082,2029,2087
2041,2051,2047,2044,2043,2077,2030,2082
2039,2040,2043,2038,2047,2068,2052,2081
2041,2052,2049,2044,2042,2059,2056,2080
2039,2056,2055,2032,2007,2037,2050,2079
2039,2049,2048,2040,2013,2032,2057,2072
2038,2045,2044,2052,2055,2024,2034,2058
2027,2036,2041,2056,2078,2030,2031,2040
2020,2038,2034,2050,2077,2031,2022,2029
2016,2036,2032,2045,2062,2045,2036,2038
2032,2037,2030,2048,2073,2071,2069,2040
2040,2045,2030,2060,2081,2095,2095,2052
2053,2059,2046,2065,2093,2098,2096,2055
2053,2060,2043,2058,2089,2082,2085,2055
2042,2051,2037,2044,2068,2060,2062,2034
2038,2038,2023,2042,2049,2058,2051,2029
2042,2039,2030,2041,2042,2067,2075,2035
2053,2044,2042,2042,2041,2074,2067,2017
2038,2030,2029,2043,2036,2062,2054,2016
2031,2026,2032,2041,2040,2053,2053,2009
2037,2044,2047,2054,2052,2065,2044,2009
2032,2053,2044,2043,2051,2068,2037,2024
2025,2049,2038,2042,2044,2049,2040,2027
2031,2046,2039,2035,2049,2030,2039,2029
2037,2051,2042,2046,2054,2038,2038,2044
2045,2047,2039,2043,2060,2057,2056,2048
2042,2050,2044,2042,2057,2066,2077,2063
2053,2048,2045,2047,2059,2054,2076,2068
2045,2050,2044,2043,2069,2057,2070,2072
2042,2050,2049,2044,2061,2059,2058,2076
2034,2043,2049,2039,2060,2055,2059,2078
2043,2050,2057,2040,2060,2050,2055,2087
2040,2047,2050,2042,2054,2038,2063,2094
2039,2047,2047,2037,2039,2050,2058,2085
2036,2033,2031,2024,2020,2047,2019,2079
2024,2018,2019,2017,2021,2052,2023,2080
2031,2019,2024,2026,2031,2067,2037,2089
2051,2041,2044,2036,2047,2089,2081,2085
2048,2052,2052,2043,2058,2091,2077,2076
2060,2057,2051,2044,2046,2082,2070,2073
2058,2062,2055,2045,2035,2076,2068,2065
2057,2059,2051,2046,2029,2062,2049,2062
2050,2060,2052,2045,2032,2047,2046,2045
2048,2054,2050,2043,2009,2039,2030,2039
2049,2053,2045,2036,1996,2025,2024,2035
2046,2055,2053,2040,1988,2014,2040,2025
2028,2046,2046,2037,1999,2011,2045,2028
2034,2047,2049,2038,2038,2033,2046,2034
2046,2054,2050,2038,2041,2036,2045,2036
2041,2051,2046,2041,2079,2055,2069,2034
2042,2052,2053,2040,2101,2080,2073,2028
2035,2034,2037,2031,2066,2093,2043,2019
2024,2022,2029,2028,2059,2129,2044,2021
2024,2030,2037,2034,2052,2110,2054,2022
2030,2026,2032,2023,2016,2030,2022,2024
2030,2026,2032,2027,2014,2016,2031,2024
2032,2041,2043,2031,2002,2018,2033,2033
2041,2046,2055,2046,2018,2024,2053,2028
2039,2049,2056,2046,2064,2030,2038,2045
2031,2039,2041,2046,2091,2036,2017,2050
2032,2034,2040,2047,2122,2053,2033,2060
2040,2039,2043,2050,2120,2071,2048,2058
2041,2045,2040,2057,2113,2078,2050,2065
2051,2050,2045,2064,2151,2080,2056,2076
2055,2046,2045,2070,2188,2086,2049,2085
2050,2048,2046,2068,2206,2087,2050,2088
2056,2046,2044,2058,2138,2072,2052,2098
2055,2046,2042,2026,1983,2042,2047,2091
2041,2033,2027,2000,1863,2007,2049,2095
2033,2026,2023,2001,1907,2010,2040,2095
2043,2047,2034,2020,1993,2024,2042,2090
2044,2044,2033,2024,2046,2036,2034,2082
2037,2042,2034,2030,2062,2042,2044,2091
2044,2046,2042,2046,2074,2046,2055,2089
2049,2057,2052,2054,2068,2066,2047,2088
2054,2063,2050,2044,2033,2061,2035,2077
2058,2052,2045,2033,2005,2048,2033,2077
2059,2054,2043,2032,1988,2039,2044,2056
2056,2045,2045,2027,1980,2028,2055,2050
2055,2053,2052,2036,2002,2013,2064,2050
2049,2054,2059,2048,2038,2008,2064,2043
2047,2060,2063,2061,2073,2014,2067,2043
2044,2060,2066,2061,2094,2025,2073,2034
2047,2053,2066,2058,2097,2026,2060,2028
2041,2051,2068,2055,2073,2019,2050,2019
2039,2039,2051,2041,2056,2016,2043,2019
2040,2029,2050,2040,2065,2027,2039,2028
2049,2049,2066,2055,2086,2042,2074,2039
2051,2052,2069,2057,2078,2046,2075,2053
2053,2058,2067,2057,2074,2063,2099,2070
2066,2064,2072,2057,2067,2084,2108,2076
2071,2066,2071,2058,2057,2100,2078,2064
2066,2066,2067,2057,2065,2094,2078,2066
2068,2064,2070,2061,2091,2096,2072,2072
2069,2060,2072,2067,2091,2089,2068,2073
2067,2062,2065,2063,2064,2046,2050,2068
2059,2055,2061,2049,2037,2043,2042,2066
2050,2048,2057,2046,2042,2053,2047,2066
2047,2039,2048,2038,2032,2049,2033,2070
2043,2040,2051,2032,2024,2038,2032,2076
2037,2044,2042,2030,2029,2027,2025,2082
2036,2031,2037,2023,2022,2018,2011,2088
2037,2026,2033,2031,2024,2021,2036,2090
2037,2030,2039,2033,2031,2037,2038,2094
2043,2035,2046,2038,2024,2045,2039,2084
2038,2040,2052,2040,2035,2053,2029,2084
2031,2044,2056,2039,2035,2055,2032,2071
2036,2043,2051,2038,2033,2033,2026,2068
2038,2045,2060,2050,2035,2016,2030,2064
2048,2051,2065,2056,2028,2028,2041,2070
2052,2053,2060,2049,2015,2042,2059,2072
2053,2055,2057,2042,1998,2049,2060,2066
2056,2054,2058,2040,1996,2048,2068,2063
2051,2051,2058,2037,2011,2054,2067,2056
2054,2048,2047,2035,2012,2060,2051,2048
2054,2047,2045,2031,2022,2050,2047,2057
2056,2047,2046,2034,2044,2061,2053,2055
2058,2052,2043,2042,2075,2066,2067,2043
2051,2035,2032,2037,2078,2058,2056,2035
2043,2024,2027,2043,2065,2056,2042,2036
2035,2026,2031,2048,2055,2021,2013,2027
2047,2037,2035,2047,2052,2020,2053,2033
2048,2044,2043,2039,2053,2051,2050,2046
2059,2047,2040,2026,2048,2046,2053,2046
2054,2040,2032,2026,2042,2021,2040,2045
2048,2036,2038,2025,2035,1991,2031,2053
2044,2035,2033,2028,2034,2004,2038,2053
2041,2031,2030,2028,2030,2029,2020,2065
2040,2032,2031,2033,2063,2045,2027,2070
2031,2033,2026,2053,2114,2058,2052,2076
2038,2039,2036,2052,2136,2078,2070,2089
2052,2052,2046,2054,2147,2094,2070,2101
2059,2059,2048,2056,2122,2092,2069,2095
2047,2052,2053,2049,2068,2066,2045,2092
2040,2054,2059,2051,2061,2051,2052,2092
2035,2037,2042,2043,2035,2051,2047,2096
2034,2024,2027,2030,1965,2033,2043,2103
2038,2022,2027,2027,1979,2042,2047,2099
2044,2030,2033,2043,2015,2036,2029,2089
2051,2042,2051,2058,2052,2080,2030,2094
2056,2052,2069,2065,2065,2119,2045,2084
2045,2056,2076,2060,2052,2139,2033,2067
2040,2057,2072,2055,2041,2082,2041,2060
2039,2059,2071,2057,2033,1950,2039,2054
2038,2063,2075,2062,2019,1938,2019,2043
2026,2057,2071,2065,2028,2008,2029,2041
2029,2059,2075,2067,2045,2040,2027,2032
2033,2068,2086,2074,2060,2051,2028,2042
2049,2071,2088,2082,2069,2065,2031,2045
2050,2072,2081,2084,2086,2075,2057,2044
2050,2072,2084,2086,2094,2073,2047,2052
2052,2072,2080,2073,2075,2063,2038,2041
2051,2058,2069,2067,2074,2057,2042,2037
2042,2052,2068,2069,2079,2066,2045,2037
2050,2062,2069,2064,2074,2058,2066,2035
2054,2055,2070,2059,2034,2036,2059,2047
2044,2053,2060,2050,2001,2033,2060,2047
2043,2055,2061,2045,1998,2023,2049,2051
2049,2057,2056,2042,2007,2014,2051,2046
2045,2046,2053,2035,2009,2022,2026,2048
2041,2043,2041,2032,2039,2033,2026,2058
2050,2045,2053,2054,2067,2051,2054,2077
2056,2053,2053,2057,2076,2047,2052,2083
2050,2053,2057,2052,2064,2038,2062,2081
2047,2048,2049,2048,2045,2020,2056,2088
2053,2047,2043,2036,2018,2012,2049,2085
2051,2046,2034,2032,2006,2008,2039,2098
2051,2041,2031,2018,1999,2010,2049,2093
2047,2028,2024,2023,2011,2031,2041,2089
2049,2043,2035,2044,2047,2046,2054,2101
2054,2064,2059,2072,2081,2072,2084,2111
2072,2072,2062,2079,2094,2089,2082,2103
2067,2062,2056,2069,2094,2104,2075,2094
2066,2054,2045,2060,2076,2092,2075,2081
2059,2047,2039,2054,2060,2076,2071,2076
2048,2042,2042,2039,2038,2061,2047,2057
2040,2038,2042,2036,2027,2039,2051,2051
2042,2040,2042,2040,2030,2036,2059,2050
2056,2043,2059,2048,2039,2053,2062,2063
2060,2055,2059,2055,2043,2052,2078,2078
2074,2055,2065,2057,2048,2035,2061,2078
