CH1,CH2,CH3,CH4,CH5,CH6,CH7,CH8
2054,2068,2094,2029,1926,2030,2058,2007
2053,2070,2095,2032,1930,2024,2064,2013
2058,2074,2098,2049,1957,2025,2068,2020
2068,2077,2100,2060,1978,2040,2059,2031
2067,2072,2089,2060,1995,2041,2073,2041
2066,2067,2082,2058,1999,2044,2079,2044
2066,2065,2074,2053,2012,2047,2069,2053
2058,2066,2069,2048,2019,2044,2067,2053
2055,2057,2059,2037,1991,2037,2059,2059
2055,2052,2053,2036,2022,2043,2065,2072
2054,2047,2055,2052,2066,2059,2069,2079
2049,2047,2057,2065,2113,2075,2056,2072
2041,2033,2044,2059,2133,2065,2044,2073
2031,2029,2039,2056,2114,2061,2048,2080
2029,2042,2058,2062,2088,2059,2046,2081
2039,2050,2058,2046,2043,2042,2043,2078
2042,2048,2059,2042,2007,2021,2026,2075
2043,2050,2057,2031,1986,2008,2029,2060
2045,2053,2070,2029,1965,2014,2043,2050
2043,2055,2074,2034,1947,2026,2041,2051
2048,2059,2083,2043,1983,2032,2030,2037
2052,2056,2080,2044,2040,2050,2021,2031
2051,2051,2078,2058,2060,2059,2040,2021
2046,2052,2079,2056,2042,2064,2046,2030
2049,2053,2075,2061,2057,2067,2059,2020
2043,2058,2070,2069,2052,2067,2062,2013
2049,2061,2069,2075,2057,2074,2063,2011
2053,2056,2068,2078,2053,2055,2060,2004
2044,2047,2061,2066,2042,2034,2051,1991
2033,2035,2050,2062,2050,2043,2036,1993
2040,2039,2051,2070,2082,2057,2050,2005
2044,2050,2053,2071,2082,2051,2059,2011
2054,2056,2055,2055,2011,2042,2061,2010
2048,2056,2051,2034,1976,2041,2054,2005
2050,2053,2050,2032,2048,2038,2067,2026
2049,2057,2045,2024,2080,2040,2054,2023
2052,2057,2040,2021,2061,2048,2057,2031
2045,2052,2039,2021,2050,2054,2062,2032
2044,2050,2042,2026,2061,2052,2058,2043
2046,2049,2039,2020,2060,2052,2062,2054
2049,2047,2040,2028,2067,2055,2062,2066
2039,2059,2049,2040,2069,2057,2059,2074
2051,2066,2053,2049,2073,2064,2083,2082
2050,2061,2054,2057,2056,2062,2069,2079
2044,2055,2053,2053,2036,2047,2056,2078
2037,2047,2044,2053,2012,2040,2050,2082
2031,2042,2047,2051,1992,2032,2043,2083
2041,2050,2043,2042,1984,2034,2060,2078
2035,2045,2030,2039,1987,2033,2052,2068
2033,2040,2016,2045,2004,2040,2059,2066
2032,2043,2014,2053,2035,2041,2055,2056
2037,2044,2017,2073,2099,2061,2056,2045
2042,2052,2027,2081,2095,2063,2048,2045
2040,2055,2027,2065,2048,2053,2052,2028
2042,2052,2018,2040,2025,2053,2051,2027
2041,2042,2013,2028,2012,2046,2047,2023
2037,2047,2035,2034,2020,2054,2057,2018
2037,2060,2048,2043,2046,2066,2047,2023
2041,2060,2041,2041,2059,2062,2059,2018
2035,2055,2040,2023,2062,2067,2042,2015
2037,2050,2028,2011,2065,2066,2052,2005
2032,2024,2018,2005,2087,2065,2047,2000
2025,2021,2037,2022,2140,2084,2059,1998
2039,2032,2064,2041,2157,2087,2050,2005
2035,2032,2058,2043,2111,2068,2045,2004
2034,2031,2068,2044,2056,2046,2053,2007
2034,2047,2087,2078,2068,2061,2056,2017
2040,2062,2116,2089,2061,2053,2045,2028
2052,2072,2133,2084,2028,2037,2042,2033
2050,2066,2123,2078,2014,2050,2038,2033
2045,2056,2102,2069,2052,2060,2037,2043
2046,2043,2076,2062,2045,2071,2014,2055
2049,2047,2060,2067,2045,2086,2035,2064
2044,2044,2058,2062,2035,2080,2040,2078
2046,2039,2059,2048,2017,2034,2046,2080
2045,2043,2052,2035,1994,1993,2041,2087
2043,2046,2064,2033,1994,2001,2030,2088
2035,2042,2068,2039,2044,2027,2032,2096
2037,2053,2077,2047,2069,2048,2035,2097
2050,2065,2075,2042,2099,2044,2036,2095
2046,2058,2082,2043,2110,2043,2024,2091
2047,2063,2083,2030,2078,2042,2028,2084
2053,2060,2078,2032,2088,2047,2016,2081
2053,2058,2070,2036,2081,2050,2035,2065
2052,2060,2068,2032,2054,2058,2045,2054
2057,2056,2062,2027,2035,2053,2053,2052
2054,2048,2050,2015,2015,2050,2046,2032
2044,2037,2035,2006,2003,2040,2040,2011
2043,2038,2024,1993,1995,2044,2030,2014
2045,2045,2032,2011,2078,2038,2032,2015
2055,2052,2042,2030,2105,2046,2028,2004
2056,2052,2052,2038,2093,2036,2048,2008
2053,2050,2052,2033,2080,2038,2035,2000
2043,2044,2039,2020,2066,2052,2028,1990
2039,2032,2030,2011,2053,2070,2033,2000
2041,2037,2034,2015,2030,2069,2035,1998
2039,2038,2031,2006,1969,2064,2030,1994
2038,2029,2029,2014,1948,2057,2039,2000
2037,2034,2026,2028,1970,2027,2040,2009
2039,2042,2027,2046,2013,2016,2061,2025
2051,2044,2021,2076,2061,2022,2073,2033
2054,2047,2019,2089,2079,2036,2082,2041
2052,2039,2014,2089,2089,2061,2064,2050
2047,2036,2014,2092,2100,2072,2058,2050
2041,2032,2001,2086,2086,2068,2056,2061
2044,2024,1992,2079,2078,2068,2055,2066
2044,2027,2003,2089,2069,2059,2071,2077
2041,2032,2013,2088,2029,2054,2072,2086
2045,2033,2012,2081,2057,2061,2048,2092
2038,2026,1998,2064,2049,2049,2059,2088
2038,2019,2000,2052,2070,2052,2054,2095
2044,2036,2009,2045,2101,2059,2065,2096
2051,2044,2014,2035,2100,2054,2069,2088
2046,2032,2006,2008,2102,2049,2056,2078
2044,2024,1993,1996,2116,2041,2067,2076
2036,2020,1990,1973,2077,2024,2058,2064
2034,2028,2017,1975,2069,2030,2057,2059
2045,2044,2056,1987,2072,2040,2053,2053
2037,2054,2073,1992,2015,2023,2045,2048
2045,2056,2070,1991,1904,2020,2042,2044
2048,2056,2057,1993,1938,2030,2055,2029
2053,2049,2044,1982,1982,2040,2046,2022
2062,2055,2064,1988,2006,2039,2050,2021
2058,2056,2095,2010,2032,2040,2051,2016
2063,2068,2117,2034,2024,2040,2054,2009
2056,2061,2105,2039,1997,2033,2044,2003
2038,2041,2072,2027,1980,2033,2045,2006
2039,2047,2065,2029,2023,2034,2048,2015
2054,2062,2086,2051,2075,2043,2055,2015
2052,2065,2096,2057,2106,2056,2061,2015
2042,2055,2093,2064,2108,2054,2066,2015
2048,2050,2087,2060,2121,2055,2056,2020
2055,2050,2075,2064,2129,2060,2066,2022
2048,2048,2078,2062,2122,2056,2070,2036
2047,2049,2071,2062,2121,2054,2071,2041
2040,2045,2058,2056,2086,2050,2056,2046
2043,2044,2043,2039,1971,2046,2054,2056
2041,2040,2051,2048,1996,2055,2058,2064
2040,2040,2048,2047,2026,2053,2056,2070
2035,2031,2051,2039,2045,2052,2045,2073
2037,2036,2054,2045,2067,2058,2043,2080
2033,2051,2063,2050,2076,2059,2049,2086
2030,2046,2059,2042,2083,2053,2044,2093
2039,2049,2059,2044,2092,2054,2060,2104
2051,2068,2068,2064,2096,2054,2064,2107
2059,2072,2064,2063,2094,2057,2056,2098
2058,2066,2054,2059,2081,2058,2042,2090
2054,2057,2051,2052,2075,2062,2060,2075
2045,2050,2050,2048,2067,2061,2073,2066
2037,2051,2044,2039,2043,2055,2057,2062
2042,2048,2038,2026,2022,2040,2045,2050
2031,2054,2045,2021,1957,2044,2056,2033
2040,2064,2059,2025,2007,2062,2040,2031
2048,2064,2060,2032,2038,2054,2019,2032
2040,2052,2049,2017,1963,2025,2041,2027
2036,2039,2036,2012,1922,2032,2043,2008
2036,2038,2040,2029,1940,2037,2058,2010
2034,2051,2042,2054,2003,2038,2050,2018
2049,2052,2041,2080,2099,2053,2054,2012
2034,2039,2030,2078,2119,2041,2058,2008
2041,2052,2043,2086,2098,2049,2060,2013
2045,2060,2054,2084,2048,2048,2055,2008
2035,2050,2051,2074,2005,2045,2048,2013
2034,2048,2047,2078,2080,2053,2054,2018
2035,2048,2052,2093,2159,2062,2060,2024
2039,2050,2054,2078,2131,2061,2061,2030
2044,2055,2055,2067,2084,2058,2064,2029
2044,2064,2063,2054,2056,2052,2053,2041
2043,2061,2056,2049,2054,2056,2058,2044
2048,2055,2045,2043,2060,2048,2055,2059
2041,2054,2044,2035,2056,2056,2051,2069
2040,2052,2047,2039,2054,2052,2051,2073
2044,2049,2039,2028,2050,2053,2052,2082
2036,2046,2039,2026,2042,2043,2039,2088
2033,2053,2052,2026,2039,2039,2014,2092
2034,2045,2056,2024,2042,2030,2038,2093
2036,2049,2056,2027,2057,2038,2055,2093
2049,2066,2060,2031,2059,2046,2044,2093
2050,2063,2061,2034,2054,2049,2043,2093
2046,2061,2061,2047,2050,2051,2046,2091
2052,2058,2061,2045,2042,2050,2048,2078
2046,2059,2052,2044,2041,2049,2051,2059
2045,2055,2051,2039,2044,2046,2052,2052
2040,2051,2054,2049,2050,2044,2057,2046
2044,2052,2050,2046,2045,2045,2060,2039
2041,2054,2047,2042,2030,2041,2057,2030
2043,2054,2045,2039,2027,2044,2061,2027
2039,2053,2045,2045,2030,2043,2056,2024
2040,2051,2045,2046,2031,2050,2056,2020
2039,2050,2048,2046,2042,2050,2050,2011
2040,2045,2046,2047,2036,2056,2050,2012
2040,2044,2037,2036,2040,2046,2046,2004
2041,2031,2026,2036,2047,2048,2052,1998
2037,2033,2015,2044,2057,2052,2050,2007
2039,2037,2004,2046,2069,2048,2031,2007
2050,2033,2009,2056,2073,2044,2045,2010
2048,2038,2008,2057,2080,2049,2038,2014
2046,2041,2016,2064,2084,2054,2052,2019
2049,2041,2023,2062,2085,2054,2038,2029
2053,2049,2022,2061,2077,2050,2052,2031
2060,2057,2031,2064,2070,2052,2056,2041
2060,2056,2042,2073,2073,2052,2061,2050
2060,2061,2050,2077,2085,2057,2050,2064
2054,2061,2041,2074,2080,2059,2034,2065
2052,2050,2023,2051,2074,2058,2044,2073
2042,2040,2015,2038,2064,2059,2031,2087
2039,2040,2024,2041,2063,2063,2035,2084
2042,2043,2044,2048,2051,2070,2038,2085
2035,2032,2027,2029,2034,2066,2021,2083
2036,2032,2031,2023,2018,2058,2010,2088
2033,2043,2030,2023,2020,2053,2034,2087
2030,2044,2050,2036,2031,2043,2024,2085
2038,2041,2049,2037,2027,2035,2006,2075
2039,2043,2050,2029,2007,2033,2034,2072
2035,2046,2049,2031,2003,2030,2026,2075
2038,2050,2051,2026,2027,2042,2049,2061
2043,2053,2061,2041,2059,2046,2043,2054
2048,2058,2076,2037,2077,2048,2036,2041
2050,2061,2096,2048,2080,2048,2028,2038
2056,2068,2101,2064,2077,2045,2047,2033
2054,2068,2095,2073,2063,2049,2041,2035
2056,2066,2087,2081,2054,2047,2018,2032
2052,2062,2078,2082,2055,2054,2029,2018
2055,2062,2075,2089,2058,2051,2047,2013
2049,2053,2078,2089,2054,2052,2038,2003
2042,2036,2061,2083,2043,2046,2027,2005
2032,2029,2043,2067,2057,2052,2030,2004
2042,2047,2050,2062,2073,2050,2021,2010
2045,2058,2051,2063,2086,2053,2038,2013
2050,2070,2066,2071,2090,2056,2040,2016
2054,2070,2063,2063,2088,2057,2048,2015
2053,2067,2049,2044,2077,2054,2045,2024
2051,2053,2029,2024,2060,2059,2041,2030
2052,2049,2020,2012,2049,2062,2058,2036
2058,2045,2021,2003,2042,2069,2039,2040
2053,2053,2018,2001,2019,2071,2042,2061
2052,2045,2021,2014,2054,2073,2041,2066
2052,2047,2020,2025,2075,2075,2039,2078
2047,2046,2023,2031,2084,2076,2043,2088
2048,2044,2013,2021,2066,2066,2051,2091
2045,2040,2017,2017,2039,2043,2051,2096
2052,2041,2020,2012,2007,2023,2040,2090
2032,2029,2013,2000,1996,2002,2029,2092
2036,2038,2024,1988,1967,1998,2029,2092
2054,2056,2033,2003,2010,2027,2045,2097
2055,2068,2050,2033,2032,2043,2048,2090
2058,2067,2052,2036,2018,2041,2051,2080
2059,2058,2044,2031,1987,2041,2051,2064
2046,2052,2030,2023,1956,2028,2041,2053
2042,2046,2025,1995,1940,2015,2038,2043
2044,2045,2031,1991,2015,2024,2045,2036
2046,2045,2034,1994,2085,2029,2028,2031
2050,2049,2029,2016,2159,2035,2042,2030
2049,2052,2028,2029,2217,2050,2044,2029
2052,2049,2016,2039,2254,2062,2044,2013
2051,2046,2013,2040,2230,2066,2045,2022
2039,2041,2018,2025,2138,2042,2037,2008
2037,2041,2020,2016,2064,2026,2019,2002
2032,2028,2019,2010,2023,2020,2012,1994
2031,2032,2031,2005,1907,2007,2028,1993
2039,2048,2053,2008,1885,2019,2014,1994
2038,2056,2070,2010,1931,2052,2011,1988
2043,2069,2081,2025,1994,2059,2049,2000
2047,2077,2088,2027,2032,2054,2064,2011
2050,2077,2090,2039,2065,2059,2041,2016
2058,2079,2097,2054,2090,2048,2036,2033
2052,2079,2090,2066,2109,2017,2032,2046
2056,2072,2085,2072,2124,2023,2049,2053
2060,2063,2071,2070,2142,2047,2039,2057
2052,2053,2061,2064,2141,2067,2067,2062
2049,2057,2051,2052,2072,2065,2057,2071
2046,2055,2047,2027,1981,2059,2049,2070
2046,2055,2041,2044,2019,2054,2037,2082
2044,2053,2042,2057,2078,2045,2041,2090
2042,2054,2047,2065,2096,2054,2055,2091
2035,2047,2040,2070,2092,2046,2038,2084
2031,2041,2052,2067,2086,2048,2060,2090
2038,2050,2060,2070,2079,2051,2067,2094
2038,2054,2060,2070,2066,2049,2068,2092
2038,2057,2069,2060,2050,2054,2063,2083
2046,2064,2076,2057,2028,2055,2065,2071
2051,2069,2070,2060,2023,2049,2046,2064
2051,2060,2065,2059,2017,2040,2028,2056
2044,2055,2047,2052,1994,2047,2040,2040
2037,2047,2040,2057,1980,2054,2017,2024
2040,2048,2033,2058,1986,2057,2035,2024
2049,2047,2030,2045,2000,2056,2056,2027
2048,2044,2026,2033,1990,2051,2045,2022
2043,2046,2028,2030,2033,2053,2050,2017
2049,2050,2032,2040,2112,2067,2041,2021
2048,2058,2028,2037,2150,2070,2036,2013
2056,2050,2025,2032,2131,2070,2026,1997
2045,2030,1999,2012,2074,2048,2043,1998
2033,2020,1991,2008,2034,2052,2048,2001
2037,2027,1983,2005,2034,2065,2047,2006
2035,2024,1983,2007,2070,2080,2051,2008
2038,2031,1986,2012,2086,2075,2063,2015
2045,2039,2000,2009,2054,2049,2051,2020
2054,2049,2010,2000,1979,2046,2067,2029
2056,2055,2025,1997,2033,2055,2067,2032
2054,2055,2032,2011,2104,2061,2054,2026
2050,2056,2039,2019,2078,2054,2070,2032
2042,2058,2048,2014,1981,2032,2046,2048
2039,2056,2047,2026,1974,2010,2045,2059
2044,2065,2046,2040,1996,2013,2041,2076
2046,2061,2037,2048,2032,2032,2052,2086
2053,2061,2030,2049,2047,2031,2050,2096
2050,2049,2028,2039,2021,2023,2041,2085
2042,2035,2017,2026,1997,2018,2050,2086
2032,2035,2024,2028,2011,2028,2038,2087
2038,2051,2045,2033,2049,2034,2048,2085
2035,2053,2048,2039,2083,2035,2047,2078
2038,2057,2060,2051,2091,2047,2055,2071
2041,2062,2059,2044,2064,2051,2051,2070
2037,2059,2053,2044,2035,2043,2053,2057
2044,2054,2044,2036,2020,2038,2047,2050
2044,2047,2041,2035,2013,2035,2053,2044
2044,2046,2049,2041,2025,2038,2050,2036
2050,2052,2057,2039,2033,2045,2053,2031
2042,2048,2064,2040,2043,2045,2053,2027
2038,2049,2072,2044,2056,2056,2069,2012
2042,2046,2054,2048,2064,2056,2054,2010
2041,2044,2053,2050,2069,2072,2046,2002
2036,2045,2043,2045,2058,2086,2033,2001
2037,2046,2039,2039,2053,2082,2056,1992
2030,2030,2027,2036,2039,2080,2055,1992
2035,2031,2027,2037,2023,2067,2041,1989
2035,2038,2036,2038,2028,2042,2040,1994
2045,2053,2047,2048,2046,2001,2049,1997
2042,2058,2056,2065,2056,2008,2047,2012
2048,2069,2065,2064,2049,2021,2059,2026
2057,2076,2064,2057,2030,2031,2057,2027
2062,2065,2058,2056,2015,2039,2053,2035
2056,2062,2056,2054,2028,2050,2037,2037
2059,2060,2054,2046,2049,2052,2043,2046
2063,2057,2052,2043,2058,2044,2044,2060
2062,2054,2053,2043,2083,2036,2048,2069
2050,2046,2049,2049,2090,2041,2044,2071
2049,2046,2051,2045,2072,2040,2039,2081
2050,2040,2048,2045,2052,2039,2053,2086
2045,2036,2049,2050,2077,2044,2053,2086
2040,2036,2053,2047,2096,2042,2049,2086
2039,2032,2051,2050,2072,2039,2061,2096
2045,2038,2050,2050,2026,2036,2062,2096
2050,2050,2054,2046,1992,2036,2068,2089
2042,2049,2054,2041,2029,2041,2053,2074
2038,2044,2047,2048,2059,2045,2061,2064
2038,2043,2042,2043,2057,2050,2050,2068
2044,2038,2046,2045,2059,2048,2055,2052
2042,2049,2044,2049,2050,2050,2036,2049
2055,2049,2041,2044,2054,2055,2053,2040
2052,2054,2035,2038,2047,2054,2045,2036
2053,2044,2029,2026,2049,2056,2054,2037
2055,2044,2030,2030,2041,2054,2064,2029
2052,2049,2028,2034,2049,2047,2046,2024
2054,2054,2040,2041,2052,2053,2050,2014
2053,2054,2039,2045,2051,2055,2037,2007
2058,2058,2038,2049,2045,2051,2047,2010
2054,2051,2033,2056,2039,2046,2029,2000
2044,2037,2031,2052,2039,2049,2044,1999
2050,2046,2038,2070,2049,2056,2055,2008
2062,2052,2050,2068,2052,2059,2052,2010
2053,2054,2057,2068,2060,2058,2052,2015
2050,2053,2049,2070,2062,2064,2068,2020
2054,2053,2050,2072,2064,2060,2068,2021
2057,2056,2046,2068,2059,2063,2062,2026
2054,2048,2051,2071,2065,2062,2054,2033
2051,2052,2047,2068,2062,2064,2056,2032
2060,2051,2039,2064,2072,2064,2073,2047
2054,2050,2046,2062,2067,2061,2068,2058
2057,2051,2040,2059,2060,2064,2060,2069
2050,2049,2032,2050,2052,2058,2068,2075
2048,2051,2032,2055,2026,2062,2071,2091
2052,2050,2027,2058,2038,2066,2067,2098
2052,2047,2030,2065,2070,2066,2037,2090
2046,2034,2027,2061,2046,2059,2034,2083
2040,2026,2024,2082,2062,2061,2019,2087
2039,2034,2041,2091,2081,2074,2035,2087
2043,2040,2052,2102,2089,2077,2049,2075
2041,2042,2047,2094,2106,2068,2032,2070
2044,2043,2031,2079,2114,2039,2025,2062
2038,2026,2008,2041,2050,2001,2021,2049
2033,2023,2001,2044,2060,2006,2028,2046
2034,2027,2010,2074,2049,2023,2022,2041
2047,2040,2033,2076,1986,2027,2036,2030
2042,2045,2033,2047,1878,2020,2036,2024
2049,2051,2044,2026,1879,2025,2048,2023
2055,2050,2056,2018,1911,2033,2035,2024
2056,2055,2064,2016,1954,2043,2049,2028
2061,2062,2067,2010,1982,2053,2042,2022
2057,2068,2063,2015,2006,2055,2048,2018
2064,2063,2062,2028,2044,2063,2026,2011
2048,2044,2047,2031,2082,2058,2022,2001
2051,2041,2042,2036,2101,2065,2058,2007
2056,2058,2053,2037,2106,2070,2064,2003
2059,2053,2052,2038,2082,2061,2059,2010
2052,2054,2050,2024,2059,2046,2058,2001
2042,2043,2041,2016,2059,2050,2041,2005
2036,2040,2041,2017,2083,2060,2059,2015
2041,2039,2051,2018,2094,2068,2053,2028
2050,2051,2057,2028,2090,2061,2066,2036
2052,2056,2072,2034,2071,2067,2068,2044
2059,2061,2074,2031,2048,2062,2063,2046
2058,2060,2076,2024,2051,2058,2052,2052
2056,2060,2068,2030,2075,2057,2040,2060
2063,2055,2059,2032,2094,2051,2064,2071
2052,2055,2059,2036,2087,2057,2058,2080
2048,2055,2057,2036,2071,2059,2061,2083
2044,2047,2045,2029,2069,2054,2046,2076
2030,2038,2042,2033,2064,2053,2040,2081
2038,2039,2035,2039,2069,2062,2045,2087
2044,2047,2032,2043,2070,2053,2054,2077
2047,2047,2031,2041,2081,2057,2045,2070
2050,2037,2019,2052,2089,2057,2054,2068
2040,2031,2018,2062,2094,2054,2046,2059
2038,2025,2015,2063,2081,2052,2047,2050
2040,2020,2012,2067,2055,2045,2026,2046
2037,2018,2007,2068,2047,2046,2026,2034
2041,2014,1994,2081,2067,2056,2015,2025
2039,2014,1993,2103,2119,2062,2054,2025
2042,2016,1994,2117,2160,2072,2058,2014
2043,2020,2008,2122,2150,2078,2058,2018
2045,2028,2013,2121,2128,2076,2054,2008
2050,2035,2017,2113,2110,2071,2045,2004
2047,2032,2029,2113,2107,2070,2064,2009
2043,2028,2026,2106,2074,2046,2043,2005
2042,2021,2035,2074,2011,2028,2031,1990
2036,2025,2035,2026,1883,2004,2041,1993
2043,2034,2031,1993,1706,1995,2032,1983
2038,2038,2037,1978,1717,2016,2021,1994
2033,2040,2053,1989,1852,2035,2024,1999
2039,2042,2060,2010,1990,2058,2056,2000
2041,2040,2065,2023,2073,2060,2057,2013
2044,2046,2064,2016,2083,2060,2055,2020
2052,2052,2069,2015,2084,2055,2047,2034
2059,2064,2077,2022,2128,2065,2062,2054
2063,2073,2085,2038,2173,2068,2048,2063
2059,2070,2085,2041,2174,2072,2058,2073
2064,2070,2087,2047,2142,2069,2063,2088
2061,2075,2075,2048,2100,2065,2058,2092
2060,2061,2070,2035,2058,2057,2053,2099
2060,2062,2065,2032,2067,2049,2046,2095
2051,2046,2048,2028,2033,2038,2035,2101
2048,2043,2047,2029,2019,2055,2050,2108
2062,2056,2063,2051,2051,2070,2048,2095
2059,2055,2064,2048,2068,2075,2034,2083
2053,2052,2056,2040,2057,2053,2025,2072
2047,2044,2055,2032,2037,2039,2047,2063
2041,2040,2058,2032,2006,2047,2038,2049
2038,2041,2067,2037,2007,2063,2034,2040
2037,2052,2076,2044,2020,2068,2033,2036
2047,2052,2065,2040,1998,2043,2031,2026
2041,2042,2058,2036,1958,2006,2036,2028
2052,2045,2048,2033,1954,1979,2036,2029
2055,2046,2045,2035,1977,1980,2035,2027
2048,2042,2039,2028,2002,2012,2027,2011
2047,2039,2038,2036,2046,2055,2033,2009
2052,2044,2046,2055,2083,2081,2050,2014
2053,2039,2043,2061,2089,2082,2037,2007
2047,2037,2040,2060,2088,2088,2044,2002
2053,2044,2048,2058,2075,2084,2044,2012
2059,2044,2043,2045,2052,2061,2053,2008
2058,2045,2036,2029,2034,2045,2054,2003
2053,2048,2034,2025,2021,2014,2030,2010
2053,2049,2047,2026,2012,2004,2044,2019
2052,2052,2055,2038,2022,2018,2037,2026
2049,2051,2049,2041,2013,2029,2025,2029
2053,2055,2044,2041,2032,2048,2027,2038
2052,2055,2037,2042,2046,2047,2036,2040
2044,2047,2035,2034,2051,2058,2062,2056
2037,2037,2030,2034,2051,2068,2051,2055
2038,2039,2034,2041,2061,2075,2047,2066
2042,2041,2038,2049,2055,2074,2035,2073
2047,2037,2028,2035,2061,2072,2049,2081
2039,2030,2033,2036,2076,2045,2040,2075
2036,2034,2035,2048,2084,2011,2043,2091
2039,2046,2045,2058,2096,2019,2024,2093
2054,2061,2059,2071,2068,2026,2054,2088
2056,2060,2055,2065,2058,2031,2029,2086
2055,2052,2047,2050,2025,2027,2054,2078
2050,2046,2038,2047,2000,2038,2066,2069
2044,2043,2034,2053,2030,2042,2048,2056
2052,2038,2044,2066,2052,2043,2051,2050
2052,2036,2042,2075,2039,2053,2055,2036
2050,2033,2033,2083,2072,2060,2035,2027
2041,2031,2016,2080,2074,2062,2047,2026
2040,2030,2019,2081,2058,2061,2043,2020
2035,2034,2022,2073,2046,2068,2032,2003
2033,2028,2027,2057,2011,2072,2031,1999
2037,2035,2040,2056,1997,2070,2033,1988
2030,2032,2035,2045,1989,2070,2031,1984
2024,2015,2019,2018,1944,2031,2025,1987
2016,2012,2011,2008,1967,1996,2030,2000
2036,2026,2012,2020,2022,1983,2060,2019
2046,2031,1999,2020,2056,2000,2050,2014
2048,2029,2006,2022,2083,2036,2060,2025
2050,2049,2033,2028,2088,2060,2072,2033
2059,2053,2038,2023,2074,2059,2064,2028
2050,2051,2030,2012,2056,2046,2058,2029
2053,2056,2045,2022,2039,2043,2056,2035
2051,2068,2069,2042,2030,2046,2061,2050
2057,2072,2076,2041,2033,2052,2058,2062
2056,2070,2070,2048,2030,2058,2033,2079
2060,2072,2066,2046,2032,2060,2044,2088
2065,2077,2068,2039,2006,2058,2058,2089
2061,2070,2062,2031,2019,2061,2056,2098
2062,2068,2067,2031,2010,2064,2052,2101
2055,2056,2055,2028,2021,2045,2030,2093
2045,2038,2036,2011,1989,2021,2021,2086
2038,2041,2021,2006,1986,2016,2026,2083
2039,2030,2005,2009,2018,2032,2044,2078
2036,2033,2006,2028,2039,2042,2045,2078
2037,2033,2011,2029,2062,2046,2055,2074
2042,2033,2017,2016,2064,2041,2042,2066
2042,2033,2018,2020,2086,2043,2055,2054
2040,2032,2020,2028,2114,2042,2054,2049
2036,2031,2029,2040,2146,2046,2056,2042
2042,2039,2039,2054,2163,2051,2057,2035
2046,2034,2048,2065,2127,2036,2055,2036
2046,2036,2049,2056,2083,2043,2043,2025
2041,2040,2045,2061,2093,2047,2053,2019
2044,2032,2062,2082,2124,2056,2044,2013
2041,2035,2081,2088,2121,2060,2033,2004
2040,2038,2078,2093,2102,2052,2021,1995
2036,2023,2066,2074,2062,2040,2017,1996
2036,2018,2050,2046,1982,2033,2043,2009
2050,2040,2055,2030,1887,2018,2025,2016
2052,2046,2057,2029,1911,2030,2034,2020
2057,2055,2073,2048,1976,2052,2049,2029
2062,2062,2060,2052,2002,2057,2065,2035
2068,2056,2040,2044,1982,2062,2075,2044
2066,2055,2033,2048,1991,2061,2074,2045
2059,2056,2033,2049,2013,2068,2075,2056
2067,2051,2028,2048,2053,2064,2074,2056
2060,2046,2033,2033,2079,2058,2070,2066
2054,2042,2026,2019,2092,2059,2053,2074
2050,2036,2019,2002,2062,2058,2076,2078
2031,2029,2008,2005,2058,2065,2044,2079
2038,2034,2025,2022,2095,2051,2034,2081
2030,2032,2031,2040,2102,2031,2026,2077
2022,2017,2034,2056,2111,2031,2018,2084
2032,2021,2035,2048,2090,2027,2030,2086
2040,2038,2043,2029,1999,2033,2029,2080
2041,2032,2044,2025,2038,2039,2026,2081
2042,2032,2040,2046,2128,2052,2016,2071
2046,2023,2039,2060,2132,2047,2042,2053
2033,2020,2021,2071,2110,2039,2030,2037
2029,2018,2012,2074,2068,2036,2018,2030
2028,2024,2019,2061,2028,2033,2030,2027
2041,2029,2020,2038,1920,2023,2035,2020
2042,2034,2006,2029,1852,2024,2026,2025
2043,2035,2012,2035,1957,2039,2027,2025
2047,2034,2008,2033,2046,2045,2030,2026
2047,2032,2018,2042,2072,2050,2047,2014
2051,2047,2036,2035,2051,2048,2037,2008
2049,2048,2050,2002,2029,2041,2034,2007
2034,2039,2059,1985,2009,2029,2042,2012
2034,2035,2057,1987,2013,2035,2037,2007
2037,2045,2066,2004,2029,2045,2046,2009
2046,2052,2069,2016,2040,2045,2037,2014
2043,2054,2061,2016,2054,2043,2046,2019
2052,2050,2047,2022,2052,2046,2022,2020
2050,2053,2042,2029,2053,2046,2031,2023
2047,2048,2040,2036,2054,2053,2038,2025
2051,2051,2046,2038,2056,2051,2042,2025
2057,2056,2052,2040,2060,2054,2041,2045
2063,2057,2051,2042,2053,2055,2045,2060
2060,2050,2047,2038,2060,2046,2036,2060
2046,2044,2045,2040,2055,2052,2044,2068
2038,2047,2050,2045,2056,2047,2036,2080
2041,2052,2052,2044,2054,2050,2024,2083
2045,2051,2050,2043,2055,2053,2048,2091
2042,2039,2044,2036,2048,2050,2034,2095
2041,2033,2040,2034,2040,2045,2017,2100
2046,2040,2051,2041,2039,2049,2037,2100
2049,2049,2042,2039,2042,2044,2036,2089
2051,2051,2045,2038,2042,2043,2040,2080
2049,2053,2041,2032,2037,2044,2028,2072
2050,2052,2043,2038,2038,2043,2030,2065
2049,2057,2055,2049,2043,2043,2042,2055
2049,2058,2053,2046,2046,2048,2043,2050
2050,2060,2043,2053,2044,2050,2051,2039
2051,2054,2034,2048,2042,2048,2036,2032
2050,2047,2029,2042,2039,2051,2037,2019
2042,2039,2014,2044,2036,2052,2050,2012
2038,2028,2009,2047,2035,2050,2043,2001
2034,2029,2007,2049,2045,2049,2049,2007
2041,2037,2012,2065,2050,2054,2043,2002
2040,2025,2002,2053,2044,2051,2050,1996
2038,2022,1995,2050,2045,2054,2040,2001
2044,2032,2005,2056,2062,2066,2052,2007
2048,2040,2011,2061,2063,2058,2053,2005
2048,2035,2012,2065,2058,2059,2035,2009
2048,2043,2007,2067,2053,2059,2055,2014
2047,2048,2013,2062,2057,2055,2053,2011
2050,2051,2027,2067,2057,2059,2059,2020
2055,2060,2057,2070,2057,2056,2060,2030
2064,2063,2079,2075,2056,2052,2043,2045
2063,2072,2092,2069,2047,2050,2032,2053
2054,2065,2089,2052,2043,2045,2037,2059
2052,2063,2100,2053,2052,2046,2050,2072
2050,2074,2126,2056,2054,2050,2047,2084
2049,2077,2123,2049,2058,2052,2065,2093
2051,2075,2104,2050,2050,2052,2050,2102
2057,2056,2076,2041,2048,2041,2035,2104
2044,2043,2060,2035,2055,2048,2044,2100
2050,2053,2057,2035,2052,2049,2045,2103
2055,2054,2051,2037,2054,2061,2061,2106
2053,2050,2049,2044,2048,2055,2063,2097
2056,2049,2048,2048,2047,2055,2062,2090
2058,2053,2036,2063,2045,2052,2060,2082
2056,2047,2040,2073,2047,2052,2056,2071
2055,2045,2048,2077,2042,2047,2056,2050
2053,2040,2037,2074,2041,2037,2049,2046
2045,2038,2032,2077,2041,2033,2046,2036
2047,2033,2020,2076,2044,2033,2032,2029
2044,2031,2022,2077,2045,2037,2024,2017
2043,2035,2024,2081,2051,2038,2040,2007
2052,2035,2020,2088,2054,2044,2040,2004
2050,2039,2032,2091,2056,2045,2047,2006
2047,2035,2031,2074,2044,2038,2045,1997
2039,2024,2023,2064,2041,2034,2051,1999
2038,2033,2028,2069,2051,2039,2057,2008
2045,2034,2038,2060,2046,2037,2046,2004
2045,2036,2052,2041,2048,2039,2037,2005
2041,2044,2063,2022,2044,2042,2046,2009
2040,2037,2073,2030,2043,2044,2048,2013
2045,2048,2077,2032,2045,2048,2062,2024
2052,2049,2077,2021,2043,2045,2059,2040
2052,2050,2070,2022,2032,2045,2050,2051
2054,2048,2068,2028,2033,2044,2046,2055
2049,2042,2060,2023,2031,2051,2045,2061
2052,2044,2067,2028,2058,2063,2064,2077
2064,2058,2073,2047,2083,2067,2061,2096
2068,2052,2063,2046,2069,2047,2058,2104
2060,2054,2055,2045,2054,2036,2048,2102
2052,2046,2050,2043,2068,2037,2044,2097
2047,2036,2044,2050,2070,2036,2047,2090
2043,2044,2053,2052,2059,2042,2049,2091
2052,2049,2056,2061,2049,2036,2049,2089
2049,2045,2048,2055,2033,2036,2051,2082
2051,2047,2053,2055,2035,2042,2034,2076
2052,2043,2045,2055,2042,2042,2034,2058
2051,2043,2034,2053,2039,2044,2048,2057
2046,2038,2016,2059,2036,2045,2061,2049
2046,2037,2008,2062,2040,2052,2060,2043
2050,2034,2005,2058,2038,2056,2059,2027
2055,2038,2008,2055,2042,2058,2056,2027
2056,2035,2003,2049,2040,2055,2053,2022
2052,2031,2015,2053,2041,2058,2054,2017
2048,2028,2010,2050,2038,2051,2051,2007
2043,2032,2009,2049,2041,2050,2047,2009
2046,2032,2018,2042,2042,2050,2045,2001
2039,2025,2017,2042,2039,2044,2051,2004
2040,2031,2028,2045,2040,2044,2053,2014
2056,2036,2041,2041,2040,2041,2055,2012
2055,2039,2040,2038,2044,2045,2051,2015
2052,2039,2048,2041,2044,2053,2053,2021
2048,2046,2054,2037,2041,2052,2059,2024
2046,2040,2068,2042,2042,2052,2060,2035
2052,2052,2080,2049,2049,2054,2059,2042
2053,2058,2081,2054,2042,2053,2063,2048
2055,2055,2080,2051,2046,2050,2072,2059
2047,2061,2081,2057,2052,2052,2069,2072
2052,2058,2077,2064,2055,2052,2066,2081
2054,2056,2071,2061,2064,2052,2056,2089
2055,2054,2067,2064,2065,2057,2063,2092
2056,2050,2058,2054,2060,2053,2063,2095
2052,2049,2059,2048,2049,2043,2042,2096
2049,2034,2047,2046,2035,2045,2054,2097
2040,2041,2040,2053,2036,2050,2052,2099
2049,2044,2047,2048,2039,2044,2044,2096
2046,2046,2049,2049,2041,2044,2046,2093
2052,2050,2055,2052,2042,2054,2055,2081
2048,2054,2057,2059,2041,2041,2046,2074
2046,2053,2059,2057,2037,2044,2015,2049
2050,2053,2059,2055,2038,2043,2013,2048
2047,2049,2060,2059,2037,2036,2010,2033
2039,2050,2054,2059,2032,2035,2027,2026
2044,2047,2059,2053,2031,2038,1993,2030
2042,2041,2054,2056,2032,2034,2017,2017
2047,2045,2053,2052,2024,2038,2020,2018
2043,2038,2056,2053,2020,2035,2019,2021
2051,2052,2058,2058,2033,2039,2031,2016
2054,2059,2063,2058,2032,2040,2031,2009
2043,2049,2050,2059,2030,2042,2037,2006
2037,2034,2048,2060,2042,2048,2059,2004
2042,2046,2047,2067,2052,2054,2040,2006
2045,2047,2047,2066,2064,2055,2036,2008
2043,2052,2052,2068,2065,2055,2038,2020
2051,2045,2053,2067,2059,2054,2041,2025
2051,2046,2053,2070,2060,2059,2056,2035
2047,2046,2052,2068,2053,2057,2052,2047
2045,2050,2050,2064,2060,2056,2044,2048
2046,2050,2052,2060,2054,2059,2057,2058
2046,2052,2050,2052,2016,2073,2058,2060
2042,2048,2046,2055,1991,2074,2045,2063
2041,2041,2041,2056,1975,2063,2053,2072
2036,2040,2048,2058,1982,2054,2040,2083
2040,2041,2048,2059,1995,2040,2028,2094
2045,2048,2053,2056,2020,2019,2043,2097
2040,2042,2040,2049,2021,2019,2053,2105
2041,2043,2041,2037,1977,2029,2060,2104
2044,2050,2047,2027,1993,2036,2053,2103
2049,2053,2043,2025,2073,2037,2039,2088
2047,2051,2048,2036,2137,2033,2023,2084
2049,2045,2057,2054,2186,2055,2026,2075
2050,2035,2050,2068,2204,2074,2028,2052
2030,2032,2045,2061,2194,2077,2025,2047
2034,2031,2052,2056,2134,2063,2046,2034
2035,2037,2054,2058,2082,2052,2041,2024
2031,2038,2051,2056,2010,2036,2043,2017
2034,2039,2047,2046,1936,2029,2026,2011
2032,2041,2048,2049,1964,2032,2041,2015
2038,2048,2051,2058,2007,2034,2046,2010
2040,2053,2056,2067,2021,2019,2046,2009
2037,2052,2047,2058,2022,2014,2041,2002
2034,2035,2027,2038,2021,2024,2042,2000
2036,2026,2016,2029,2035,2036,2054,2004
2037,2032,2019,2031,2050,2042,2056,1998
2031,2029,2013,2030,2052,2049,2056,2005
2040,2039,2019,2033,2065,2053,2042,2009
2043,2040,2037,2047,2066,2039,2043,2013
2052,2050,2052,2057,2062,2042,2021,2025
2063,2061,2067,2072,2067,2044,2043,2024
2062,2057,2061,2068,2070,2043,2039,2030
2052,2054,2049,2068,2076,2039,2034,2040
2043,2046,2040,2063,2073,2038,2035,2048
2045,2042,2043,2061,2073,2041,2045,2057
2042,2040,2040,2063,2071,2045,2047,2075
2041,2040,2033,2056,2065,2044,2051,2086
2041,2044,2031,2052,2064,2038,2051,2084
2040,2046,2032,2050,2058,2030,2048,2087
2039,2036,2022,2030,2049,2025,2023,2086
2037,2046,2027,2029,2044,2031,2037,2097
2047,2060,2046,2038,2054,2038,2054,2092
2046,2062,2049,2039,2047,2041,2043,2088
2050,2057,2046,2033,2048,2033,2043,2081
2049,2052,2048,2030,2042,2037,2047,2072
2044,2041,2043,2033,2044,2040,2051,2064
2036,2042,2041,2033,2038,2038,2042,2050
2041,2041,2044,2038,2034,2035,2040,2041
2047,2042,2048,2036,2036,2043,2056,2042
2046,2043,2057,2044,2047,2049,2058,2040
2049,2050,2057,2051,2045,2050,2066,2038
2048,2048,2057,2055,2045,2052,2067,2034
2049,2045,2053,2056,2046,2052,2053,2026
2047,2047,2049,2049,2045,2050,2064,2028
2044,2038,2045,2048,2043,2043,2053,2013
2037,2028,2034,2041,2041,2037,2045,2011
2038,2025,2037,2035,2038,2032,2069,2011
2044,2036,2044,2049,2048,2036,2046,2016
2038,2042,2048,2048,2045,2031,2053,2014
2040,2037,2050,2047,2032,2023,2049,2013
2046,2042,2045,2044,2038,2029,2027,2018
2043,2040,2054,2046,2047,2031,2044,2025
2043,2047,2050,2047,2051,2041,2048,2030
2047,2044,2048,2050,2063,2049,2054,2043
2042,2042,2047,2051,2064,2056,2058,2053
2053,2049,2050,2049,2063,2058,2061,2061
2049,2046,2048,2047,2052,2058,2068,2071
2047,2043,2046,2041,2050,2058,2065,2080
2046,2041,2047,2041,2060,2057,2059,2088
2039,2041,2047,2050,2067,2069,2050,2089
2046,2043,2052,2055,2064,2062,2052,2098
2047,2044,2047,2044,2057,2050,2027,2092
2040,2037,2041,2047,2040,2036,2021,2104
2039,2037,2045,2046,2048,2035,2020,2099
2052,2049,2042,2044,2041,2036,2022,2094
2048,2051,2043,2048,2035,2041,2050,2087
2042,2043,2038,2034,2031,2044,2050,2073
2037,2038,2042,2035,2036,2038,2048,2070
2038,2040,2040,2039,2035,2035,2033,2058
2044,2044,2040,2039,2032,2038,2038,2052
2047,2040,2042,2042,2033,2036,2019,2048
2045,2040,2046,2045,2036,2034,2029,2046
2046,2041,2046,2046,2033,2035,2025,2036
2044,2049,2048,2047,2042,2035,2032,2027
2043,2047,2045,2045,2041,2034,2041,2028
2046,2048,2043,2048,2042,2035,2035,2018
2043,2048,2042,2048,2048,2043,2039,2018
2042,2050,2044,2053,2054,2046,2048,2005
2028,2035,2038,2046,2044,2040,2025,2001
2032,2037,2039,2042,2035,2032,2021,2001
2038,2042,2048,2048,2045,2035,2029,2004
2040,2047,2044,2048,2038,2029,2031,2013
2037,2045,2042,2054,2044,2026,2026,2016
2047,2048,2045,2053,2054,2029,2030,2021
2043,2046,2045,2050,2053,2039,2041,2019
2041,2047,2048,2060,2058,2050,2027,2025
2044,2046,2050,2054,2054,2048,2022,2034
2043,2050,2045,2061,2053,2052,2035,2042
2040,2051,2045,2052,2052,2050,2044,2052
2038,2050,2048,2050,2062,2048,2046,2057
2042,2049,2047,2054,2051,2046,2042,2062
2028,2039,2044,2050,2053,2044,2055,2078
2030,2042,2042,2050,2051,2047,2054,2088
2036,2045,2046,2056,2055,2042,2028,2091
2040,2044,2052,2055,2056,2044,2038,2089
2028,2038,2044,2050,2050,2042,2035,2093
2024,2037,2044,2056,2050,2044,2016,2104
2030,2047,2054,2051,2054,2046,2038,2088
2037,2050,2052,2054,2054,2047,2023,2089
2038,2047,2049,2050,2050,2047,2037,2087
2037,2047,2044,2056,2051,2046,2035,2077
2038,2051,2042,2054,2051,2050,2027,2062
2031,2046,2046,2057,2048,2046,2037,2065
2040,2048,2046,2056,2059,2047,2012,2052
2034,2046,2041,2052,2052,2046,2020,2040
2036,2047,2041,2052,2056,2053,2013,2044
2037,2048,2042,2055,2059,2063,2026,2038
2038,2051,2046,2052,2059,2068,2042,2043
2043,2048,2042,2055,2054,2068,2047,2029
2033,2045,2035,2050,2051,2066,2044,2024
2034,2042,2036,2050,2054,2057,2036,2016
2036,2044,2035,2041,2048,2059,2036,2004
2021,2031,2024,2037,2046,2059,2042,2003
2023,2026,2026,2046,2051,2051,2040,2012
2028,2041,2041,2049,2053,2048,2038,2011
2025,2040,2038,2048,2051,2045,2045,2018
2034,2044,2048,2049,2053,2044,2043,2018
2041,2050,2056,2054,2057,2047,2038,2022
2042,2058,2056,2062,2060,2059,2055,2030
2039,2069,2057,2056,2066,2058,2056,2031
2038,2061,2052,2058,2073,2052,2048,2037
2033,2059,2054,2057,2078,2046,2041,2048
2033,2059,2051,2058,2075,2041,2042,2050
2034,2049,2045,2064,2075,2036,2053,2062
2029,2045,2047,2060,2081,2033,2039,2073
2019,2046,2046,2058,2078,2031,2028,2081
2025,2041,2046,2062,2074,2040,2053,2085
2021,2037,2045,2054,2068,2045,2054,2083
2017,2032,2034,2045,2050,2040,2043,2085
2006,2026,2029,2045,2040,2043,2028,2090
2015,2028,2035,2046,2044,2051,2034,2088
2020,2037,2035,2046,2044,2062,2056,2081
2022,2034,2039,2044,2044,2077,2050,2077
2021,2037,2045,2043,2043,2089,2057,2077
2023,2045,2050,2049,2046,2092,2044,2064
2030,2041,2049,2043,2046,2074,2051,2053
2028,2039,2045,2043,2040,2033,2024,2049
2037,2042,2049,2048,2041,2026,2036,2045
2036,2049,2049,2051,2042,2041,2052,2048
2042,2057,2056,2054,2049,2043,2047,2045
2046,2060,2058,2053,2050,2039,2044,2038
2050,2058,2056,2057,2055,2031,2037,2028
2047,2054,2057,2052,2058,2040,2033,2027
2050,2060,2060,2067,2059,2039,2048,2015
2046,2052,2057,2064,2062,2042,2032,2003
2034,2035,2051,2054,2061,2037,2036,1997
2028,2029,2047,2056,2060,2043,2043,2010
2035,2043,2061,2064,2075,2053,2047,2009
2039,2051,2067,2071,2075,2058,2045,2016
2047,2055,2066,2067,2069,2064,2051,2019
2052,2059,2059,2061,2074,2072,2055,2027
2052,2060,2054,2063,2083,2084,2085,2039
2049,2061,2054,2059,2085,2081,2065,2046
2052,2057,2055,2061,2076,2071,2066,2055
2049,2057,2062,2049,2066,2069,2065,2064
2052,2050,2054,2047,2056,2062,2073,2063
2043,2051,2053,2049,2054,2053,2069,2075
2042,2052,2051,2046,2057,2052,2057,2078
2037,2049,2054,2041,2058,2040,2052,2090
2040,2047,2050,2044,2060,2032,2034,2095
2042,2045,2045,2039,2063,2027,2057,2100
2041,2036,2042,2033,2054,2012,2041,2084
2034,2035,2039,2038,2052,2012,2028,2101
2038,2042,2046,2038,2058,2017,2022,2104
2044,2045,2045,2042,2060,2021,2034,2099
2035,2042,2050,2047,2053,2028,2045,2091
2040,2047,2048,2047,2055,2033,2042,2078
2044,2047,2051,2052,2054,2035,2050,2070
2047,2044,2053,2049,2044,2040,2034,2055
2048,2044,2045,2056,2048,2048,2046,2044
2043,2037,2044,2044,2040,2050,2040,2037
2042,2036,2038,2043,2042,2069,2033,2021
2042,2033,2039,2037,2040,2069,2036,2024
2040,2037,2039,2033,2043,2065,2034,2024
2033,2038,2034,2040,2042,2056,2039,2011
2034,2035,2041,2046,2045,2060,2021,2013
2037,2033,2047,2050,2048,2063,2030,2005
2030,2039,2044,2053,2051,2063,2014,1995
2027,2027,2037,2040,2046,2056,2022,1997
2028,2022,2036,2037,2046,2071,2028,1998
2035,2040,2046,2039,2042,2062,2025,2000
2041,2038,2052,2040,2036,2058,2042,2008
2039,2040,2054,2047,2053,2064,2053,2010
2042,2051,2056,2050,2056,2061,2049,2018
2047,2049,2056,2053,2054,2063,2050,2023
2050,2055,2059,2054,2065,2063,2057,2031
2056,2061,2065,2062,2065,2060,2073,2040
2062,2068,2069,2060,2060,2049,2064,2055
2067,2067,2066,2059,2053,2046,2053,2059
2063,2067,2073,2061,2051,2042,2065,2060
2056,2060,2069,2070,2068,2054,2073,2074
2052,2065,2071,2075,2079,2063,2070,2080
2046,2054,2065,2073,2078,2065,2039,2082
2042,2048,2058,2071,2075,2061,2058,2082
2039,2040,2055,2068,2069,2049,2036,2088
2033,2040,2050,2068,2059,2042,2028,2085
2042,2048,2056,2072,2067,2051,2051,2083
2042,2043,2052,2072,2064,2052,2037,2079
2036,2043,2052,2063,2060,2042,2019,2068
2032,2045,2049,2051,2052,2032,2050,2059
2031,2046,2046,2042,2028,2029,2047,2055
2036,2044,2047,2036,2023,2024,2029,2043
2033,2043,2050,2028,2009,2028,2032,2037
2034,2048,2048,2017,1997,2027,2029,2025
2038,2046,2043,2021,2006,2026,1992,2019
2041,2049,2049,2022,2010,2030,2044,2018
2042,2046,2053,2028,2017,2035,2046,2016
2041,2045,2052,2027,2026,2023,2041,2014
2044,2048,2053,2033,2028,2020,2052,2007
2042,2054,2059,2033,2038,2019,2044,2004
2034,2041,2049,2029,2030,2014,2051,2009
2036,2035,2044,2028,2036,2015,2054,2004
2039,2046,2051,2037,2039,2019,2062,2001
2048,2052,2049,2036,2039,2019,2054,2005
2048,2044,2053,2034,2042,2020,2044,2011
2044,2052,2055,2038,2045,2017,2037,2018
2042,2057,2053,2042,2052,2021,2029,2026
2044,2051,2061,2046,2056,2020,2043,2022
2040,2048,2054,2042,2049,2025,2054,2025
2044,2044,2054,2046,2053,2025,2042,2033
2038,2046,2058,2045,2056,2038,2064,2046
2038,2046,2058,2053,2057,2031,2036,2047
2043,2046,2057,2052,2039,2033,2061,2064
2043,2057,2059,2045,2034,2030,2070,2074
2041,2052,2058,2044,2016,2038,2073,2075
2040,2049,2056,2034,2007,2043,2070,2080
2024,2036,2043,2022,1999,2052,2026,2075
2015,2025,2033,2010,1998,2066,2033,2076
2022,2041,2048,2033,2040,2079,2061,2084
2033,2049,2054,2047,2074,2079,2040,2081
2032,2050,2053,2049,2093,2084,2056,2071
2034,2053,2054,2050,2096,2095,2073,2062
2036,2049,2055,2045,2077,2088,2063,2056
2043,2055,2044,2040,2058,2078,2037,2043
2041,2053,2051,2033,2052,2071,2065,2039
2036,2056,2047,2037,2050,2061,2068,2035
2043,2059,2050,2038,2047,2054,2063,2033
2041,2054,2053,2040,2049,2049,2062,2032
2040,2052,2050,2040,2050,2053,2067,2022
2036,2054,2046,2037,2047,2065,2081,2019
2033,2051,2043,2039,2046,2065,2079,2010
2038,2052,2043,2034,2035,2056,2050,1997
2038,2034,2030,2028,2017,2043,2054,1991
2034,2031,2032,2026,2015,2035,2057,2007
2045,2044,2035,2032,2019,2033,2064,1998
2037,2042,2036,2026,2024,2034,2050,1996
2038,2044,2040,2038,2040,2048,2066,2007
2045,2055,2052,2052,2063,2057,2065,2013
2045,2059,2060,2060,2070,2065,2068,2018
2057,2067,2065,2065,2074,2075,2070,2032
2053,2065,2064,2053,2069,2086,2072,2032
2048,2072,2058,2048,2067,2084,2075,2039
2046,2064,2057,2048,2067,2080,2061,2041
2042,2060,2060,2054,2070,2080,2066,2052
2040,2058,2060,2049,2080,2081,2050,2064
2033,2052,2056,2052,2079,2079,2050,2059
2035,2052,2055,2047,2064,2067,2047,2070
2043,2054,2056,2044,2060,2063,2052,2067
2032,2040,2048,2027,2045,2064,2056,2069
2031,2039,2049,2033,2045,2048,2047,2075
2044,2054,2069,2047,2052,2027,2058,2085
2053,2059,2069,2053,2056,2028,2062,2073
2048,2054,2065,2044,2057,2046,2047,2067
2048,2060,2054,2042,2055,2063,2062,2056
2048,2059,2060,2042,2054,2074,2076,2047
2051,2057,2051,2044,2056,2078,2076,2038
2056,2057,2053,2041,2054,2083,2073,2028
2056,2057,2054,2044,2053,2075,2068,2022
2050,2055,2060,2042,2050,2071,2055,2016
2040,2053,2054,2035,2045,2071,2070,1999
2025,2046,2044,2033,2034,2059,2069,1994
2020,2044,2049,2029,2032,2056,2065,1994
2024,2045,2040,2032,2032,2068,2054,1995
2019,2034,2031,2031,2032,2065,2059,1996
2020,2021,2015,2025,2031,2049,2054,1990
2021,2017,2010,2032,2031,2055,2057,2002
2033,2034,2013,2039,2047,2063,2080,2017
2039,2033,2017,2043,2057,2061,2086,2019
2042,2028,2015,2046,2070,2058,2076,2018
2048,2030,2012,2047,2067,2063,2078,2025
2047,2032,2020,2049,2070,2065,2083,2018
2046,2038,2016,2053,2060,2068,2073,2014
2036,2036,2017,2047,2053,2071,2063,2029
2039,2035,2014,2048,2044,2065,2064,2028
2031,2028,2008,2046,2037,2036,2049,2030
2033,2025,2004,2033,2046,2024,2037,2037
2033,2022,1998,2030,2043,2033,2042,2045
2033,2015,2002,2024,2043,2039,2044,2056
2027,2016,2006,2018,2050,2036,2048,2067
2025,2017,1999,2008,2033,2021,2044,2060
2018,2006,2014,1991,2014,2009,2035,2064
2018,2032,2056,2002,2010,2020,2048,2071
2026,2060,2106,2034,2035,2055,2042,2074
2031,2070,2115,2041,2039,2087,2053,2067
2041,2071,2103,2030,2027,2103,2057,2068
2039,2064,2090,2021,2024,2108,2056,2058
2042,2066,2083,2019,2021,2111,2043,2042
2040,2072,2089,2036,2030,2100,2037,2039
2049,2081,2102,2054,2051,2075,2056,2029
2052,2081,2098,2054,2058,2082,2042,2023
2049,2083,2092,2054,2055,2106,2052,2016
2044,2075,2082,2053,2056,2085,2028,2007
2052,2064,2075,2052,2045,2035,2032,1996
2044,2052,2060,2043,2033,2018,2036,1985
2039,2044,2051,2030,2014,2008,2025,1977
2031,2038,2047,2016,1993,1993,2010,1970
2026,2018,2031,2003,1984,1999,2014,1964
2027,2019,2042,1998,1988,1989,2008,1977
2027,2041,2055,2015,2027,1987,2017,1980
2030,2052,2072,2042,2062,2008,2020,1990
2038,2063,2081,2050,2067,2019,2039,2000
2042,2072,2083,2055,2065,2039,2040,2013
2046,2069,2087,2058,2066,2028,2058,2022
2048,2068,2081,2049,2058,2029,2056,2021
2040,2064,2071,2036,2036,2023,2051,2026
2036,2055,2051,2030,2018,2019,2042,2031
2034,2055,2029,2042,2014,2017,2023,2038
2033,2045,2023,2043,2007,2002,2017,2044
2032,2032,2011,2041,2020,2000,2024,2055
2031,2031,2021,2060,2043,2022,2035,2071
2033,2026,2028,2073,2068,2040,2037,2074
2030,2024,2032,2084,2088,2050,2036,2065
2014,2015,2020,2092,2093,2057,2035,2062
2018,2010,2017,2096,2089,2057,2030,2067
2023,2021,2028,2102,2080,2057,2058,2069
2029,2017,2027,2100,2070,2054,2051,2068
2033,2018,2030,2100,2059,2044,2030,2054
2031,2021,2030,2093,2052,2038,2037,2053
2030,2018,2033,2091,2043,2040,2048,2037
2025,2020,2030,2087,2043,2039,2027,2019
2014,2022,2021,2077,2034,2035,2035,2001
2014,2023,2009,2055,2021,2039,2013,1998
2013,2022,2008,2034,2023,2037,2023,1992
2024,2035,2035,2030,2012,2034,2029,1984
2020,2056,2074,2035,2012,2037,2030,1989
2027,2058,2074,2015,2014,2037,2041,1988
2023,2046,2042,1984,1993,2031,2020,1980
2013,2028,2014,1950,1991,2044,2013,1973
2010,2018,2015,1954,2021,2059,2015,1978
2013,2032,2047,1980,2050,2069,2039,1990
2038,2059,2080,1998,2050,2068,2058,2002
2045,2064,2083,2001,2048,2076,2080,2007
2048,2065,2079,2001,2049,2081,2086,2015
2048,2059,2079,2006,2033,2079,2078,2015
2048,2062,2073,2017,2032,2077,2070,2012
2043,2057,2068,2012,2023,2068,2053,2013
2039,2052,2062,2016,2025,2054,2058,2014
2029,2048,2058,2015,2030,2043,2046,2023
2026,2041,2053,2022,2030,2035,2041,2021
2030,2046,2053,2022,2028,2027,2034,2034
2034,2044,2055,2022,2032,2025,2046,2053
2032,2044,2061,2032,2050,2029,2029,2065
2043,2054,2064,2033,2069,2035,2014,2068
2047,2060,2062,2037,2068,2028,1999,2069
2038,2045,2047,2031,2055,2015,2019,2074
2033,2040,2052,2034,2045,2017,2038,2074
2032,2054,2059,2027,2030,2018,2017,2064
2037,2054,2054,2025,2005,2034,2050,2062
2040,2062,2057,2021,1981,2038,2030,2052
2035,2059,2050,2019,1961,2049,2043,2044
2043,2051,2045,2009,1948,2048,2018,2034
2039,2044,2038,2006,1945,2029,2037,2024
2037,2038,2041,2019,1977,1999,2040,2015
2044,2044,2049,2030,2020,2000,2043,2018
2044,2042,2048,2043,2042,2030,2056,2017
2039,2042,2052,2045,2042,2040,2056,2009
2043,2042,2046,2043,2035,2038,2045,1995
2039,2041,2044,2041,2030,2029,2044,1990
2039,2040,2040,2041,2020,2026,2041,1993
2043,2039,2046,2043,2020,2033,2031,1982
2035,2020,2035,2045,2062,2051,2022,1981
2026,2019,2036,2049,2082,2073,2043,1981
2033,2034,2037,2055,2089,2070,2033,1977
2037,2035,2043,2060,2097,2069,2027,1980
2041,2038,2043,2065,2065,2032,2023,1995
2048,2050,2053,2076,2058,1992,2040,1998
2048,2046,2048,2077,2064,2006,2045,2001
2041,2045,2048,2064,2043,2020,2032,2007
2039,2044,2043,2044,1984,2007,2042,2006
2042,2044,2042,2024,1932,2008,2040,2026
2050,2050,2043,2033,1961,2002,2051,2041
2047,2048,2034,2035,1991,2026,2056,2054
2046,2045,2025,2031,2011,2068,2069,2064
2053,2056,2033,2040,2055,2077,2076,2077
2058,2059,2036,2047,2070,2092,2082,2073
2050,2049,2028,2022,2060,2104,2054,2061
2038,2032,2020,2003,2049,2105,2036,2053
2032,2032,2022,2009,2043,2098,2046,2062
2040,2043,2024,2011,2027,2092,2030,2060
2033,2039,2029,2013,2023,2052,2042,2061
2033,2048,2036,2026,2033,2020,2048,2057
2044,2044,2038,2025,2046,2027,2021,2050
2040,2040,2027,2022,2041,2040,2025,2039
2040,2038,2025,2021,2041,2047,2016,2031
2042,2047,2033,2021,2036,2048,2030,2023
2043,2040,2044,2023,2036,2057,2055,2026
2041,2040,2051,2019,2030,2058,2054,2021
2043,2045,2059,2033,2033,2048,2060,2009
2047,2049,2069,2039,2031,2045,2056,1997
2040,2050,2083,2041,2035,2049,2050,1991
2039,2046,2073,2040,2038,2053,2038,1977
2038,2044,2070,2039,2036,2042,2028,1978
2029,2032,2057,2038,2036,2037,2028,1975
2026,2034,2055,2041,2089,2049,2057,1984
2041,2038,2059,2046,2109,2059,2058,1987
2040,2037,2055,2046,2124,2060,2056,1990
2033,2036,2055,2050,2123,2054,2076,2000
2042,2038,2056,2054,2125,2056,2060,2008
2045,2043,2056,2052,2112,2047,2061,2020
2045,2049,2060,2051,2106,2047,2056,2026
2046,2056,2063,2055,2087,2033,2043,2032
2045,2054,2065,2057,2073,2027,2074,2045
2051,2050,2064,2055,2012,2024,2069,2053
2047,2054,2063,2044,1929,2017,2036,2059
2042,2055,2061,2049,1946,2015,2050,2069
2043,2061,2060,2049,1986,2023,2065,2076
2044,2057,2051,2056,2006,2034,2064,2077
2044,2041,2042,2043,2014,2035,2048,2073
2031,2027,2024,2042,2019,2040,2033,2080
2029,2030,2019,2050,2024,2052,2068,2085
2048,2038,2023,2052,2027,2066,2062,2075
2043,2040,2018,2049,2026,2085,2075,2066
2048,2039,2011,2048,2032,2081,2062,2059
2045,2040,2007,2035,2021,2050,2056,2048
2040,2035,1995,2033,2024,2034,2034,2040
2040,2031,1998,2025,2029,2041,2037,2032
2047,2030,1999,2018,2031,2041,2050,2014
2043,2030,1996,2018,2036,2044,2052,2012
2044,2029,2011,2018,2041,2048,2060,2003
2047,2032,2019,2019,2037,2049,2049,1998
2048,2040,2028,2005,2035,2049,2059,1998
2043,2037,2037,2005,2007,2046,2036,1985
2038,2037,2057,2016,1988,2049,2023,1977
2039,2041,2073,2015,1970,2032,2004,1972
2025,2035,2078,2008,1965,2037,2009,1973
2030,2044,2082,2020,1981,2044,2032,1978
2030,2046,2079,2031,2007,2028,2042,1989
2036,2044,2081,2032,2038,2021,2049,1997
2040,2041,2070,2046,2063,2033,2070,2007
2044,2041,2062,2042,2064,2041,2073,2019
2046,2046,2062,2044,2069,2052,2067,2027
2048,2052,2055,2043,2058,2048,2071,2030
2049,2052,2059,2037,2048,2052,2067,2032
2052,2050,2053,2031,2031,2048,2067,2044
2052,2047,2051,2024,2013,2048,2069,2052
2045,2047,2047,2019,2008,2047,2074,2065
2049,2039,2044,2013,2023,2052,2055,2069
2046,2041,2042,2015,2048,2059,2065,2073
2048,2036,2046,2018,2036,2069,2070,2077
2043,2038,2042,2019,2029,2067,2055,2074
2043,2045,2055,2028,2026,2065,2059,2077
2050,2063,2070,2038,2021,2041,2059,2078
2050,2060,2061,2034,2005,2036,2053,2080
2049,2056,2057,2034,1998,2036,2055,2070
2045,2052,2051,2023,1984,2038,2047,2065
2044,2043,2049,2021,1988,2033,2058,2053
2044,2041,2046,2025,1993,2038,2053,2047
2044,2043,2055,2038,1999,2042,2052,2034
2045,2046,2061,2036,2010,2050,2043,2028
2043,2048,2059,2043,2050,2064,2053,2018
2043,2046,2053,2054,2099,2075,2050,2013
2051,2049,2050,2046,2098,2069,2067,2019
2050,2050,2047,2041,2098,2063,2066,2010
2047,2050,2044,2035,2085,2060,2066,1996
2043,2043,2041,2039,2079,2052,2041,1990
2038,2037,2042,2042,2065,2035,2037,1983
2028,2030,2044,2025,2027,2013,2031,1977
2019,2026,2036,2018,2010,2012,2027,1980
2024,2041,2048,2026,2009,2004,2037,1992
2032,2052,2048,2022,2002,2004,2029,1994
2036,2052,2048,2031,2032,2029,2057,2005
2042,2061,2054,2055,2078,2057,2048,2004
2053,2062,2056,2064,2111,2070,2061,2013
2046,2053,2059,2060,2128,2090,2083,2021
2046,2049,2054,2054,2117,2087,2076,2030
2040,2047,2042,2052,2092,2075,2077,2033
2041,2050,2040,2044,2076,2063,2068,2047
2040,2038,2043,2038,2064,2043,2072,2049
2040,2038,2038,2038,2064,2035,2055,2063
2038,2037,2037,2035,2077,2039,2053,2075
2046,2047,2034,2040,2082,2041,2057,2081
2041,2042,2039,2041,2076,2039,2065,2086
2042,2045,2038,2036,2072,2035,2045,2078
2030,2032,2024,2029,2068,2028,2049,2078
2029,2020,2019,2021,2054,2039,2057,2084
2027,2031,2025,2024,2071,2050,2064,2080
2031,2034,2019,2029,2067,2065,2049,2077
2037,2041,2036,2039,2070,2081,2055,2067
2043,2050,2041,2042,2070,2095,2055,2058
2040,2051,2039,2039,2057,2078,2043,2047
2045,2052,2041,2033,2045,2067,2046,2031
2041,2046,2037,2036,2049,2049,2027,2024
2040,2052,2050,2033,2046,2000,2024,2018
2042,2060,2049,2031,2031,1987,2023,2018
2035,2058,2062,2032,2033,2002,2025,2005
2040,2056,2058,2034,2034,2018,2027,2005
2039,2047,2048,2034,2021,2021,2037,2003
2048,2048,2044,2037,2016,2021,2043,2002
2048,2044,2044,2035,2008,2029,2040,1994
2039,2041,2037,2033,1996,2017,2020,1992
2033,2033,2031,2021,1995,2020,2039,1984
2029,2039,2042,2043,2074,2048,2052,2002
2042,2060,2058,2066,2116,2058,2045,2002
2036,2060,2064,2064,2118,2046,2056,2008
2032,2058,2063,2065,2116,2044,2061,2010
2040,2056,2062,2063,2089,2044,2055,2011
2038,2052,2051,2056,2077,2052,2050,2020
2038,2050,2048,2065,2078,2054,2050,2020
2031,2049,2048,2057,2083,2051,2049,2022
2036,2048,2049,2055,2068,2037,2051,2032
2044,2052,2053,2039,2021,2025,2052,2043
2040,2054,2050,2039,2033,2034,2040,2061
2037,2049,2053,2044,2044,2042,2073,2058
2041,2053,2050,2045,2050,2046,2066,2065
2036,2051,2043,2047,2050,2057,2064,2069
2040,2050,2041,2050,2051,2056,2052,2075
2030,2039,2033,2043,2034,2046,2050,2080
2026,2030,2032,2048,2032,2039,2043,2079
2035,2038,2039,2046,2032,2044,2048,2080
2032,2036,2036,2040,2032,2048,2064,2071
2034,2041,2035,2039,2031,2047,2052,2064
2039,2033,2039,2046,2033,2042,2033,2062
2038,2036,2036,2041,2035,2040,2031,2056
2036,2037,2035,2038,2035,2042,2036,2041
2041,2047,2036,2043,2034,2040,2041,2032
2042,2039,2035,2045,2050,2039,2038,2024
2041,2040,2028,2041,2052,2038,2025,2023
2034,2034,2022,2039,2047,2041,2052,2014
2039,2034,2028,2036,2049,2035,2049,2007
2043,2030,2028,2035,2048,2037,2059,2003
2045,2033,2030,2034,2052,2039,2054,2003
2049,2046,2036,2043,2069,2046,2039,2007
2055,2056,2040,2048,2070,2041,2038,1996
2048,2045,2039,2038,2054,2035,2037,1990
2040,2045,2044,2051,2059,2046,2043,1992
2037,2054,2051,2050,2059,2054,2044,1987
2043,2050,2040,2054,2055,2054,2053,1989
2037,2040,2039,2052,2057,2057,2053,1991
2031,2039,2044,2058,2064,2061,2050,1994
2038,2044,2044,2067,2070,2062,2068,2018
2047,2040,2043,2067,2073,2066,2055,2021
2045,2041,2043,2059,2066,2068,2069,2031
2049,2045,2038,2052,2059,2067,2061,2042
2046,2044,2037,2049,2049,2065,2076,2048
2042,2043,2029,2043,2044,2076,2086,2060
2045,2046,2042,2040,2043,2078,2084,2069
2042,2058,2050,2040,2039,2074,2063,2077
2040,2064,2072,2035,2044,2069,2059,2088
2043,2069,2068,2029,2034,2062,2055,2089
2037,2057,2055,2019,2024,2054,2033,2089
2040,2057,2050,2011,2030,2049,2033,2094
2044,2070,2054,2012,2033,2045,2037,2085
2051,2066,2052,2019,2062,2051,2024,2083
2049,2062,2047,2022,2082,2041,2019,2078
2045,2053,2042,2012,2105,2030,2031,2071
2040,2049,2037,2014,2108,2042,2043,2063
2042,2047,2036,2014,2117,2054,2055,2045
2044,2043,2035,2009,2132,2070,2051,2046
2042,2046,2042,2020,2126,2078,2029,2038
2050,2047,2043,2021,2117,2067,2028,2041
2044,2050,2037,2025,2099,2071,2040,2032
2050,2053,2035,2019,2072,2068,2033,2027
2045,2049,2041,2019,2005,2061,2069,2016
2053,2047,2038,2010,1929,2057,2052,2006
2041,2043,2042,2016,1961,2058,2058,2006
2044,2044,2046,2019,2002,2051,2044,2001
2039,2044,2042,2024,2026,2056,2045,1998
2043,2052,2052,2035,2040,2057,2044,2005
2053,2061,2055,2044,2043,2046,2044,2008
2049,2062,2054,2042,2029,2018,2047,2006
2044,2055,2052,2046,2036,2030,2051,2013
2047,2052,2051,2044,2030,2037,2029,2022
2048,2049,2047,2039,2023,2037,2041,2028
2043,2039,2043,2039,2011,2043,2039,2033
2043,2035,2053,2047,2009,2058,2042,2032
2039,2028,2054,2045,2006,2057,2038,2031
2038,2026,2066,2045,1979,2049,2030,2036
2029,2016,2068,2048,1973,2061,2040,2042
2032,2013,2056,2046,1994,2049,2040,2060
2031,2012,2049,2056,2054,2020,2045,2078
2032,2016,2045,2054,2098,2017,2049,2078
2033,2017,2038,2052,2080,2036,2047,2077
2022,2000,2021,2049,2077,2053,2021,2070
2012,2001,2013,2051,2087,2060,2009,2068
2028,2019,2022,2064,2072,2061,2014,2077
2039,2035,2026,2065,2054,2072,2049,2087
2042,2037,2034,2059,2054,2062,2042,2082
2042,2030,2024,2054,2046,2046,2034,2072
2049,2026,2014,2050,2058,2034,2026,2064
2051,2029,2008,2042,2058,2038,2019,2045
2046,2030,2002,2019,2055,2037,2034,2039
2050,2039,2003,2011,2055,2033,2021,2031
2044,2044,2010,2008,2058,2039,2023,2022
2055,2054,2011,2023,2061,2047,2027,2022
2057,2055,2015,2018,2044,2040,2017,2021
2058,2063,2012,2009,2028,2034,2014,2014
2055,2060,2021,2007,1984,2029,2027,2015
2054,2062,2033,2007,1926,2023,2013,2010
2054,2053,2039,2007,1940,2016,2016,2003
2048,2043,2049,2009,1978,2012,2036,2004
2049,2047,2050,2012,2015,2032,2040,2014
2064,2064,2064,2018,2067,2043,2045,2015
2060,2068,2071,2020,2088,2046,2042,2018
2062,2070,2074,2022,2085,2056,2063,2021
2058,2068,2074,2021,2073,2056,2054,2030
2063,2070,2071,2021,2078,2057,2059,2040
2067,2075,2072,2029,2085,2067,2065,2050
2068,2082,2081,2041,2126,2090,2071,2052
2067,2082,2079,2046,2172,2109,2074,2069
2066,2080,2074,2050,2168,2098,2082,2083
2066,2072,2065,2026,2069,2069,2078,2088
2060,2065,2058,2002,1972,2039,2064,2091
2064,2064,2061,1994,1936,2024,2057,2094
2059,2066,2064,2008,1990,2045,2061,2096
2050,2059,2067,2020,2052,2058,2072,2093
2044,2043,2045,2014,2105,2068,2047,2083
2034,2038,2038,2023,2164,2075,2035,2081
2043,2040,2044,2041,2177,2099,2050,2080
2043,2045,2044,2041,2106,2056,2036,2089
2045,2046,2042,2029,1984,2014,2012,2081
2048,2045,2051,2038,2010,2046,2026,2080
2054,2053,2066,2049,2060,2080,2062,2075
2060,2059,2064,2044,2028,2091,2054,2063
2061,2058,2069,2051,2044,2105,2056,2050
2059,2063,2069,2054,2049,2122,2053,2034
2057,2056,2065,2045,2039,2113,2032,2025
2053,2055,2059,2037,2027,2092,2048,2008
2046,2045,2047,2031,2006,2070,2029,2007
2040,2043,2044,2033,2058,2050,2048,2013
2047,2041,2046,2040,2098,2010,2031,2020
2057,2050,2047,2040,2149,1990,2038,2017
2058,2048,2050,2049,2123,1982,2040,2013
2055,2038,2048,2056,2058,1989,2025,2009
2061,2037,2045,2056,2035,1995,2025,2010
2058,2048,2052,2068,2027,2010,2037,2011
2059,2043,2044,2072,2036,2018,2028,2006
2054,2042,2042,2065,2050,2026,2028,2010
2044,2039,2035,2064,2035,2030,2024,2011
2042,2035,2029,2060,1996,2028,2017,2014
2048,2038,2026,2050,1985,2020,2044,2013
2041,2042,2025,2047,1993,2011,2033,2029
2035,2051,2029,2056,2021,2009,2013,2044
2046,2062,2038,2067,2053,2012,2034,2064
2057,2066,2038,2073,2070,2018,2052,2068
2058,2058,2031,2066,2083,2031,2048,2076
2060,2047,2013,2052,2069,2032,2049,2078
2044,2046,2004,2039,2092,2035,2062,2091
2051,2048,1996,2024,2093,2035,2061,2096
2053,2044,1999,2016,2082,2034,2057,2098
2041,2037,2001,2013,2074,2026,2044,2099
2037,2044,2008,2016,2071,2030,2054,2107
2048,2058,2023,2023,2061,2037,2050,2104
2049,2055,2044,2029,2045,2037,2048,2090
2047,2054,2058,2018,2021,2024,2050,2082
2042,2047,2068,2013,2011,2038,2062,2065
2042,2038,2056,2004,2001,2056,2058,2051
2041,2032,2054,1999,1937,2049,2054,2046
2040,2034,2059,2005,1948,2044,2040,2043
2045,2037,2064,2013,1972,2028,2040,2042
2051,2044,2071,2011,1996,1996,2057,2043
2054,2049,2080,2023,2002,1960,2033,2042
2058,2065,2094,2030,1993,1954,2007,2031
2051,2069,2093,2029,1995,1982,2028,2023
2060,2075,2096,2042,2023,2033,2047,2023
2058,2068,2092,2048,2060,2077,2054,2016
2055,2052,2076,2048,2058,2100,2071,2012
2052,2047,2071,2047,2040,2093,2066,2014
2056,2054,2077,2045,2033,2072,2062,2015
2059,2051,2076,2045,2002,2045,2058,2029
2061,2061,2081,2052,2024,2043,2063,2027
2060,2065,2076,2051,2044,2047,2048,2029
2054,2065,2064,2049,2037,2042,2043,2027
2053,2063,2067,2046,2046,2052,2058,2037
2055,2065,2060,2057,2101,2065,2059,2036
2052,2062,2058,2075,2180,2081,2074,2047
2054,2064,2063,2091,2258,2104,2071,2052
2052,2065,2064,2102,2287,2134,2078,2057
2045,2062,2058,2100,2280,2126,2081,2063
2039,2056,2057,2084,2288,2111,2068,2066
2045,2055,2050,2067,2264,2094,2037,2075
2040,2058,2052,2045,2109,2057,2059,2076
2046,2060,2051,2031,2044,2046,2050,2080
2040,2048,2046,2041,2038,2050,2051,2088
2043,2057,2052,2029,1937,2036,2044,2096
2047,2065,2047,1997,1710,2017,2047,2079
2044,2056,2050,2001,1728,2026,2042,2069
2037,2053,2048,1998,1800,2038,2046,2058
2044,2063,2053,2015,1926,2062,2049,2062
2040,2063,2052,2036,2011,2076,2051,2054
2040,2058,2039,2033,1996,2076,2047,2050
2044,2040,2041,2036,2007,2070,2045,2034
2029,2027,2041,2034,2036,2046,2038,2032
2029,2017,2043,2050,2058,2042,2041,2027
2037,2036,2052,2066,2025,2042,2039,2033
2049,2055,2054,2059,2001,2044,2009,2037
2059,2065,2054,2054,2017,2062,2018,2019
2050,2060,2043,2050,2015,2067,2028,2016
2057,2070,2041,2045,1965,2056,2028,2018
2054,2056,2035,2041,1988,2047,2031,2013
2050,2052,2022,2037,2035,2053,2049,2019
2061,2061,2034,2043,2016,2050,2050,2025
2058,2057,2027,2036,2036,2059,2066,2019
2058,2056,2033,2048,2066,2060,2067,2025
2055,2052,2031,2048,2070,2047,2043,2018
2056,2053,2033,2046,2070,2010,2034,2024
2046,2050,2038,2040,2059,1967,2018,2033
2047,2047,2037,2028,2035,1970,2008,2027
2044,2045,2034,2022,2047,2003,2028,2039
2052,2044,2036,2031,2105,2031,2036,2053
2043,2043,2041,2032,2137,2041,2055,2062
2046,2044,2052,2030,2117,2040,2046,2080
2048,2054,2066,2032,2082,2039,2025,2089
2051,2053,2067,2028,2063,2045,2039,2092
2053,2054,2064,2031,2058,2059,2048,2091
2044,2040,2062,2021,2046,2054,2035,2090
2040,2041,2066,2024,2047,2048,2043,2096
2043,2054,2071,2035,2052,2054,2054,2094
2045,2057,2074,2036,2034,2061,2043,2099
2046,2049,2066,2034,2027,2070,2030,2102
2050,2051,2059,2034,2048,2065,2054,2090
2057,2056,2055,2043,2097,2063,2041,2082
2062,2059,2055,2047,2095,2064,2036,2074
2058,2061,2063,2062,2124,2078,2043,2064
2061,2060,2061,2078,2150,2080,2045,2053
2060,2060,2065,2071,2132,2073,2019,2040
2059,2061,2063,2061,2103,2057,2002,2029
2060,2060,2060,2050,2079,2050,2019,2022
2053,2054,2050,2053,2110,2043,2015,2016
2045,2041,2042,2054,2118,2046,2027,2002
2044,2043,2047,2057,2107,2053,2041,2006
2049,2042,2050,2063,2133,2064,2049,2000
2040,2026,2034,2062,2165,2064,2040,1998
2034,2027,2037,2070,2158,2077,2066,2001
2046,2046,2045,2072,2179,2089,2074,2021
2059,2058,2055,2087,2186,2097,2081,2030
2063,2063,2064,2080,2150,2085,2059,2029
2070,2071,2055,2070,2114,2061,2035,2030
2067,2066,2047,2041,2044,2049,2045,2045
2064,2066,2051,2034,1987,2058,2044,2054
2069,2071,2053,2021,1877,2027,2052,2056
2064,2067,2056,2014,1862,2010,2044,2058
2060,2066,2062,2020,1908,2019,2025,2070
2065,2068,2068,2029,1953,2047,2052,2089
2064,2064,2063,2047,2011,2071,2076,2104
2064,2063,2060,2040,2021,2080,2070,2107
2059,2060,2053,2036,2013,2087,2054,2105
2053,2052,2049,2020,1951,2074,2041,2103
2043,2035,2026,1982,1850,2040,2005,2097
2031,2024,2016,2005,1930,2048,2012,2110
2039,2043,2038,2056,2029,2066,2032,2109
2046,2065,2051,2081,2099,2085,2028,2105
2058,2070,2057,2086,2107,2100,2052,2098
2054,2062,2049,2070,2112,2092,2056,2083
2054,2050,2043,2056,2095,2090,2051,2071
2045,2037,2027,2044,2084,2084,2022,2045
2037,2017,2005,2011,2014,2048,2010,2024
2033,2001,1997,1985,1940,2009,1999,2021
2042,2020,2013,2012,1961,2022,2010,2019
2047,2035,2026,2051,2096,2019,2016,2018
2039,2042,2042,2058,2141,2021,2050,2023
2046,2055,2044,2049,2096,2041,2042,2018
2049,2053,2048,2064,2126,2044,2048,2017
2043,2047,2051,2053,2104,2036,2044,2016
2029,2031,2039,2029,2036,2015,2020,2007
2022,2040,2046,2034,2043,2044,2019,1999
2036,2057,2055,2053,2042,2082,2026,2000
2041,2050,2048,2053,2036,2097,2022,1996
2047,2059,2050,2056,2044,2078,2030,2008
2055,2064,2051,2052,2030,2023,2016,2016
2060,2066,2048,2056,2037,1954,2005,2032
2067,2066,2058,2062,1994,1945,2013,2048
2072,2068,2060,2067,2013,1979,2031,2058
2070,2070,2056,2073,2098,2022,2072,2070
2080,2076,2065,2101,2194,2065,2096,2087
2077,2075,2070,2114,2189,2106,2071,2098
2066,2059,2060,2114,2172,2148,2098,2117
2074,2058,2061,2118,2168,2163,2096,2130
2074,2062,2056,2116,2136,2163,2075,2129
2079,2060,2050,2080,2015,2146,2067,2130
2076,2058,2041,2076,2059,2120,2044,2125
2062,2046,2031,2071,2072,2050,2053,2120
2054,2049,2041,2058,1928,2010,2037,2116
2049,2051,2049,2035,1908,1996,2044,2111
2039,2039,2037,2003,1994,1996,2030,2088
2040,2031,2027,2019,2150,2046,2038,2089
2056,2045,2044,2064,2171,2081,2031,2086
2069,2052,2049,2063,1996,2038,2027,2061
2069,2051,2047,2049,1917,1980,2024,2050
2061,2047,2042,2056,1991,1977,2017,2033
2057,2047,2050,2056,2044,1986,2016,2018
2059,2052,2052,2046,2038,2002,2005,2012
2057,2044,2046,2045,2045,2038,2020,2004
2041,2039,2036,2054,2096,2052,2018,1993
2032,2033,2034,2056,2150,2033,2006,1983
2025,2035,2034,2051,2155,2046,2016,1986
2037,2038,2039,2055,2169,2058,2027,1996
2036,2041,2038,2066,2172,2076,2040,2002
2044,2043,2044,2053,2030,2052,2053,2007
2042,2055,2050,2032,1871,2013,2044,2015
2041,2054,2057,2038,1950,2029,2042,2011
2048,2054,2049,2045,2006,2042,2041,2019
2059,2062,2055,2043,2035,2048,2037,2024
2068,2062,2060,2048,2029,2046,2052,2042
2070,2064,2062,2041,1967,2025,2028,2044
2066,2062,2056,2024,1921,2008,2053,2052
2057,2065,2054,2027,1932,2008,2028,2055
2061,2059,2049,2039,2026,2011,2038,2060
2054,2058,2060,2058,2088,2023,2050,2077
2059,2052,2051,2048,2046,2038,2039,2082
2060,2053,2041,2049,2032,2055,2040,2093
2050,2051,2037,2064,2093,2072,2054,2094
2047,2041,2034,2071,2110,2066,2040,2091
2036,2030,2031,2068,2104,2059,2051,2089
2033,2035,2043,2075,2101,2054,2051,2077
2025,2053,2047,2069,2096,2056,2050,2084
2043,2048,2047,2073,2148,2077,2045,2086
2055,2043,2050,2078,2171,2078,2052,2095
2057,2046,2050,2075,2133,2063,2049,2068
2045,2045,2047,2056,2059,2064,2037,2046
2028,2041,2038,2051,2039,2084,2025,2049
2040,2044,2036,2061,2057,2092,2025,2035
2045,2038,2026,2060,2050,2082,2016,2014
2036,2022,2023,2047,2024,2047,2037,2013
2034,2020,2029,2055,2063,2027,2040,2022
2043,2032,2034,2060,2020,2027,2025,2016
2040,2028,2024,2040,1982,2034,2024,2012
2038,2021,2024,2036,2041,2035,2039,2013
2039,2016,2013,2023,2005,2024,2026,2006
2032,2023,2014,2016,1966,2028,2039,2004
2040,2044,2019,2037,1989,2041,2038,2011
2057,2069,2034,2047,2020,2057,2046,2010
2060,2067,2033,2041,2035,2069,2055,2020
2060,2051,2018,2036,2045,2082,2085,2027
2061,2049,2029,2045,2056,2076,2068,2030
2067,2052,2035,2046,2059,2066,2070,2034
2061,2051,2035,2042,2061,2052,2050,2035
2061,2049,2039,2043,2072,2042,2040,2039
2050,2052,2053,2051,2094,2049,2042,2046
2056,2053,2046,2046,2054,2057,2059,2052
2054,2055,2051,2043,2019,2080,2073,2067
2054,2057,2050,2053,1993,2082,2071,2085
2057,2057,2055,2055,1981,2072,2068,2097
2059,2061,2060,2041,1910,2035,2071,2099
2055,2047,2056,2027,1841,2010,2054,2093
2042,2034,2048,2025,1867,2003,2043,2093
2046,2038,2062,2037,1917,2018,2052,2093
2056,2055,2082,2033,1898,2013,2042,2094
2060,2058,2074,2015,1816,1989,2011,2084
2063,2058,2066,2010,1858,1989,1999,2071
2055,2059,2064,2052,2073,2033,2032,2067
2064,2069,2074,2085,2230,2056,2021,2057
2058,2068,2069,2083,2206,2063,2043,2039
2052,2060,2056,2078,2180,2064,2056,2029
2053,2059,2050,2061,2180,2057,2017,2020
2044,2050,2043,2053,2206,2052,2011,2013
2040,2038,2034,2060,2244,2052,2033,2014
2055,2042,2045,2083,2222,2074,2032,2017
2055,2038,2038,2064,2114,2093,2032,2015
2052,2037,2038,2041,1970,2092,2061,2018
2047,2046,2044,2035,1904,2087,2064,2024
2050,2041,2043,2040,1921,2071,2032,2011
2039,2032,2035,2036,1936,2031,2055,2018
2056,2057,2057,2066,2003,2036,2066,2021
2073,2060,2061,2068,2055,2042,2081,2020
2067,2047,2047,2073,2081,2030,2056,2015
2059,2032,2042,2067,2078,2013,2041,2017
2065,2026,2039,2060,2036,2001,2047,2013
2070,2038,2041,2042,2009,2002,2033,2008
2064,2035,2037,2046,2026,2002,2030,2012
2059,2029,2039,2055,2036,2028,2048,2018
2053,2031,2054,2068,2017,2063,2060,2025
2033,2033,2053,2075,2017,2112,2064,2038
2036,2038,2056,2088,2029,2107,2078,2060
2040,2033,2052,2081,2025,2082,2078,2082
2044,2033,2046,2074,2016,2069,2069,2091
2044,2024,2024,2063,2031,2055,2059,2091
2048,2022,2024,2068,2065,2068,2055,2095
2042,2017,2019,2082,2168,2107,2053,2082
2031,2006,1997,2079,2197,2121,2051,2077
2040,2010,2006,2070,2186,2119,2055,2069
2030,2021,2022,2073,2157,2091,2045,2050
2024,2031,2029,2068,2152,2046,2019,2048
2026,2030,2025,2046,2127,2015,2004,2061
2033,2035,2024,2054,2139,2019,2044,2060
2021,2039,2025,2062,2141,2035,2033,2038
2013,2048,2040,2068,2177,2057,2042,2043
2030,2054,2044,2084,2166,2076,2055,2054
2047,2057,2039,2070,2122,2079,2059,2041
2049,2045,2026,2036,2054,2060,2036,2032
2044,2036,2018,2013,1978,2045,2029,2023
2044,2050,2035,2042,2020,2059,1997,2008
2047,2064,2051,2060,2028,2084,2033,1998
2058,2059,2053,2052,2006,2086,2018,1995
2060,2046,2056,2036,1975,2070,2006,1981
2042,2048,2053,2039,1961,2052,1982,1978
2037,2059,2078,2064,2018,2021,2018,1994
2040,2082,2092,2084,2078,1985,2014,2002
2043,2083,2087,2093,2090,1977,2011,2000
2047,2070,2083,2094,2095,1993,2029,2016
2055,2064,2073,2083,2089,2011,2025,2028
2053,2069,2072,2087,2099,2037,2048,2042
2059,2078,2077,2102,2116,2067,2055,2043
2060,2078,2078,2114,2155,2085,2067,2042
2053,2075,2068,2111,2144,2087,2066,2055
2062,2064,2058,2080,2009,2071,2058,2059
2049,2054,2045,2070,2007,2058,2055,2067
2045,2041,2042,2063,2027,2053,2055,2067
2052,2037,2034,2052,2021,2059,2070,2069
2045,2040,2032,2042,1988,2072,2052,2069
2043,2035,2031,2038,1970,2087,2059,2083
2040,2025,2024,2025,1935,2081,2052,2086
2040,2021,2022,2014,1916,2068,2050,2089
2050,2044,2030,2021,1954,2056,2067,2091
2054,2047,2033,2040,2047,2051,2052,2085
2052,2044,2032,2055,2131,2055,2041,2071
2041,2042,2033,2048,2102,2020,2025,2056
2040,2036,2037,2026,1989,1986,2025,2056
2054,2050,2043,2039,1960,1998,2057,2058
2059,2050,2049,2062,1950,2008,2059,2038
2065,2041,2041,2063,1932,2020,2051,2030
2052,2025,2036,2061,1948,2044,2052,2024
2054,2015,2034,2074,2028,2066,2062,2014
2039,2014,2032,2066,2079,2066,2050,2005
2032,2027,2038,2064,2046,2049,2042,2001
2026,2030,2040,2060,2004,2038,2033,1988
2027,2033,2047,2060,1969,2014,2023,1990
2043,2047,2052,2056,1957,1984,1994,1995
2038,2034,2037,2053,1974,1984,2023,1992
2037,2030,2037,2050,2044,2008,2034,2004
2045,2041,2050,2073,2138,2053,2042,2007
2046,2052,2053,2096,2170,2093,2064,2006
2057,2062,2055,2101,2196,2115,2051,2007
2057,2065,2057,2096,2166,2121,2054,2015
2066,2070,2054,2071,2052,2099,2064,2016
2059,2058,2051,2060,1987,2066,2062,2011
2046,2050,2049,2061,2085,2049,2049,2015
2042,2045,2058,2100,2235,2080,2061,2040
2050,2048,2064,2135,2305,2093,2076,2050
2047,2039,2055,2113,2279,2066,2064,2056
2047,2046,2053,2098,2248,2045,2040,2064
2048,2046,2056,2085,2123,2029,2049,2072
2039,2045,2056,2102,2085,2055,2057,2082
2042,2043,2063,2104,2024,2057,2033,2074
2039,2036,2045,2085,2037,2057,2029,2076
2039,2038,2050,2097,2110,2065,2033,2091
2055,2050,2047,2088,2022,2056,2038,2084
2059,2041,2043,2056,1899,2035,2043,2070
2054,2027,2037,2036,1908,2047,2042,2061
2052,2030,2037,2033,1950,2068,2057,2056
2044,2039,2051,2042,1977,2080,2039,2038
2042,2064,2064,2049,2025,2061,2057,2043
2048,2058,2052,2051,2066,2035,2055,2046
2058,2053,2045,2039,2022,1999,2035,2032
2058,2054,2041,2029,1994,1994,2040,2022
2054,2057,2035,2043,1978,2012,2032,2012
2047,2052,2039,2046,1966,2028,2025,1993
2042,2046,2039,2066,1993,2053,2034,1994
2050,2046,2049,2070,1972,2074,2067,2015
2061,2046,2056,2054,1923,2068,2081,2022
2056,2044,2047,2024,1890,2053,2050,2002
2040,2023,2031,1988,1902,2049,2057,1995
2035,2029,2030,1993,1996,2069,2059,1993
2036,2028,2034,2021,2110,2098,2060,1995
2041,2030,2032,2047,2116,2110,2054,1992
2039,2032,2041,2072,2202,2121,2070,2010
2043,2038,2047,2104,2252,2119,2077,2018
2050,2040,2044,2103,2237,2099,2086,2033
2049,2039,2044,2083,2165,2059,2080,2023
2053,2042,2044,2057,2040,2028,2066,2018
2058,2044,2049,2053,1978,2031,2069,2022
2060,2051,2060,2075,2068,2044,2060,2027
2046,2046,2056,2077,2118,2042,2026,2028
2040,2037,2053,2058,2058,2017,1981,2043
2025,2037,2046,2052,2028,2010,2016,2048
2027,2028,2044,2062,2009,2025,2006,2059
2030,2034,2048,2067,2011,2058,2046,2064
2029,2032,2049,2065,2021,2086,2040,2077
2034,2034,2054,2066,2013,2091,2058,2077
2037,2036,2056,2061,1990,2078,2048,2062
2042,2036,2052,2056,1993,2068,2043,2055
2036,2037,2052,2049,2000,2072,2043,2046
2039,2031,2042,2047,1997,2053,2020,2039
2029,2027,2031,2036,2011,2006,2007,2019
2026,2009,2013,2031,2064,1992,2007,2010
2023,2005,2012,2039,2102,2021,2029,2008
2038,2008,2017,2052,2115,2043,2028,1999
2038,2010,2018,2061,2094,2070,2032,1991
2028,2004,2022,2053,2064,2101,2031,1980
2017,2005,2022,2040,2036,2117,2032,1974
2021,2004,2019,2039,2029,2151,2034,1974
2018,2010,2027,2044,2016,2140,2046,1983
2033,2013,2032,2064,2017,2072,2052,1998
2041,2022,2043,2088,2039,2016,2044,2001
2050,2032,2054,2104,2068,1987,2051,2015
2058,2047,2066,2127,2096,2000,2041,2015
2064,2047,2064,2130,2090,2039,2063,2011
2061,2047,2064,2122,2075,2067,2039,2005
2046,2036,2066,2111,2066,2074,2053,2002
2052,2043,2077,2124,2092,2078,2057,2016
2060,2056,2094,2139,2101,2080,2074,2031
2060,2052,2095,2141,2075,2063,2058,2033
2066,2057,2099,2140,2061,2052,2055,2041
2064,2062,2096,2140,2102,2053,2045,2054
2065,2065,2089,2140,2143,2059,2058,2062
2061,2058,2081,2133,2140,2051,2053,2068
2063,2046,2061,2112,2115,2036,2049,2075
2048,2038,2040,2087,2089,2017,2037,2071
2039,2022,2028,2054,2062,1996,2023,2063
2024,1999,1996,2023,2032,1982,1999,2056
2017,1997,2000,2009,1995,1995,2009,2058
2028,2018,2012,1976,1881,2005,2012,2057
2032,2039,2040,1982,1916,2025,2026,2057
2046,2056,2056,1990,1958,2059,2031,2059
2051,2061,2060,1991,1981,2067,2031,2056
2048,2047,2041,1989,2007,2068,2032,2037
2038,2032,2020,1979,1996,2060,2020,2038
2036,2020,1989,1970,1998,2034,2027,2033
2042,2023,1986,1989,2024,2007,2026,2029
2050,2027,1987,1998,2049,2028,2044,2021
2052,2035,2005,2026,2072,2076,2061,2025
2053,2039,2021,2050,2119,2105,2070,2019
2050,2042,2040,2055,2131,2116,2070,2009
2052,2048,2049,2049,2113,2102,2072,2009
2056,2045,2056,2048,2096,2072,2056,2006
2049,2042,2053,2044,2121,2058,2033,1992
2045,2044,2070,2046,2108,2046,2032,1987
2048,2053,2092,2044,2018,2026,2033,1983
2052,2057,2094,2049,1968,2025,2037,1987
2035,2042,2079,2048,1934,2026,2042,1998
2035,2024,2060,2045,1970,2010,2051,2001
2022,2021,2059,2054,2012,1994,2050,2009
2037,2039,2082,2081,2059,2000,2032,2013
2041,2049,2082,2088,2073,1997,2040,2009
2036,2048,2087,2078,2045,2012,2046,2021
2046,2045,2083,2090,2101,2035,2054,2038
2045,2037,2079,2101,2124,2043,2052,2046
2038,2031,2071,2095,2119,2036,2053,2055
2033,2032,2066,2097,2097,2036,2061,2063
2028,2024,2076,2087,2078,2032,2046,2067
2027,2025,2081,2092,2090,2036,2050,2068
2031,2033,2087,2083,2091,2041,2039,2069
2033,2036,2088,2079,2057,2054,2056,2071
2034,2053,2086,2061,1954,2062,2056,2071
2033,2047,2083,2059,1948,2055,2059,2071
2037,2048,2073,2067,2047,2071,2055,2068
2044,2050,2072,2079,2072,2104,2049,2067
2041,2046,2069,2081,2061,2133,2046,2050
2041,2043,2064,2074,2041,2120,2042,2040
2038,2040,2049,2069,2025,2097,2053,2028
2042,2039,2047,2072,2029,2049,2034,2018
2050,2050,2052,2073,2056,2005,2040,2010
2060,2057,2050,2068,2074,2010,2041,2013
2053,2057,2052,2060,2046,2030,2039,2008
2050,2057,2046,2050,2018,2036,2038,1997
2056,2039,2041,2042,2005,2040,2049,1988
2055,2035,2032,2024,1985,2041,2036,1990
2044,2034,2021,2021,1973,2002,2032,1981
2042,2030,2026,2036,1997,1996,2035,1996
2047,2043,2038,2056,2026,2049,2079,2016
2058,2052,2052,2069,2011,2085,2065,2007
2050,2051,2054,2073,2009,2097,2061,1990
2043,2043,2052,2068,2013,2079,2044,1979
2031,2042,2048,2059,2014,2063,2046,1990
2042,2043,2050,2069,2070,2061,2046,2004
2041,2044,2052,2072,2064,2062,2048,2024
2045,2048,2042,2069,2093,2063,2039,2026
2050,2053,2040,2077,2113,2070,2055,2035
2047,2045,2038,2074,2090,2072,2069,2046
2050,2043,2034,2071,2063,2071,2071,2062
2050,2044,2036,2072,2061,2065,2059,2062
2049,2048,2042,2064,2032,2055,2052,2062
2033,2045,2036,2054,2069,2054,2046,2068
2024,2031,2020,2050,2088,2053,2021,2067
2011,2009,2011,2030,2042,2058,2032,2068
2009,2016,2010,2018,2020,2043,2041,2074
2030,2038,2029,2035,2068,2039,2027,2076
2040,2052,2048,2062,2128,2050,2021,2069
2042,2065,2065,2081,2162,2052,2025,2066
2041,2069,2070,2083,2163,2055,2044,2052
2046,2060,2068,2083,2151,2059,2046,2042
2042,2064,2070,2093,2138,2065,2046,2038
2039,2065,2087,2106,2120,2062,2043,2031
2041,2074,2095,2094,2028,2046,2043,2023
2040,2064,2093,2070,1989,2040,2041,2021
2043,2060,2082,2048,1986,2041,2045,2011
2041,2054,2088,2061,2053,2056,2026,2006
2040,2058,2093,2064,2117,2067,2027,1993
2036,2054,2098,2064,2155,2067,2044,1993
2034,2051,2086,2042,2087,2045,2020,1980
2026,2038,2058,2019,1985,2036,2003,1987
2031,2031,2059,2034,1998,2050,2024,2004
2040,2048,2060,2037,2009,2030,2032,2006
2041,2050,2044,2035,2013,2033,2036,2018
2045,2045,2041,2041,2031,2044,2051,2023
2044,2043,2046,2048,2028,2045,2056,2028
2039,2042,2049,2053,2027,2049,2043,2030
2038,2043,2053,2053,2028,2042,2050,2034
2038,2044,2049,2053,2030,2042,2050,2036
2035,2037,2044,2045,2020,2038,2048,2036
2033,2032,2045,2054,2028,2046,2053,2043
2023,2036,2051,2059,2077,2059,2062,2056
2032,2041,2054,2062,2099,2078,2051,2072
2035,2042,2050,2052,2105,2081,2065,2085
2037,2041,2051,2053,2097,2075,2060,2089
2042,2046,2053,2060,2104,2071,2043,2080
2031,2038,2056,2052,2098,2064,2021,2077
2038,2036,2053,2056,2083,2055,2013,2086
2046,2046,2051,2051,2039,2027,2035,2095
2042,2043,2040,2039,2006,2008,2039,2088
2049,2040,2043,2052,2008,2023,2036,2080
2050,2040,2040,2050,2012,2037,2058,2067
2043,2035,2047,2053,2046,2055,2046,2057
2044,2034,2043,2054,2054,2068,2034,2042
2039,2034,2046,2052,2047,2076,2048,2034
2036,2041,2048,2051,2041,2069,2048,2034
2033,2044,2041,2043,2006,2045,2054,2025
2040,2048,2047,2038,1969,2018,2043,2029
2050,2044,2041,2038,1965,1995,2031,2023
2053,2048,2033,2042,1959,1977,2042,2015
2051,2040,2026,2025,1974,1991,2027,1994
2040,2031,2023,2038,2011,2028,2035,1986
2033,2033,2042,2072,2060,2061,2053,1989
2038,2036,2060,2103,2114,2083,2077,1989
2044,2038,2068,2111,2138,2060,2072,1994
2036,2027,2059,2096,2114,2010,2036,1999
2037,2019,2050,2089,2089,2015,2032,1995
2039,2025,2051,2082,2129,2039,2058,2014
2046,2044,2062,2093,2196,2069,2081,2027
2048,2050,2055,2075,2141,2069,2074,2031
2053,2052,2053,2067,2083,2060,2051,2034
2051,2056,2053,2075,2092,2070,2062,2042
2056,2054,2050,2079,2113,2080,2076,2052
2049,2057,2045,2079,2093,2071,2057,2051
2045,2060,2046,2068,2055,2048,2055,2056
2045,2060,2045,2048,2005,2038,2037,2054
2032,2046,2031,2044,2032,2052,2031,2072
2030,2051,2035,2055,2055,2060,2052,2092
2041,2059,2045,2049,2047,2032,2049,2095
2043,2056,2041,2032,2022,2032,2040,2098
2034,2051,2031,2025,2008,2060,2045,2094
2041,2054,2040,2030,1996,2066,2057,2088
2050,2051,2046,2024,1980,2063,2043,2075
2052,2037,2040,2013,1996,2062,2056,2077
2053,2043,2041,2036,2057,2067,2068,2079
2051,2047,2042,2051,2129,2080,2068,2073
2051,2046,2045,2062,2197,2096,2063,2062
2052,2050,2049,2081,2252,2107,2053,2047
2061,2053,2050,2076,2248,2090,2039,2040
2050,2046,2065,2072,2184,2066,2038,2028
2049,2043,2070,2061,2067,2021,2055,2019
2041,2044,2070,2071,2024,1997,2033,2016
2052,2053,2069,2088,2073,2014,2043,2009
2047,2039,2048,2060,1942,2010,2037,2008
2039,2035,2039,2057,1941,2022,2050,2002
2031,2025,2037,2060,2002,2014,2033,1994
2029,2028,2031,2048,2011,2009,2049,2008
2050,2043,2046,2061,2039,2034,2045,2018
2057,2045,2047,2065,2069,2048,2039,2009
2055,2052,2060,2080,2106,2057,2047,2015
2053,2056,2060,2074,2107,2057,2061,2014
2056,2050,2055,2075,2090,2050,2049,2022
2058,2051,2038,2057,2071,2048,2053,2026
2047,2042,2028,2055,2069,2046,2063,2029
2038,2037,2019,2054,2062,2053,2047,2027
2032,2030,2008,2038,2049,2053,2052,2039
2032,2023,1994,2033,2042,2056,2061,2057
2042,2029,2010,2048,2038,2057,2068,2075
2040,2041,2027,2062,2043,2050,2061,2077
2038,2043,2029,2067,2047,2060,2059,2088
2042,2043,2024,2060,2053,2056,2053,2094
2038,2029,2011,2049,2042,2046,2041,2091
2033,2019,2011,2051,2049,2039,2038,2090
2038,2032,2023,2055,2063,2041,2042,2082
2045,2043,2036,2060,2066,2045,2058,2083
2051,2044,2041,2068,2050,2047,2052,2083
2049,2053,2037,2072,2047,2038,2039,2078
2054,2049,2026,2064,2038,2035,2050,2068
2056,2041,2018,2057,2037,2028,2032,2042
2045,2029,2011,2042,2024,2010,2019,2036
2043,2024,2011,2037,2014,1999,2009,2027
2041,2029,2034,2035,2023,2005,2010,2022
2036,2046,2059,2032,2023,2022,2034,2029
2043,2069,2091,2043,2033,2033,2039,2043
2058,2083,2099,2034,2041,2036,2056,2038
2057,2083,2098,2031,2033,2037,2063,2042
2061,2077,2076,2026,2040,2049,2047,2035
2061,2060,2066,2030,2044,2057,2062,2033
2065,2050,2067,2041,2051,2061,2062,2033
2065,2062,2076,2056,2067,2079,2072,2038
2066,2068,2080,2060,2073,2088,2073,2044
2065,2058,2062,2045,2057,2073,2046,2049
2074,2053,2039,2029,2052,2078,2066,2060
2085,2056,2031,2038,2049,2100,2075,2049
2069,2048,2047,2043,2060,2114,2076,2029
2049,2056,2056,2057,2061,2093,2056,2017
2027,2057,2051,2059,2056,2058,2039,2044
2032,2050,2034,2059,2049,2029,2044,2077
2042,2042,2046,2070,2037,2030,2052,2074
2056,2060,2061,2088,2025,2058,2057,2087
2061,2062,2051,2079,2012,2063,2034,2096
2047,2049,2029,2055,1999,2066,2047,2100
2048,2042,2020,2044,1995,2067,2043,2106
2047,2041,2023,2041,1969,2060,2042,2091
2038,2042,2026,2051,1997,2069,2030,2082
2038,2058,2040,2077,2027,2078,2027,2095
2053,2074,2065,2105,2063,2045,2052,2105
2058,2070,2073,2125,2134,2034,2059,2097
2060,2070,2078,2132,2189,2042,2067,2104
2069,2072,2083,2126,2192,2023,2060,2088
2059,2063,2079,2109,2160,2021,2063,2076
2054,2068,2086,2092,2086,2006,2063,2062
2064,2071,2092,2073,2077,2002,2063,2060
2060,2076,2095,2063,2087,2020,2076,2055
2067,2080,2099,2048,2003,2033,2080,2052
2070,2082,2089,2024,1884,2023,2055,2039
2066,2067,2073,2009,1913,2023,2047,2039
2064,2068,2065,2031,2011,2021,2052,2041
2066,2074,2068,2042,2027,2030,2042,2028
2059,2065,2064,2039,2036,2024,2026,2005
2053,2060,2052,2036,2039,2023,2022,2004
2055,2061,2052,2010,2048,2044,2022,2016
2051,2051,2044,2008,2062,2060,2034,2021
2044,2056,2039,2010,2041,2039,2004,2022
2059,2065,2043,2014,2020,2047,2037,2031
2066,2072,2043,2015,1994,2037,2040,2044
2068,2060,2042,2026,2058,2010,2057,2056
2064,2060,2051,2063,2175,2025,2059,2068
2071,2065,2061,2076,2203,2040,2068,2076
2064,2062,2062,2082,2165,2050,2058,2074
2051,2054,2058,2078,2155,2049,2052,2069
2043,2043,2053,2074,2139,2045,2044,2076
2043,2043,2049,2072,2124,2059,2032,2100
2051,2051,2054,2054,2029,2058,2054,2116
2058,2056,2056,2005,1850,2054,2054,2118
2057,2054,2050,2001,1855,2064,2050,2113
2054,2045,2053,2028,1917,2096,2040,2124
2060,2066,2063,2056,1977,2128,2062,2121
2061,2060,2064,2081,2078,2150,2070,2117
2066,2053,2049,2073,2069,2124,2043,2097
2052,2047,2050,2070,2037,2104,2036,2086
2051,2045,2043,2071,2041,2039,2067,2075
2045,2040,2036,2072,2110,1994,2024,2058
2049,2039,2032,2075,2174,2007,2028,2053
2050,2041,2030,2062,2129,2022,2027,2045
2056,2043,2038,2060,2039,2004,2039,2046
2048,2049,2040,2053,1952,1999,2040,2040
2057,2047,2041,2063,1983,2010,2024,2042
2053,2052,2043,2067,2003,2026,2041,2035
2066,2068,2070,2100,2069,2061,2035,2035
2078,2070,2085,2109,2101,2077,2043,2026
2067,2050,2064,2092,2084,2075,2045,2023
2053,2043,2047,2080,2045,2084,2052,2021
2055,2049,2053,2071,2028,2106,2066,2024
2060,2050,2047,2052,1992,2084,2053,2018
2056,2053,2038,2049,1975,2070,2069,2019
2054,2048,2034,2045,1950,2033,2059,2030
2056,2053,2033,2056,1998,1993,2072,2044
2056,2063,2045,2068,2062,2001,2064,2062
2067,2066,2049,2077,2106,2027,2071,2071
2070,2069,2052,2083,2153,2055,2082,2078
2068,2065,2040,2073,2147,2074,2067,2083
2065,2052,2015,2053,2110,2070,2055,2088
2052,2041,2000,2036,2078,2045,2065,2095
2042,2035,2005,2022,2061,2023,2041,2091
2040,2036,1999,2004,2058,2014,2041,2109
2043,2040,2022,2024,2086,2035,2051,2106
2050,2053,2047,2057,2148,2048,2025,2111
2043,2045,2053,2055,2089,2017,2041,2115
2049,2054,2056,2043,1992,2001,2050,2126
2052,2064,2064,2052,1969,2005,2062,2122
2058,2056,2069,2052,1982,2012,2070,2115
2055,2051,2060,2056,2008,2015,2089,2105
2053,2047,2051,2053,2017,2012,2078,2096
2053,2041,2032,2055,2022,2009,2057,2084
2057,2044,2027,2059,2026,2012,2066,2086
2064,2056,2028,2060,2034,2010,2034,2075
2064,2048,2026,2057,2041,2011,2035,2068
2062,2046,2027,2054,2049,2013,2064,2054
2050,2042,2030,2035,2041,2019,2064,2057
2039,2031,2018,2009,2033,2034,2051,2046
2037,2038,2024,1996,2037,2062,2041,2045
2042,2046,2046,2002,2059,2086,2021,2036
2035,2056,2058,2018,2077,2080,2011,2029
2040,2052,2074,2027,2067,2068,2029,2033
2041,2053,2075,2027,2060,2070,2033,2037
2051,2059,2078,2020,2037,2061,2066,2036
2063,2064,2093,2023,2042,2064,2062,2043
2064,2072,2092,2036,2055,2058,2073,2042
2067,2074,2088,2038,2058,2064,2071,2049
2057,2068,2079,2041,2046,2048,2085,2056
2059,2069,2089,2054,2047,2049,2093,2073
2061,2073,2096,2069,2070,2052,2088,2066
2058,2068,2081,2068,2077,2053,2080,2071
2045,2054,2070,2062,2072,2053,2058,2081
2047,2057,2061,2076,2097,2067,2069,2097
2045,2061,2054,2076,2112,2074,2074,2108
2047,2057,2041,2070,2146,2069,2086,2112
2044,2058,2029,2056,2169,2072,2082,2114
2052,2051,2004,2045,2151,2053,2075,2109
2054,2040,1988,2035,2113,2035,2043,2105
2040,2015,1972,2033,2101,2037,2046,2109
2036,2024,1983,2029,2054,2050,2070,2120
2049,2047,1989,2027,2056,2066,2074,2122
2047,2046,2001,2029,2073,2074,2062,2122
2054,2048,2004,2006,1946,2070,2081,2115
2056,2043,2008,2018,1938,2072,2077,2108
2062,2031,2000,2044,1977,2073,2068,2087
2058,2028,1998,2058,1985,2070,2069,2064
2049,2024,1999,2068,2012,2057,2068,2050
2051,2031,2007,2072,2042,2039,2057,2048
2047,2020,2000,2059,2035,2043,2056,2044
2041,2016,2015,2065,2037,2058,2061,2037
2042,2014,2018,2066,1994,2048,2062,2037
2046,2020,2024,2071,1981,2036,2059,2036
2051,2028,2046,2087,1994,2014,2056,2047
2065,2050,2070,2114,2003,1977,2057,2050
2061,2054,2085,2108,1993,1969,2045,2037
2056,2059,2099,2098,2000,1996,2039,2028
2064,2079,2125,2126,2057,2033,2057,2037
2069,2084,2147,2119,2107,2044,2060,2032
2052,2068,2126,2094,2120,2047,2072,2036
2051,2064,2096,2059,2123,2052,2053,2038
2050,2059,2065,2025,2084,2042,2056,2051
2050,2067,2056,2001,2063,2037,2072,2064
2055,2076,2065,2004,2052,2036,2068,2064
2052,2088,2068,2021,2057,2056,2070,2077
2052,2087,2052,2044,2073,2064,2060,2096
2059,2084,2037,2051,2070,2072,2073,2104
2064,2076,2041,2057,2070,2068,2077,2118
2062,2074,2042,2047,2064,2059,2076,2122
2059,2062,2037,2039,2053,2046,2079,2124
2057,2052,2016,2032,2062,2045,2079,2133
2054,2034,1999,2026,2084,2048,2068,2121
2041,2022,1978,2036,2062,2047,2063,2122
2044,2034,2003,2067,2028,2053,2072,2125
2057,2044,2015,2078,2031,2057,2059,2114
2059,2055,2008,2105,2052,2063,2055,2114
2064,2052,1980,2131,2081,2071,2069,2108
2059,2045,1995,2161,2099,2075,2072,2106
2063,2051,2022,2182,2118,2071,2082,2092
2058,2055,2042,2180,2122,2064,2075,2076
2058,2042,2042,2158,2120,2045,2069,2057
2050,2039,2042,2148,2137,2052,2068,2056
2050,2033,2050,2124,2100,2052,2060,2041
2044,2033,2061,2089,1971,2058,2055,2024
2036,2039,2089,2060,1936,2072,2044,2020
2034,2054,2084,2046,2000,2080,2043,2024
2047,2067,2089,2043,2013,2090,2066,2031
2059,2091,2105,2045,2024,2089,2050,2049
2056,2094,2106,2030,2011,2028,2057,2054
2060,2098,2115,2000,1997,1971,2042,2036
2058,2085,2092,1959,1979,1971,2024,2032
2047,2072,2079,1943,2007,2003,2037,2039
2050,2068,2076,1947,2056,2036,2034,2048
2057,2076,2062,1961,2081,2067,2036,2061
2064,2072,2062,1986,2080,2067,2044,2065
2062,2066,2070,1992,2068,2062,2047,2069
2059,2062,2056,1995,2061,2068,2058,2074
2065,2070,2039,2013,2075,2070,2058,2088
2069,2066,2043,2038,2090,2068,2083,2090
2061,2061,2040,2056,2094,2065,2074,2097
2061,2060,2045,2070,2096,2061,2060,2107
2061,2056,2053,2073,2084,2063,2050,2109
2058,2058,2043,2076,2091,2062,2058,2113
2053,2054,2012,2071,2098,2066,2062,2119
2046,2034,1974,2052,2080,2051,2050,2113
2038,2031,1974,2024,2042,2038,2044,2112
2040,2029,1973,1988,1986,2024,2047,2115
2037,2016,1971,1969,1988,2023,2065,2118
2043,2011,1991,1961,1987,2026,2067,2091
2022,2019,2026,1960,1987,2021,2057,2083
2022,2033,2092,1986,2002,2032,2059,2078
2038,2059,2144,2004,2015,2037,2055,2081
2047,2063,2147,2017,2015,2033,2056,2089
2055,2068,2122,2025,2006,2023,2076,2086
2049,2076,2140,2038,2010,2022,2063,2079
2058,2099,2168,2065,2059,2034,2076,2077
2066,2102,2158,2065,2073,2049,2072,2065
2064,2085,2127,2053,2084,2051,2054,2047
2057,2076,2119,2076,2141,2058,2074,2050
2063,2086,2121,2114,2194,2059,2090,2055
2072,2089,2108,2115,2202,2060,2076,2051
2070,2063,2091,2096,2197,2053,2078,2051
2067,2065,2083,2084,2151,2054,2072,2051
2076,2079,2080,2068,2064,2061,2056,2052
2072,2069,2065,2033,1973,2047,2062,2044
2059,2058,2047,1997,1868,2044,2056,2034
2051,2043,2043,1989,1884,2049,2038,2011
2036,2040,2037,1983,1927,2065,2033,2001
2041,2045,2034,1984,1962,2074,2040,2032
2057,2046,2039,1992,2006,2051,2050,2044
2055,2043,2039,1998,2018,2025,2052,2063
2052,2049,2047,2017,2073,2042,2048,2083
2069,2062,2065,2053,2152,2053,2058,2098
2073,2066,2066,2063,2163,2048,2068,2102
2067,2068,2068,2071,2137,2058,2061,2101
2062,2059,2064,2073,2118,2062,2056,2099
2049,2049,2059,2067,2123,2072,2043,2097
2040,2043,2048,2064,2121,2068,2050,2098
2031,2030,2038,2058,2127,2066,2052,2101
2036,2038,2037,2070,2117,2055,2056,2107
2046,2051,2048,2075,2055,2034,2055,2103
2041,2051,2048,2065,1995,2036,2054,2112
2056,2048,2054,2075,1997,2032,2058,2108
2055,2051,2049,2065,2018,2031,2044,2098
2045,2045,2050,2059,2030,2028,2040,2082
2042,2054,2054,2064,2070,2054,2054,2081
2048,2052,2044,2065,2063,2051,2055,2078
2046,2036,2038,2056,2033,2048,2046,2064
2040,2038,2024,2065,2020,2048,2044,2064
2053,2038,2026,2074,2030,2045,2037,2063
2051,2041,2031,2078,2052,2047,2052,2049
2048,2035,2032,2083,2064,2050,2056,2033
2032,2034,2029,2089,2061,2049,2037,2019
2028,2032,2024,2077,2065,2044,2045,2015
2035,2027,2018,2042,2038,2035,2049,2016
2028,2012,2010,2003,2030,2034,2054,2028
2038,2009,2012,1989,2030,2035,2052,2028
2043,2018,2015,1993,2024,2042,2070,2032
2046,2035,2029,2010,2040,2049,2076,2032
2044,2047,2037,2035,2054,2050,2077,2037
2050,2035,2037,2038,2052,2048,2072,2045
2043,2030,2034,2047,2058,2054,2065,2056
2052,2033,2035,2053,2067,2054,2064,2073
2058,2045,2049,2059,2063,2060,2064,2078
2066,2047,2053,2059,2069,2058,2075,2082
2061,2054,2052,2056,2070,2058,2043,2093
2063,2064,2046,2065,2065,2059,2059,2096
2064,2065,2049,2068,2068,2056,2062,2108
2060,2059,2051,2063,2060,2051,2068,2116
2072,2056,2047,2060,2058,2048,2068,2116
2061,2059,2064,2077,2067,2055,2073,2122
2051,2063,2087,2088,2066,2052,2060,2118
2052,2057,2111,2096,2055,2044,2056,2120
2058,2059,2141,2112,2059,2053,2065,2120
2062,2067,2149,2112,2056,2052,2063,2112
2062,2064,2155,2118,2054,2054,2066,2103
2064,2066,2145,2117,2053,2048,2059,2098
2065,2054,2116,2113,2051,2044,2052,2086
2062,2055,2088,2114,2045,2044,2049,2073
2064,2062,2083,2112,2051,2055,2041,2057
2065,2052,2074,2113,2060,2058,2058,2055
2062,2059,2057,2123,2073,2060,2061,2056
2063,2050,2042,2143,2070,2065,2068,2047
2061,2050,2043,2157,2071,2062,2056,2040
2066,2050,2038,2152,2069,2058,2064,2038
2062,2054,2026,2144,2049,2057,2072,2032
2063,2043,2006,2133,2039,2065,2056,2020
2053,2028,1979,2101,2042,2059,2050,2008
2036,2009,1960,2074,2030,2047,2039,2010
2043,2007,1948,2074,2024,2052,2042,2023
2058,2024,1969,2091,2031,2063,2055,2029
2063,2028,1962,2096,2051,2060,2056,2036
2062,2028,1956,2114,2055,2059,2064,2040
2057,2024,1965,2121,2055,2058,2059,2033
2053,2025,1965,2116,2055,2052,2059,2037
2047,2011,1966,2097,2038,2041,2044,2037
2049,2022,1993,2082,2040,2036,2048,2044
2051,2027,2036,2081,2042,2034,2066,2047
2054,2049,2102,2096,2073,2034,2058,2069
2062,2069,2118,2106,2095,2034,2041,2088
2062,2080,2104,2098,2108,2035,2044,2107
2068,2072,2081,2094,2107,2054,2060,2116
2069,2065,2056,2085,2094,2062,2063,2123
2065,2062,2039,2093,2095,2073,2065,2123
2050,2054,2017,2082,2072,2068,2057,2103
2035,2037,2015,2073,2033,2061,2044,2110
2037,2043,2044,2076,2000,2051,2039,2112
2047,2063,2070,2077,1936,2029,2030,2104
2056,2065,2086,2072,1895,1998,2042,2107
2059,2068,2090,2110,1976,2004,2064,2109
2060,2070,2097,2134,2045,2032,2071,2105
2064,2080,2102,2123,2060,2052,2083,2093
2072,2092,2105,2117,2036,2056,2074,2091
2069,2094,2091,2088,2022,2050,2076,2078
2062,2074,2075,2060,2004,2029,2062,2072
2065,2062,2061,2070,1988,2017,2031,2060
2055,2054,2062,2085,2014,2030,2046,2056
2063,2057,2072,2117,2076,2061,2050,2052
2068,2058,2071,2139,2083,2069,2045,2043
2064,2053,2052,2126,2065,2073,2055,2047
2064,2050,2033,2120,2054,2075,2058,2030
2058,2036,2021,2123,2037,2060,2054,2029
2053,2038,2030,2131,2024,2051,2056,2029
2059,2053,2041,2137,2031,2054,2060,2031
2056,2060,2038,2133,2031,2053,2053,2031
2055,2053,2034,2135,2030,2052,2054,2039
2052,2052,2040,2139,2034,2046,2071,2044
2057,2057,2056,2133,2035,2055,2065,2046
2054,2057,2047,2114,2055,2064,2061,2054
2054,2048,2041,2105,2079,2049,2045,2057
2047,2040,2031,2110,2077,2043,2059,2056
2043,2041,2020,2117,2071,2043,2057,2071
2043,2036,2011,2110,2085,2052,2058,2074
2041,2029,2012,2100,2084,2054,2060,2084
2040,2025,2019,2088,2067,2052,2054,2092
2047,2044,2032,2085,2052,2057,2061,2107
2057,2044,2044,2083,2058,2070,2061,2108
2060,2039,2038,2085,2065,2081,2058,2115
2061,2038,2033,2078,2072,2093,2049,2116
2058,2038,2028,2064,2057,2092,2064,2116
2061,2047,2035,2042,2030,2074,2058,2117
2065,2050,2028,2029,2013,2041,2067,2112
2061,2040,2007,2024,2066,2031,2065,2108
2056,2036,1991,2017,2074,2045,2068,2100
2052,2021,1977,2020,2043,2054,2052,2081
2040,2018,1958,2025,2026,2055,2053,2068
2031,2013,1966,2032,2018,2057,2064,2059
2036,2017,1980,2047,2033,2053,2056,2052
2046,2019,1985,2061,2044,2045,2050,2049
2043,2007,1992,2062,2044,2025,2040,2046
2040,2011,1997,2077,2072,2037,2045,2044
2045,2020,2012,2100,2086,2046,2062,2042
2045,2026,2015,2095,2052,2036,2067,2033
2042,2033,2040,2099,2032,2033,2040,2036
2054,2052,2063,2103,2036,2030,2031,2024
2056,2056,2087,2118,2056,2035,2043,2025
2055,2049,2098,2130,2070,2040,2039,2029
2071,2065,2110,2135,2074,2054,2061,2031
2076,2073,2110,2146,2113,2063,2058,2041
2079,2072,2087,2143,2138,2072,2083,2035
2067,2052,2057,2144,2145,2066,2068,2038
2064,2049,2049,2142,2131,2057,2059,2049
2064,2049,2047,2127,2088,2044,2069,2065
2068,2060,2067,2117,2083,2042,2063,2075
2068,2069,2070,2105,2067,2048,2075,2077
2062,2068,2073,2101,2057,2047,2062,2085
2062,2067,2065,2092,1998,2025,2068,2090
2061,2063,2063,2074,1897,2027,2061,2093
2069,2065,2073,2096,1963,2057,2074,2114
2080,2073,2099,2108,2054,2081,2059,2130
2081,2087,2112,2123,2085,2078,2082,2136
2078,2083,2107,2121,2086,2065,2064,2126
2070,2077,2091,2098,2056,2025,2047,2121
2067,2078,2098,2099,2033,2013,2048,2128
2070,2078,2101,2099,2020,2010,2053,2116
2061,2077,2105,2098,1995,2017,2050,2111
2063,2077,2097,2098,1991,2029,2055,2101
2060,2069,2089,2097,2017,2045,2059,2090
2065,2063,2076,2098,2049,2046,2048,2082
2065,2062,2070,2096,2068,2037,2049,2077
2068,2061,2063,2101,2090,2043,2044,2065
2056,2057,2058,2098,2125,2051,2037,2063
2058,2057,2059,2100,2141,2052,2040,2056
2062,2062,2061,2104,2152,2046,2060,2058
2062,2068,2064,2113,2170,2059,2064,2051
2074,2064,2065,2123,2152,2077,2054,2043
2063,2059,2063,2103,2063,2062,2059,2043
2060,2056,2052,2085,2015,2034,2060,2031
2055,2041,2040,2079,2041,2045,2048,2029
2054,2042,2049,2082,2064,2080,2061,2029
2062,2057,2062,2083,2038,2105,2080,2035
2073,2067,2058,2069,1977,2098,2093,2039
2072,2068,2059,2062,1963,2086,2086,2042
2076,2062,2056,2076,1981,2086,2079,2036
2068,2056,2052,2075,2002,2070,2070,2035
2064,2058,2052,2083,2023,2015,2057,2043
2059,2058,2051,2088,2049,1989,2063,2056
2056,2055,2050,2097,2086,2016,2067,2069
2056,2064,2060,2103,2117,2014,2058,2085
2064,2063,2053,2100,2120,2014,2047,2090
2063,2054,2043,2094,2119,2025,2060,2098
2065,2054,2027,2089,2103,2043,2064,2101
2065,2046,2027,2100,2073,2057,2075,2114
2052,2044,2024,2107,2066,2068,2066,2114
2061,2048,2027,2109,2056,2066,2079,2106
2051,2042,2026,2102,2049,2069,2069,2113
2051,2037,2026,2114,2047,2063,2060,2114
2050,2051,2043,2155,2031,2064,2073,2110
2056,2050,2063,2170,2013,2065,2072,2108
2062,2050,2067,2171,2032,2065,2060,2100
2060,2047,2050,2157,2032,2057,2050,2090
2056,2040,2029,2129,2029,2034,2033,2078
2045,2027,2021,2110,2079,2003,2013,2062
2038,2020,2008,2112,2076,1979,2017,2046
2038,2018,2005,2111,2010,1960,2033,2042
2038,2033,2027,2109,1998,1981,2030,2037
2043,2046,2050,2126,2062,2009,2039,2041
2047,2044,2040,2122,2091,2023,2020,2037
2044,2032,2008,2097,2084,2025,2017,2037
2048,2024,1996,2084,2083,2050,2063,2040
2053,2017,1990,2062,2073,2062,2065,2032
2053,2017,1992,2013,2044,2043,2048,2024
2042,2005,1975,1964,2017,2038,2047,2021
2033,2008,1981,1942,2009,2044,2055,2026
2049,2023,1995,1940,2008,2038,2049,2028
2050,2028,2004,1945,1995,2042,2033,2032
2048,2032,2007,1952,1992,2027,2037,2037
2050,2034,2022,1977,2009,2033,2048,2043
2064,2060,2077,2027,2033,2042,2032,2056
2079,2101,2164,2073,2056,2056,2069,2076
2096,2126,2189,2083,2067,2064,2084,2081
2091,2123,2165,2068,2066,2066,2064,2086
2092,2105,2137,2067,2074,2070,2056,2091
2090,2092,2120,2058,2059,2077,2040,2098
2080,2072,2101,2054,2053,2092,2035,2103
2077,2066,2087,2045,2047,2084,2054,2108
2072,2066,2076,2034,2039,2083,2056,2113
2074,2064,2080,2038,2037,2081,2045,2113
2078,2063,2083,2048,2052,2027,2021,2125
2071,2059,2085,2063,2064,1996,2017,2122
2067,2059,2084,2067,2074,2022,2025,2108
2061,2056,2074,2061,2060,2024,2026,2098
2054,2059,2070,2060,2042,2015,2034,2105
2061,2061,2071,2060,2029,2024,2042,2104
2063,2070,2076,2064,2024,2034,2051,2106
2067,2066,2068,2063,2024,2041,2044,2098
2067,2059,2061,2067,2037,2053,2055,2086
2067,2053,2061,2080,2064,2068,2069,2081
2076,2050,2068,2093,2072,2067,2055,2081
2076,2041,2057,2080,2065,2056,2054,2068
2078,2037,2038,2065,2051,2052,2036,2076
2077,2037,2030,2058,2046,2046,2027,2072
2078,2035,2037,2074,2040,2056,2050,2052
2076,2043,2054,2087,2054,2074,2062,2038
2068,2044,2045,2085,2054,2081,2032,2023
2054,2027,2024,2080,2039,2060,2027,2022
2053,2019,2030,2095,2040,2052,2030,2026
2059,2038,2052,2115,2060,2053,2042,2028
2048,2040,2052,2115,2064,2059,2035,2016
2057,2034,2040,2108,2039,2060,2036,2018
2055,2041,2037,2094,2018,2046,2047,2022
2053,2042,2036,2082,2006,2040,2033,2026
2057,2054,2029,2080,2009,2056,2065,2032
2066,2068,2019,2077,2027,2036,2045,2055
2076,2068,2008,2076,2067,2019,2060,2062
2071,2064,1992,2063,2090,2036,2094,2075
2071,2058,1988,2057,2098,2062,2097,2079
2062,2049,1987,2047,2094,2078,2085,2078
2062,2049,1985,2020,2070,2065,2066,2090
2057,2041,1976,1985,2042,2054,2055,2099
2046,2034,1986,1973,2007,2023,2064,2105
2042,2029,2005,1976,1949,1997,2038,2106
2038,2023,2027,1993,1960,1983,2050,2116
2047,2037,2044,2008,1999,2010,2049,2121
2055,2048,2060,2024,1991,2027,2038,2114
2052,2055,2065,2043,1988,2034,2042,2114
2051,2050,2077,2059,1980,2042,2052,2110
2060,2061,2087,2079,2004,2057,2058,2107
2069,2068,2090,2101,2028,2068,2057,2106
2079,2072,2089,2087,2044,2054,2046,2095
2088,2067,2080,2080,2094,2054,2070,2087
2090,2068,2074,2084,2140,2071,2068,2084
2088,2064,2061,2084,2115,2076,2072,2084
2082,2054,2046,2074,2091,2069,2067,2075
2075,2048,2033,2063,2075,2061,2052,2061
2068,2050,2030,2061,2081,2057,2043,2046
2056,2054,2054,2070,2083,2061,2049,2043
2069,2068,2080,2082,2071,2053,2050,2040
2067,2068,2090,2081,2043,2032,2036,2032
2062,2060,2084,2080,2034,2029,2055,2034
2069,2062,2077,2073,2041,2042,2057,2040
2079,2065,2076,2058,2047,2050,2067,2041
2078,2057,2074,2044,2062,2051,2070,2045
2082,2064,2087,2054,2073,2044,2062,2054
2085,2070,2099,2059,2065,2038,2070,2042
2069,2070,2110,2068,2065,2051,2052,2048
2065,2066,2113,2076,2066,2069,2068,2054
2069,2070,2116,2078,2051,2080,2075,2060
2069,2068,2097,2059,2039,2076,2083,2069
2068,2065,2085,2052,2034,2075,2073,2077
2064,2061,2078,2044,2033,2044,2070,2096
2071,2062,2074,2039,2030,2013,2065,2112
2078,2058,2068,2038,2031,2018,2065,2119
2070,2056,2058,2036,2025,2040,2070,2114
2070,2054,2052,2035,2025,2038,2066,2124
2064,2044,2045,2046,2021,2026,2052,2118
2055,2037,2054,2074,2049,2033,2039,2126
2052,2045,2068,2103,2086,2059,2057,2117
2060,2044,2081,2109,2092,2054,2056,2112
2058,2044,2079,2108,2098,2045,2056,2106
2064,2040,2071,2103,2073,2032,2052,2100
2063,2043,2058,2090,2045,2034,2051,2090
2056,2042,2055,2105,2064,2061,2067,2088
2073,2056,2049,2121,2101,2071,2080,2083
2077,2054,2046,2117,2104,2055,2077,2076
2072,2048,2036,2098,2084,2044,2058,2063
2064,2041,2022,2097,2083,2044,2052,2050
2061,2042,2020,2078,2036,2018,2046,2037
2049,2038,2027,2056,1987,1999,2009,2029
2038,2037,2018,2046,1985,2003,2016,2019
2046,2053,2033,2038,1992,2013,2009,2016
2049,2050,2031,2012,1985,2006,2053,2014
2040,2040,2028,1986,1997,2010,2064,2027
2061,2047,2041,1983,2014,2028,2087,2045
2076,2068,2062,1995,2031,2044,2082,2047
2072,2063,2053,2009,2043,2049,2088,2047
2072,2062,2058,2029,2049,2045,2078,2040
2068,2061,2064,2044,2064,2043,2060,2045
2061,2062,2069,2055,2058,2045,2076,2049
2067,2064,2066,2058,2053,2042,2075,2058
2060,2058,2064,2053,2055,2034,2064,2064
2063,2061,2074,2049,2046,2040,2083,2080
2072,2068,2072,2055,2031,2051,2087,2084
2073,2057,2064,2050,2012,2069,2064,2081
2061,2051,2057,2045,2016,2085,2065,2093
2063,2057,2059,2052,2029,2083,2049,2107
2070,2066,2072,2073,2050,2069,2067,2110
2071,2071,2083,2086,2090,2038,2073,2122
2075,2072,2086,2105,2155,1994,2071,2133
2062,2060,2082,2120,2246,2010,2092,2129
2047,2053,2075,2138,2316,2065,2099,2137
2054,2057,2076,2143,2312,2080,2103,2131
2055,2059,2068,2132,2244,2078,2084,2124
2056,2054,2063,2093,2150,2066,2082,2120
2062,2058,2056,2075,2100,2058,2072,2103
2056,2053,2046,2056,2105,2038,2071,2095
2059,2054,2031,2039,2081,2009,2060,2086
2064,2053,2023,2035,2006,1991,2064,2076
2061,2043,2015,2012,1890,1991,2056,2070
2062,2049,2004,2010,1906,1999,2062,2057
2054,2046,1988,2004,1943,2008,2065,2050
2051,2037,1969,1978,1935,2006,2044,2048
2044,2025,1954,1982,1933,2014,2056,2045
2046,2024,1958,1981,1869,2011,2069,2042
2051,2030,1963,1982,1834,2005,2052,2036
2052,2023,1967,1988,1875,2011,2051,2026
2041,2019,1972,2008,1937,2023,2061,2027
2051,2034,1996,2024,2016,2050,2074,2032
2068,2042,2005,2035,2046,2053,2041,2031
2064,2036,2011,2037,2052,2061,2057,2026
2055,2032,2027,2052,2091,2067,2068,2035
2055,2048,2043,2090,2101,2076,2074,2038
2060,2046,2053,2126,2138,2092,2084,2046
2067,2051,2061,2150,2161,2082,2071,2068
2061,2049,2054,2153,2161,2042,2060,2078
2066,2052,2051,2128,2145,2036,2056,2088
2066,2061,2057,2102,2083,2025,2063,2098
2067,2067,2067,2086,2024,2045,2073,2092
2068,2067,2078,2085,2017,2074,2065,2099
2058,2066,2075,2088,2036,2085,2074,2107
2057,2057,2055,2075,2051,2074,2080,2112
2056,2054,2033,2063,2047,2051,2055,2116
2047,2043,2040,2053,2031,2021,2039,2105
2031,2036,2063,2047,2012,1994,2039,2102
2032,2045,2072,2032,2002,1987,2046,2092
2038,2045,2065,2004,2027,2008,2053,2093
2039,2040,2058,1981,2066,2033,2072,2089
2041,2051,2066,1994,2090,2029,2056,2092
2053,2060,2078,1983,2029,2011,2064,2099
2064,2077,2090,1986,1977,2005,2061,2089
2071,2086,2111,1999,1982,2005,2061,2081
2068,2077,2101,2000,1970,2008,2059,2060
2062,2065,2082,1997,1956,2018,2049,2056
2061,2059,2076,2012,1963,2030,2056,2049
2060,2060,2070,2017,2010,2037,2052,2044
2059,2055,2057,2025,2008,2046,2060,2033
2056,2055,2052,2024,2006,2048,2060,2027
2051,2056,2046,2019,1986,2047,2054,2023
2052,2059,2048,2018,1988,2043,2070,2024
2054,2059,2048,2024,2010,2038,2067,2014
2059,2051,2050,2027,2044,2034,2068,2020
2067,2061,2056,2025,2062,2027,2064,2033
2064,2059,2052,2029,2084,2028,2078,2033
2060,2062,2057,2043,2082,2036,2050,2035
2062,2067,2056,2041,2064,2036,2067,2043
2065,2069,2064,2050,2054,2030,2073,2042
2068,2075,2071,2055,2058,2033,2053,2042
2062,2071,2066,2053,2049,2039,2051,2053
2054,2065,2065,2058,2061,2055,2053,2059
2061,2054,2054,2058,2054,2062,2075,2059
2060,2059,2056,2056,2033,2055,2083,2071
2054,2060,2055,2049,2012,2047,2073,2079
2061,2062,2052,2036,2000,2036,2062,2079
2049,2058,2047,2032,2028,2037,2051,2081
2038,2051,2034,2026,2073,2038,2044,2090
2038,2047,2037,2049,2125,2046,2041,2103
2043,2044,2042,2060,2132,2060,2034,2099
2049,2045,2041,2056,2116,2066,2065,2111
2054,2052,2045,2053,2070,2071,2066,2098
2052,2049,2035,2040,2039,2058,2052,2092
2037,2042,2031,2033,2015,2047,2042,2082
2044,2043,2028,2038,2014,2035,2048,2075
2039,2042,2028,2032,2010,1999,2021,2061
2045,2037,2030,2034,1983,1960,2031,2063
2053,2044,2038,2038,1934,1969,2033,2056
2050,2044,2042,2028,1968,1997,2047,2043
2049,2052,2043,2039,2054,2032,2041,2038
2056,2045,2032,2048,2075,2050,2043,2034
2048,2035,2031,2046,2064,2053,2025,2028
2045,2030,2028,2058,2050,2052,2056,2016
2049,2043,2051,2068,2052,2052,2065,2018
2056,2062,2064,2073,2085,2062,2073,2016
2057,2053,2050,2065,2093,2071,2058,2008
2050,2038,2044,2054,2081,2085,2072,2009
2049,2053,2052,2063,2086,2118,2092,2018
2057,2061,2065,2068,2066,2130,2089,2014
2056,2064,2064,2065,2047,2113,2074,2012
2052,2062,2053,2056,2047,2088,2074,2020
2049,2053,2059,2055,2053,2046,2070,2035
2058,2061,2055,2068,2074,2023,2089,2050
2066,2062,2057,2064,2083,2002,2081,2059
2072,2058,2035,2048,2073,2028,2060,2056
2050,2044,2029,2037,2059,2046,2062,2056
2050,2041,2023,2027,2049,2057,2058,2064
2040,2035,2025,2014,2020,2035,2055,2069
2040,2037,2025,2008,2002,1979,2052,2083
2052,2038,2023,2013,2002,1974,2049,2087
2050,2035,2023,2015,2015,1998,2059,2094
2041,2032,2022,2033,2056,2024,2055,2092
2043,2026,2027,2034,2056,2025,2055,2090
2032,2026,2040,2043,2045,2029,2054,2097
2038,2040,2053,2049,2042,2031,2056,2098
2042,2044,2043,2052,2035,2034,2046,2099
2048,2041,2044,2046,2025,2032,2042,2090
2048,2042,2038,2040,2016,2032,2051,2082
2054,2040,2036,2034,2001,2039,2049,2071
2048,2042,2043,2046,1998,2044,2050,2058
2051,2057,2067,2057,2009,2044,2045,2054
2059,2072,2079,2058,2006,2048,2055,2051
2069,2067,2072,2054,1999,2043,2063,2038
2062,2058,2058,2051,1989,2034,2034,2034
2058,2049,2044,2043,1982,2034,2047,2026
2051,2044,2038,2037,1978,2033,2051,2022
2045,2042,2022,2015,1967,2023,2028,2019
2042,2040,2018,2009,1994,2038,2051,2017
2054,2051,2040,2027,2067,2063,2054,2015
2060,2042,2046,2039,2080,2069,2069,2019
2064,2050,2049,2061,2091,2082,2069,2026
2060,2068,2064,2087,2092,2076,2066,2032
2062,2066,2071,2088,2059,2060,2055,2033
2061,2067,2066,2071,2062,2071,2092,2031
2061,2065,2056,2064,2058,2066,2076,2029
2068,2055,2048,2063,2052,2068,2072,2031
2062,2050,2040,2054,2070,2076,2075,2050
2069,2054,2032,2056,2084,2073,2079,2051
2065,2047,2023,2052,2112,2065,2066,2056
2054,2045,2020,2050,2111,2035,2067,2060
2056,2044,2012,2035,2050,2002,2058,2072
2056,2037,2005,2029,2048,2004,2064,2093
2065,2040,2010,2037,2072,2020,2062,2104
2052,2042,2014,2038,2072,2034,2059,2102
2056,2035,2008,2032,2066,2037,2046,2106
2049,2033,2009,2024,2036,2031,2043,2106
2052,2029,2016,2018,2030,2036,2048,2096
2051,2035,2022,2027,2039,2049,2059,2100
2055,2044,2021,2038,2090,2051,2049,2093
2047,2030,2004,2044,2119,2053,2048,2094
2046,2030,2010,2052,2131,2065,2048,2080
2051,2036,2025,2066,2141,2070,2057,2071
2048,2052,2048,2080,2144,2077,2071,2063
2054,2070,2071,2087,2133,2068,2064,2058
2055,2070,2078,2079,2122,2057,2063,2054
2055,2066,2066,2062,2094,2051,2058,2047
2048,2044,2037,2053,2046,2041,2054,2034
2037,2034,2026,2032,1917,2014,2044,2026
2026,2030,2033,2023,1866,2009,2023,2012
2031,2046,2057,2049,1917,2028,2034,2012
2040,2054,2085,2073,1987,2040,2030,2017
2044,2060,2092,2081,2029,2046,2041,2012
2044,2042,2080,2078,2031,2043,2038,2009
2038,2032,2068,2059,2025,2047,2044,2012
2040,2035,2065,2052,2022,2054,2063,2016
2038,2047,2067,2042,2013,2047,2045,2017
2052,2056,2087,2053,2006,2046,2057,2020
2057,2071,2104,2057,2022,2049,2064,2024
2060,2073,2102,2069,2031,2058,2049,2020
2055,2062,2094,2061,2037,2054,2049,2033
2048,2053,2069,2036,2039,2038,2048,2031
2040,2035,2046,2010,2026,2019,2042,2041
2035,2025,2023,1992,2031,2011,2043,2054
2037,2030,2034,1999,2035,2021,2051,2064
2041,2047,2054,2009,2004,2045,2052,2086
2046,2063,2068,2027,2028,2070,2058,2093
2047,2066,2054,2030,2064,2094,2057,2106
2056,2060,2046,2028,2055,2094,2056,2104
2056,2061,2037,2032,2063,2105,2062,2098
2049,2047,2032,2029,2064,2099,2043,2103
2048,2050,2042,2049,2108,2080,2060,2118
2065,2073,2065,2070,2146,2080,2060,2122
2068,2075,2068,2058,2130,2061,2048,2103
2064,2064,2058,2031,2041,2019,2014,2097
2059,2059,2054,2018,1981,1999,2005,2081
2061,2060,2052,2020,1961,2002,2033,2073
2057,2060,2061,2022,1983,2010,2025,2058
2057,2056,2064,2025,2014,2025,2036,2062
2058,2056,2062,2035,2018,2038,2044,2052
2053,2055,2058,2037,2024,2042,2053,2047
2062,2058,2064,2039,2021,2041,2051,2037
2058,2060,2056,2036,2021,2033,2039,2032
2056,2058,2059,2035,2022,2031,2033,2029
2056,2058,2060,2037,2021,2027,2040,2025
2056,2060,2062,2041,2036,2033,2049,2028
2057,2055,2053,2041,2038,2029,2041,2018
2042,2041,2040,2035,2030,2036,2039,2002
2038,2042,2040,2034,2031,2052,2038,2010
2053,2051,2047,2037,2037,2060,2042,2011
2045,2046,2049,2040,2039,2063,2021,2008
2045,2052,2053,2037,2042,2063,2048,2011
2046,2051,2058,2049,2052,2048,2053,2030
2053,2059,2066,2058,2058,2023,2045,2044
2066,2063,2070,2059,2054,2023,2045,2050
2065,2068,2057,2052,2052,2035,2038,2058
2062,2068,2056,2035,2037,2050,2065,2064
2061,2059,2051,2031,2046,2069,2075,2072
2064,2067,2044,2030,2054,2075,2059,2079
2063,2059,2030,2037,2057,2076,2061,2089
2064,2061,2037,2049,2069,2065,2048,2093
2055,2053,2037,2049,2072,2067,2036,2090
2046,2047,2029,2051,2060,2073,2056,2096
2042,2042,2023,2045,2044,2059,2044,2085
2027,2022,2015,2025,2037,2053,2043,2083
2018,2013,2024,2025,2050,2036,2045,2089
2028,2029,2041,2039,2070,2035,2020,2092
2039,2043,2060,2044,2068,2028,2038,2091
2037,2055,2066,2043,2036,2036,2057,2083
2040,2054,2067,2045,2011,2042,2055,2075
2050,2056,2051,2043,2022,2048,2052,2067
2047,2050,2037,2039,2047,2056,2052,2054
2047,2048,2041,2042,2051,2064,2065,2053
2050,2052,2052,2045,2042,2055,2059,2046
2057,2054,2046,2041,2021,2043,2054,2038
2050,2049,2035,2029,2002,2020,2044,2015
2043,2038,2038,2020,1997,2013,2045,1998
2033,2037,2039,2035,2027,2032,2042,1999
2033,2041,2039,2044,2074,2059,2050,2000
2043,2041,2028,2036,2107,2076,2041,2007
2037,2035,2016,2034,2097,2062,2020,2005
2036,2030,2026,2030,2081,2049,2028,2012
2047,2041,2046,2041,2088,2043,2033,2015
2045,2047,2053,2045,2107,2039,2033,2013
2039,2035,2046,2030,2109,2044,2022,2012
2038,2031,2046,2034,2134,2066,2058,2017
2048,2045,2060,2044,2142,2059,2069,2022
2056,2058,2075,2034,2098,2039,2072,2028
2055,2060,2080,2033,2058,2031,2073,2034
2053,2064,2075,2032,2040,2050,2065,2040
2054,2059,2074,2030,2019,2069,2053,2041
2045,2048,2060,2009,1892,2070,2052,2051
2039,2052,2048,1989,1821,2056,2029,2060
2042,2042,2044,1987,1868,2052,2036,2068
2043,2051,2050,1997,1934,2013,2025,2087
2043,2058,2057,2000,1973,1962,2040,2102
2046,2055,2055,2006,2009,1965,2039,2110
2048,2049,2046,2003,2049,2016,2048,2114
2047,2049,2053,2011,2066,2056,2071,2121
2066,2071,2074,2020,2053,2080,2066,2115
2064,2072,2079,2022,2026,2082,2049,2111
2062,2065,2069,2009,1972,2059,2045,2098
2061,2055,2052,2002,1930,2037,2029,2089
2053,2051,2049,1992,1923,2030,2029,2085
2056,2056,2054,2000,1928,2028,2030,2077
2068,2059,2052,2003,1940,2024,2018,2063
2064,2053,2043,1992,1954,2013,2022,2047
2056,2053,2049,2020,2024,2033,2040,2039
2050,2059,2057,2061,2157,2067,2027,2027
2047,2053,2055,2073,2226,2067,1995,2016
2041,2056,2045,2061,2186,2039,2002,2017
2045,2053,2050,2040,2154,2048,2010,2014
2045,2045,2048,2044,2140,2066,2027,2004
2050,2048,2047,2041,2106,2077,2007,1998
2041,2040,2040,2016,2066,2085,2027,1997
2040,2036,2035,2009,2044,2111,2028,1994
2041,2050,2037,2006,2032,2120,2018,2005
2041,2046,2038,2012,2023,2107,2004,2009
2046,2055,2043,2021,2036,2042,1997,2017
2054,2062,2045,2039,2068,1985,2029,2032
2051,2058,2050,2048,2099,2003,2030,2040
2057,2058,2050,2059,2126,2040,2039,2039
2048,2054,2045,2056,2129,2066,2039,2040
2048,2049,2039,2050,2125,2083,2043,2044
2047,2048,2038,2042,2093,2072,2042,2049
2043,2047,2047,2052,2095,2094,2072,2062
2049,2049,2048,2062,2121,2096,2054,2073
2043,2047,2046,2066,2145,2076,2062,2080
2046,2044,2050,2069,2154,2066,2065,2083
2038,2043,2055,2073,2142,2063,2056,2089
2043,2037,2043,2062,2110,2044,2039,2090
2029,2031,2042,2055,2094,2040,2041,2092
2039,2037,2047,2046,2046,2038,2043,2095
2039,2036,2044,2004,1938,2027,2032,2086
2047,2036,2046,2000,1956,2028,2041,2087
2047,2043,2055,2017,2040,2044,2037,2078
2045,2042,2049,2028,2076,2052,2057,2067
2047,2041,2053,2030,2078,2058,2029,2063
2050,2041,2047,2014,2056,2050,2051,2049
2053,2036,2051,2009,2034,2044,2054,2046
2044,2037,2040,1997,2056,2027,2050,2039
2046,2037,2039,2013,2085,2024,2064,2029
2034,2042,2044,2021,2079,2030,2060,2018
2043,2040,2043,2023,2079,2034,2040,2022
2033,2031,2041,2037,2077,2036,2036,2008
2033,2029,2040,2047,2065,2039,2030,1998
2034,2035,2048,2043,1995,2037,2035,1998
2034,2028,2047,2041,1976,2038,2023,1999
2037,2027,2044,2050,2006,2045,2037,1998
2045,2037,2054,2063,2038,2056,2055,1997
2043,2041,2050,2063,2054,2051,2038,2006
2045,2036,2043,2060,2055,2041,2056,2015
2055,2057,2038,2056,2051,2028,2057,2014
2055,2076,2042,2057,2052,2022,2062,2018
2058,2073,2037,2034,2041,2032,2058,2028
2047,2055,2021,2018,2028,2028,2058,2029
2045,2046,2021,2000,2010,2031,2041,2037
2039,2039,2017,1986,1998,2025,2026,2042
2034,2033,2019,1978,2003,2033,2032,2053
2034,2040,2037,1987,2025,2038,2051,2063
2048,2054,2062,2005,2045,2046,2056,2075
2052,2061,2072,2010,2055,2060,2054,2086
2051,2064,2066,2026,2064,2066,2054,2088
2050,2053,2061,2031,2064,2061,2044,2080
2039,2039,2047,2025,2055,2051,2028,2077
2032,2020,2038,2018,2045,2048,2032,2083
2034,2032,2049,2016,2052,2043,2045,2086
2037,2032,2053,2021,2050,2035,2039,2086
2030,2038,2068,2015,1966,2028,2024,2081
2043,2039,2068,2010,1937,2034,2032,2075
2046,2037,2054,2019,1971,2040,2032,2074
2046,2040,2057,2026,1999,2050,2035,2060
2054,2042,2060,2033,2023,2058,2022,2052
2049,2053,2057,2035,2021,2057,2027,2037
2045,2054,2066,2035,2025,2057,2028,2025
2044,2050,2069,2037,2031,2064,2037,2017
2050,2057,2077,2035,2021,2056,2025,2013
2047,2055,2078,2027,2018,2042,2041,2008
2046,2051,2069,2027,2025,2061,2046,2009
2047,2044,2055,2024,2025,2074,2047,2008
2045,2039,2054,2015,2011,2056,2014,1999
2036,2027,2049,2010,1999,2049,2020,2002
2042,2035,2063,2026,2011,2046,2030,2010
2059,2058,2076,2037,2036,2029,2050,2012
2052,2054,2074,2032,2066,2047,2061,2013
2050,2047,2063,2036,2070,2063,2056,2008
2040,2041,2055,2030,2046,2063,2045,2005
2046,2042,2060,2031,2032,2062,2041,2020
2046,2044,2064,2034,2041,2064,2048,2026
2049,2057,2073,2038,2034,2055,2051,2039
2053,2062,2082,2043,2022,2050,2054,2052
2052,2062,2075,2039,2022,2046,2050,2059
2050,2058,2070,2037,2014,2050,2047,2069
2052,2052,2062,2044,2051,2050,2034,2075
2047,2049,2056,2040,2080,2050,2025,2077
2047,2047,2052,2041,2088,2047,2030,2087
2040,2041,2048,2042,2081,2045,2031,2086
2041,2040,2041,2042,2071,2035,2022,2082
2030,2030,2037,2042,2060,2027,2022,2086
2036,2029,2039,2039,2035,2019,2012,2080
2036,2030,2035,2023,2013,2004,2008,2078
2037,2034,2024,2013,2002,1999,2024,2068
2038,2032,2016,1994,1983,2002,2024,2065
2039,2036,2014,1984,1968,2018,2033,2051
2040,2033,2013,1987,1972,2021,2030,2046
2042,2032,2009,1983,1985,2041,2027,2036
2048,2036,2007,1995,1997,2058,2033,2028
2050,2040,2024,2002,2007,2089,2024,2015
2050,2041,2026,2001,1987,2103,2029,2007
2044,2039,2024,1994,1951,2102,2031,2001
2038,2040,2015,1983,1913,2097,2029,1994
2038,2028,2016,1973,1877,2078,2018,1995
2042,2031,2019,1973,1881,2031,2032,1999
2038,2027,2014,1986,1943,1971,2042,1994
2030,2016,2007,2010,2004,1941,2035,2007
2038,2029,2028,2038,2051,1981,2048,2013
2043,2046,2053,2069,2103,2024,2058,2016
2045,2057,2064,2073,2139,2060,2068,2024
2052,2055,2055,2070,2147,2091,2073,2027
2041,2045,2047,2063,2116,2082,2072,2021
2044,2043,2037,2049,2087,2069,2040,2025
2042,2036,2031,2038,2082,2065,2059,2033
2045,2038,2036,2041,2083,2049,2049,2037
2048,2049,2041,2048,2073,2039,2061,2039
2049,2060,2054,2043,2060,2025,2031,2040
2042,2060,2061,2045,2049,2010,2018,2057
2041,2051,2052,2041,2047,2007,2039,2069
2042,2046,2055,2035,2035,2013,2041,2075
2036,2042,2060,2036,2037,2016,2039,2084
2043,2041,2064,2034,2042,2023,2037,2083
2040,2052,2067,2032,2037,2024,2029,2084
2037,2034,2057,2043,2044,2028,2045,2085
2040,2039,2056,2050,2049,2043,2057,2095
2046,2043,2061,2057,2042,2049,2055,2089
2048,2048,2057,2061,2032,2067,2057,2085
2045,2046,2050,2061,2033,2091,2051,2070
2042,2047,2045,2064,2039,2126,2039,2062
2045,2041,2038,2068,2052,2121,2026,2045
2042,2043,2046,2068,2026,2089,2030,2038
2040,2041,2051,2063,1987,2069,2018,2034
2042,2040,2043,2055,1938,2058,2019,2016
2040,2039,2034,2040,1922,2028,2028,2016
2036,2037,2024,2020,1956,2032,2032,2014
2039,2033,2020,2021,1991,2043,2012,2014
2042,2048,2038,2032,2026,2023,2031,2010
2053,2052,2052,2032,2053,2009,2036,2022
2051,2055,2042,2019,2087,2038,2030,2018
2053,2041,2014,1996,2088,2055,2032,2006
2041,2034,2009,2008,2095,2068,2040,1999
2032,2029,2020,2021,2073,2080,2051,1999
2051,2045,2033,2014,2038,2071,2040,2001
2049,2047,2045,2003,2023,2067,2036,1994
2037,2043,2060,2008,2006,2072,2041,1999
2042,2051,2076,1995,2013,2062,2034,2008
2048,2052,2071,2007,2059,2070,2056,2025
2057,2053,2067,2039,2124,2094,2062,2040
2067,2067,2071,2051,2143,2120,2089,2049
2074,2068,2059,2052,2130,2122,2078,2056
2066,2068,2063,2050,2107,2119,2055,2072
2064,2057,2063,2044,2102,2106,2044,2076
2062,2055,2062,2037,2106,2085,2031,2082
2056,2054,2053,2031,2115,2071,2011,2082
2050,2044,2048,2044,2170,2079,2034,2088
2052,2051,2053,2051,2153,2061,2060,2088
2052,2047,2045,2026,2026,2016,2049,2079
2041,2042,2044,2017,1970,2008,2036,2080
2043,2050,2046,2029,1978,2024,2063,2088
2054,2054,2051,2031,1984,2037,2033,2084
2049,2053,2045,2032,2009,2050,2023,2071
2056,2045,2038,2024,2029,2044,2028,2064
2051,2043,2037,2024,2037,2039,2013,2057
2044,2046,2045,2020,2035,2033,2020,2052
2052,2043,2046,2017,2050,2033,2022,2039
2046,2046,2034,2014,2037,2026,2023,2029
2044,2046,2032,2004,2014,2011,2026,2024
2047,2039,2032,2007,2012,2019,2035,2019
2041,2038,2027,2012,2005,2033,2045,2012
2037,2037,2027,2020,2021,2041,2045,2008
2040,2039,2035,2023,2031,2041,2042,1996
2049,2046,2040,2025,2027,2042,2049,1998
2046,2043,2040,2028,2042,2040,2038,1983
2033,2025,2031,2016,2038,2036,2027,1982
2033,2014,2024,2021,2032,2036,2032,1986
2031,2026,2039,2028,2040,2049,2051,1992
2036,2046,2051,2031,2048,2056,2052,2000
2046,2049,2052,2038,2048,2057,2055,2011
2039,2045,2043,2029,2049,2062,2068,2006
2039,2043,2044,2034,2048,2062,2047,2016
2041,2045,2043,2031,2053,2060,2052,2027
2044,2048,2041,2030,2053,2068,2063,2041
2056,2047,2041,2036,2054,2067,2061,2055
2056,2054,2042,2036,2053,2065,2065,2069
2050,2062,2044,2034,2048,2060,2067,2074
2052,2064,2044,2031,2045,2059,2063,2080
2051,2058,2027,2020,2043,2046,2059,2086
2041,2053,2015,2023,2033,2042,2043,2080
2038,2046,2019,2024,2029,2049,2045,2070
2033,2050,2027,2033,2048,2047,2038,2067
2034,2042,2018,2026,2059,2056,2046,2082
2031,2035,2015,2025,2068,2096,2042,2091
2044,2058,2021,2030,2070,2127,2058,2084
2045,2057,2032,2038,2084,2129,2064,2079
2050,2059,2034,2041,2080,2127,2058,2075
2042,2064,2039,2058,2074,2111,2056,2070
2050,2064,2044,2066,2082,2076,2059,2071
2052,2066,2049,2075,2047,2052,2056,2053
2044,2062,2047,2060,1960,2067,2057,2043
2040,2058,2043,2048,1943,2073,2058,2032
2040,2054,2038,2039,1938,2105,2056,2020
2035,2046,2039,2025,1968,2112,2067,2020
2045,2046,2040,2012,1976,2086,2066,2016
2037,2043,2048,1992,1849,2032,2042,2012
2028,2052,2065,1970,1764,1985,2042,2014
2043,2072,2087,1982,1830,1950,2025,2016
2048,2068,2081,1994,1962,1942,2033,2002
2034,2051,2066,2004,2074,1956,2020,1993
2031,2039,2055,2019,2132,1981,2030,1990
2037,2046,2055,2047,2207,2009,2050,1996
2043,2052,2058,2055,2207,2021,2060,1997
2042,2055,2055,2032,2104,2037,2077,2008
2045,2057,2056,2028,2048,2064,2078,2019
2039,2054,2052,2031,2066,2065,2067,2016
2027,2044,2047,2028,2061,2059,2048,2015
2024,2036,2041,2018,2026,2040,2038,2012
2024,2042,2039,2016,2019,2041,2047,2023
2027,2041,2042,2022,2029,2043,2052,2037
2029,2040,2044,2020,2043,2051,2057,2054
2035,2038,2042,2024,2051,2055,2052,2065
2031,2037,2042,2018,2046,2055,2043,2070
2020,2031,2033,2016,2038,2048,2022,2069
2022,2029,2029,2017,2037,2052,2051,2077
2023,2012,2020,2003,2028,2040,2048,2064
2013,2005,2015,2010,2019,2036,2026,2065
2016,2019,2026,2011,2022,2043,2034,2072
2017,2023,2028,2014,2030,2045,2032,2065
2011,2032,2039,2016,2029,2056,2044,2078
2016,2040,2039,2019,2026,2057,2034,2072
2033,2044,2037,2028,2031,2054,2041,2068
2046,2052,2044,2035,2039,2055,2039,2066
2042,2048,2043,2033,2032,2059,2043,2045
2039,2039,2041,2030,2037,2066,2038,2035
2040,2042,2042,2034,2036,2070,2051,2032
2039,2050,2047,2030,2038,2082,2056,2028
2045,2047,2052,2038,2045,2084,2067,2025
2045,2056,2053,2033,2041,2078,2052,2013
2050,2058,2052,2030,2040,2048,2052,2006
2043,2052,2043,2038,2030,2016,2035,2003
2048,2053,2051,2037,2040,2015,2029,1999
2039,2047,2044,2035,2036,2028,2029,1996
2040,2043,2041,2038,2043,2038,2038,2001
2050,2058,2054,2044,2050,2062,2049,2010
2050,2065,2059,2038,2043,2065,2059,2008
2046,2061,2065,2041,2047,2048,2033,2007
2050,2062,2063,2045,2054,2032,2022,2014
2042,2062,2061,2043,2049,2029,2045,2024
2044,2061,2060,2048,2053,2035,2047,2040
2046,2059,2058,2042,2060,2037,2052,2035
2050,2060,2057,2052,2056,2034,2041,2044
2048,2053,2055,2052,2052,2034,2026,2044
2040,2050,2060,2051,2056,2042,2057,2058
2041,2051,2059,2053,2060,2046,2048,2066
2043,2048,2055,2045,2055,2054,2053,2081
2038,2043,2051,2040,2051,2058,2034,2088
2033,2047,2050,2039,2052,2062,2028,2090
2035,2052,2046,2033,2057,2061,2020,2101
2040,2036,2044,2037,2053,2061,2025,2095
2035,2047,2046,2036,2050,2060,1997,2094
2042,2056,2050,2044,2051,2044,1992,2093
2045,2055,2053,2043,2043,2021,1982,2095
2052,2052,2051,2041,2035,2012,2006,2082
2051,2044,2047,2043,2030,2016,1993,2083
2054,2050,2046,2041,2040,2020,2015,2071
2047,2042,2046,2033,2034,2023,2030,2062
2042,2044,2047,2034,2037,2039,2023,2046
2049,2044,2045,2035,2036,2030,2038,2032
2041,2043,2047,2028,2038,2046,2060,2022
2044,2038,2040,2024,2025,2044,2048,2020
2042,2041,2038,2023,2015,2022,2035,2017
2045,2041,2042,2028,2010,2012,2039,2010
2046,2046,2039,2025,2001,2021,2030,2001
2040,2044,2043,2024,2011,2020,2036,2001
2045,2048,2039,2029,2010,2020,2037,2002
2039,2041,2043,2026,2020,2037,2034,1996
2041,2045,2048,2032,2037,2075,2036,1995
2044,2050,2049,2030,2036,2074,2066,2000
2051,2054,2047,2034,2030,2033,2069,2000
2048,2056,2039,2031,2030,2029,2052,1998
2054,2055,2041,2030,2032,2060,2045,2005
2050,2062,2042,2032,2039,2083,2041,2013
2041,2058,2039,2034,2057,2080,2045,2031
2037,2052,2036,2034,2054,2058,2040,2038
2040,2053,2045,2034,2064,2055,2047,2045
2046,2055,2050,2037,2071,2057,2064,2054
2044,2054,2045,2033,2061,2054,2056,2073
2038,2050,2043,2034,2061,2053,2049,2083
2042,2043,2047,2035,2063,2057,2053,2086
2036,2042,2046,2027,2055,2058,2049,2084
2028,2034,2036,2016,2031,2083,2055,2079
2022,2023,2025,2004,1991,2090,2049,2073
2019,2013,2027,2000,1954,2083,2022,2073
2021,2033,2037,2000,1921,2064,2020,2071
2031,2037,2044,1991,1898,2023,2000,2071
2038,2048,2056,1995,1913,1971,2017,2070
2040,2052,2047,2009,1970,1980,2039,2071
2036,2051,2043,2010,2008,2027,2038,2066
2041,2051,2051,2027,2039,2071,2047,2053
2045,2051,2053,2033,2073,2076,2056,2059
2056,2064,2070,2064,2111,2071,2058,2065
2062,2062,2076,2074,2142,2067,2059,2052
2057,2062,2072,2070,2139,2064,2060,2041
2056,2054,2061,2059,2106,2065,2047,2024
2051,2047,2050,2048,2076,2080,2054,2016
2041,2043,2046,2045,2050,2091,2051,2005
2043,2035,2045,2034,2028,2090,2058,1996
2034,2035,2047,2030,1992,2084,2036,1982
2020,2016,2036,2005,1947,2083,2034,1965
2019,2012,2033,2004,1936,2077,2044,1978
2026,2028,2042,2013,1953,2038,2046,1986
2030,2030,2045,2029,1971,2009,2043,1984
2033,2035,2045,2022,1985,2001,2037,1994
2042,2039,2049,2031,2025,1993,2031,2014
2045,2048,2058,2039,2067,1989,2035,2021
2041,2055,2058,2056,2117,2020,2035,2030
2043,2053,2059,2055,2132,2075,2057,2043
2042,2045,2056,2049,2111,2087,2036,2036
2035,2040,2048,2050,2076,2078,2052,2052
2045,2045,2051,2044,2061,2073,2065,2055
2043,2052,2056,2043,2061,2082,2072,2080
2047,2052,2060,2040,2063,2076,2065,2086
2045,2052,2055,2038,2057,2068,2046,2078
2043,2050,2052,2040,2059,2068,2044,2080
2034,2046,2047,2038,2067,2062,2021,2063
2023,2026,2035,2032,2058,2053,1996,2073
2016,2023,2033,2026,2039,2040,1996,2072
2024,2032,2042,2014,2012,2019,1987,2057
2022,2027,2037,2012,1998,2024,1995,2051
2025,2029,2034,2010,1996,2001,1997,2040
2027,2044,2039,2018,2013,1978,1992,2048
2038,2052,2056,2040,2052,2000,2022,2058
2053,2063,2059,2051,2069,2021,1994,2052
2053,2064,2059,2051,2080,2024,2000,2036
2053,2063,2056,2045,2073,2014,1992,2016
2047,2062,2053,2043,2069,2012,2004,2014
2047,2057,2058,2046,2069,2013,2008,2002
2042,2052,2057,2047,2063,2045,2030,1997
2048,2056,2056,2041,2059,2070,2046,2002
2046,2061,2048,2049,2070,2082,2067,2000
2055,2059,2049,2047,2062,2069,2048,1996
2040,2049,2041,2036,2052,2050,2044,1994
2027,2036,2036,2024,2048,2026,2047,2000
2034,2047,2044,2029,2052,2041,2053,2014
2038,2049,2042,2030,2050,2047,2035,2028
2046,2054,2044,2034,2051,2051,2063,2032
2047,2059,2051,2040,2052,2049,2077,2031
2054,2059,2056,2049,2065,2058,2082,2030
2051,2055,2053,2051,2074,2063,2073,2039
2048,2055,2053,2049,2072,2059,2071,2039
2045,2046,2049,2051,2085,2062,2068,2040
