CH1,CH2,CH3,CH4,CH5,CH6,CH7,CH8
2045,2046,2055,2049,2072,2061,2070,2073
2045,2049,2045,2056,2060,2053,2046,2073
2042,2042,2045,2047,2046,2052,2047,2084
2042,2041,2040,2043,2044,2052,2051,2081
2040,2044,2037,2038,2029,2043,2042,2074
2031,2027,2028,2035,2014,2032,2027,2074
2031,2029,2039,2033,2010,2037,2030,2076
2027,2035,2042,2034,2010,2031,2025,2078
2026,2034,2045,2040,2018,2036,2021,2069
2029,2034,2044,2045,2032,2038,2048,2063
2036,2039,2054,2052,2049,2050,2033,2058
2037,2046,2049,2051,2052,2052,2035,2052
2037,2040,2047,2049,2052,2049,2037,2047
2036,2041,2047,2054,2046,2050,2034,2038
2032,2044,2041,2048,2045,2052,2038,2031
2029,2034,2043,2051,2049,2052,2039,2022
2037,2040,2047,2044,2053,2053,2022,2024
2031,2034,2056,2048,2044,2047,2039,2013
2035,2036,2062,2044,2044,2046,2023,2010
2036,2049,2074,2054,2048,2050,2031,2011
2035,2050,2077,2058,2050,2046,2036,2010
2033,2039,2061,2049,2045,2036,2054,2005
2044,2039,2062,2048,2042,2041,2050,2007
2052,2043,2063,2056,2048,2043,2053,2019
2047,2046,2061,2058,2051,2046,2049,2020
2045,2045,2056,2056,2050,2050,2037,2017
2035,2043,2051,2050,2045,2047,2052,2019
2025,2031,2046,2045,2040,2046,2062,2012
2013,2025,2042,2042,2040,2051,2054,2018
2023,2032,2046,2049,2049,2055,2050,2033
2029,2041,2045,2050,2061,2055,2058,2046
2034,2040,2041,2053,2055,2058,2049,2057
2040,2044,2044,2048,2052,2050,2040,2055
2031,2036,2038,2046,2051,2051,2070,2064
2023,2032,2040,2050,2053,2043,2070,2068
2020,2027,2060,2060,2051,2038,2074,2074
2024,2024,2076,2074,2057,2044,2062,2083
2030,2025,2078,2077,2053,2038,2067,2083
2026,2027,2078,2080,2052,2042,2071,2090
2036,2032,2086,2089,2053,2044,2084,2095
2033,2034,2085,2095,2042,2045,2069,2090
2036,2034,2077,2101,2042,2044,2061,2078
2031,2030,2064,2099,2038,2041,2062,2071
2032,2029,2065,2106,2036,2037,2064,2057
2033,2034,2058,2102,2042,2045,2068,2050
2037,2054,2063,2114,2052,2054,2063,2034
2034,2049,2057,2111,2055,2050,2052,2030
2032,2035,2044,2085,2042,2045,2042,2030
2036,2028,2026,2049,2021,2041,2044,2024
2030,2024,2015,2026,2028,2040,2051,2029
2031,2025,2020,2018,2025,2043,2074,2028
2048,2047,2019,2018,2042,2051,2077,2035
2053,2033,2017,2009,2034,2045,2052,2032
2060,2028,2011,1995,2027,2041,2064,2024
2053,2021,2028,1996,2021,2041,2055,2014
2054,2027,2028,1999,2028,2045,2054,2011
2049,2041,2027,2005,2036,2047,2054,2013
2049,2033,2014,2009,2035,2050,2074,2022
2042,2024,2011,2024,2033,2046,2072,2013
2042,2023,2007,2039,2038,2052,2072,2028
2036,2035,2018,2060,2050,2056,2079,2043
2039,2051,2031,2072,2050,2054,2070,2052
2045,2063,2033,2066,2056,2054,2053,2053
2046,2057,2041,2064,2054,2053,2076,2059
2051,2056,2053,2060,2063,2057,2079,2064
2053,2066,2057,2072,2077,2062,2068,2068
2051,2060,2062,2056,2066,2059,2075,2086
2045,2053,2057,2047,2050,2052,2070,2085
2041,2040,2049,2027,2041,2050,2070,2090
2032,2037,2052,2019,2034,2040,2053,2089
2033,2026,2055,2013,2014,2032,2051,2095
2028,2022,2066,2005,2002,2027,2051,2094
2036,2027,2071,2000,1989,2024,2050,2092
2040,2037,2085,2018,2001,2032,2066,2086
2045,2037,2097,2030,2044,2042,2056,2086
2046,2045,2087,2036,2084,2058,2059,2082
2049,2038,2076,2044,2094,2057,2074,2074
2042,2028,2060,2051,2078,2053,2057,2066
2040,2023,2039,2055,2064,2041,2054,2060
2029,2014,2030,2060,2056,2040,2058,2045
2030,2025,2032,2073,2064,2049,2049,2024
2027,2030,2038,2078,2066,2056,2062,2018
2028,2029,2037,2082,2072,2064,2061,2021
2019,2030,2026,2075,2069,2054,2070,2020
2022,2030,2015,2056,2074,2061,2069,2012
2029,2038,2010,2055,2071,2055,2053,2018
2030,2024,2003,2039,2068,2047,2050,2007
2022,2016,1992,2032,2055,2042,2045,2016
2036,2018,2005,2037,2068,2054,2066,2032
2039,2026,2026,2036,2052,2056,2065,2019
2047,2037,2049,2026,2011,2050,2061,2023
2039,2044,2055,2023,2027,2044,2066,2024
2043,2047,2049,2027,2031,2040,2053,2026
2044,2049,2043,2029,2020,2043,2055,2034
2046,2050,2060,2048,2025,2044,2062,2041
2052,2052,2071,2066,2046,2052,2061,2052
2049,2048,2067,2072,2053,2056,2059,2068
2042,2043,2056,2064,2058,2049,2057,2077
2044,2033,2050,2060,2046,2043,2058,2086
2041,2034,2049,2052,2007,2026,2066,2088
2044,2045,2065,2041,1995,2024,2063,2098
2051,2078,2113,2058,2027,2038,2078,2116
2064,2083,2123,2074,2042,2040,2058,2105
2050,2072,2117,2083,2027,2037,2064,2093
2048,2076,2117,2086,1984,2034,2054,2097
2043,2072,2113,2075,1954,2034,2073,2097
2044,2057,2108,2090,1981,2036,2063,2092
2052,2054,2105,2097,2018,2041,2042,2086
2053,2051,2111,2099,2046,2042,2031,2072
2051,2043,2103,2107,2057,2041,2040,2057
2050,2044,2097,2121,2085,2052,2042,2049
2056,2056,2090,2128,2116,2063,2039,2048
2059,2062,2087,2130,2104,2058,2067,2035
2053,2049,2069,2094,2062,2047,2057,2035
2042,2043,2054,2065,2019,2035,2052,2027
2036,2032,2037,2037,1997,2031,2052,2007
2021,2030,2024,2013,1998,2026,2048,2008
2036,2038,2017,1985,1994,2032,2058,2024
2043,2047,2024,1977,1993,2035,2058,2022
2041,2043,2014,1969,1983,2040,2052,2009
2033,2037,2024,1964,1976,2037,2052,2019
2041,2044,2030,1958,1965,2038,2065,2026
2041,2048,2029,1951,1969,2039,2058,2027
2041,2051,2042,1972,2036,2050,2060,2027
2047,2068,2062,2001,2118,2058,2067,2038
2052,2081,2069,2007,2172,2061,2067,2039
2056,2075,2075,2033,2151,2066,2052,2046
2053,2067,2075,2051,2120,2069,2061,2056
2058,2064,2077,2064,2146,2072,2070,2063
2056,2057,2071,2074,2169,2077,2073,2070
2053,2050,2056,2080,2194,2071,2068,2078
2045,2042,2052,2073,2178,2065,2054,2077
2041,2043,2058,2062,2160,2068,2056,2083
2049,2055,2072,2043,2110,2064,2046,2089
2044,2054,2068,2021,2040,2053,2069,2089
2042,2045,2057,2003,1992,2029,2026,2083
2039,2042,2050,2000,2011,2027,2037,2091
2037,2048,2058,2008,1978,2042,2041,2088
2040,2046,2054,2005,1924,2036,2032,2079
2032,2046,2041,2010,1963,2035,2022,2071
2031,2039,2046,2012,2005,2049,2025,2070
2034,2043,2052,2026,2033,2051,2042,2063
2036,2043,2052,2035,2046,2056,2050,2062
2045,2053,2065,2047,2047,2058,2054,2055
2056,2062,2072,2051,2048,2060,2056,2046
2052,2060,2077,2060,2036,2055,2065,2037
2057,2060,2078,2058,2032,2040,2043,2035
2052,2048,2068,2052,2058,2036,2043,2031
2050,2048,2066,2064,2089,2038,2048,2034
2053,2054,2067,2063,2114,2042,2049,2030
2051,2048,2061,2062,2096,2044,2022,2025
2043,2037,2049,2054,2069,2034,2047,2012
2035,2040,2041,2045,2069,2038,2049,2003
2037,2050,2052,2056,2070,2056,2063,2016
2047,2062,2058,2060,2073,2059,2047,2011
2052,2064,2057,2065,2058,2052,2048,2018
2049,2059,2053,2031,1954,2040,2057,2018
2044,2046,2040,2013,1916,2040,2064,2022
2046,2043,2045,2031,1984,2046,2080,2033
2045,2048,2052,2040,2012,2047,2077,2038
2052,2049,2054,2041,2014,2030,2066,2037
2049,2044,2045,2050,2034,2035,2055,2037
2042,2033,2038,2050,2063,2047,2052,2041
2036,2028,2038,2049,2065,2060,2054,2054
2037,2036,2038,2049,2051,2064,2073,2067
2037,2043,2044,2048,2028,2064,2061,2071
2041,2045,2046,2045,2046,2065,2054,2088
2043,2044,2051,2048,2066,2058,2054,2083
2045,2035,2051,2043,2057,2042,2044,2090
2047,2033,2047,2038,2060,2050,2044,2091
2047,2046,2057,2044,2044,2046,2057,2088
2046,2046,2064,2046,2027,2038,2058,2086
2048,2051,2064,2040,2010,2023,2066,2074
2047,2044,2044,2022,1995,2022,2045,2064
2043,2033,2034,2012,2003,2025,2051,2056
2036,2035,2031,2024,2032,2038,2049,2050
2035,2038,2039,2036,2038,2047,2059,2051
2036,2031,2027,2037,2026,2042,2067,2053
2051,2030,2018,2030,2019,2039,2070,2043
2049,2021,2007,2034,2010,2042,2062,2037
2053,2040,2022,2035,2018,2052,2056,2026
2046,2036,2027,2039,2018,2054,2059,2011
2041,2041,2029,2040,2018,2054,2056,2012
2052,2039,2038,2044,2024,2059,2039,2012
2049,2031,2030,2037,2059,2053,2052,2006
2038,2019,2016,2029,2060,2044,2059,2017
2033,2024,2032,2039,2072,2056,2054,2022
2044,2047,2039,2045,2062,2061,2064,2020
2046,2050,2036,2042,2050,2060,2066,2015
2048,2049,2032,2041,2056,2055,2060,2026
2050,2041,2022,2035,2047,2048,2065,2030
2042,2037,2014,2021,2045,2043,2044,2035
2036,2027,2001,2017,2040,2040,2045,2036
2034,2028,2009,2019,2042,2044,2043,2039
2034,2031,2023,2023,2057,2053,2053,2056
2036,2040,2040,2035,2074,2065,2062,2059
2044,2049,2049,2043,2084,2077,2065,2059
2044,2045,2055,2044,2109,2079,2059,2067
2050,2051,2081,2063,2140,2090,2068,2077
2050,2062,2098,2084,2154,2102,2069,2086
2050,2069,2110,2094,2148,2088,2071,2094
2059,2056,2096,2085,2126,2046,2057,2103
2058,2042,2077,2061,2083,2032,2050,2106
2057,2035,2078,2028,2012,2036,2056,2093
2053,2040,2075,2025,2021,2038,2047,2072
2042,2045,2077,2031,2036,2037,2038,2065
2042,2050,2078,2031,2028,2031,2052,2066
2051,2052,2089,2035,2046,2035,2059,2062
2047,2058,2081,2049,2044,2044,2051,2060
2052,2052,2075,2048,2035,2049,2057,2048
2055,2053,2066,2053,2034,2050,2062,2044
2053,2063,2063,2057,2042,2056,2059,2036
2043,2050,2053,2049,2045,2053,2039,2028
2035,2049,2053,2043,2049,2062,2047,2026
2036,2042,2055,2050,2063,2062,2034,2027
2038,2046,2054,2050,2083,2066,2044,2019
2048,2046,2055,2028,2083,2070,2019,2016
2053,2047,2057,2007,2072,2063,2014,2002
2042,2039,2057,2001,2042,2050,2036,2002
2038,2033,2052,1998,2028,2040,2046,2003
2036,2037,2050,2005,2012,2029,2041,2006
2033,2034,2046,2017,2018,2031,2062,2016
2036,2040,2058,2036,2030,2040,2046,2023
2042,2044,2057,2040,2032,2035,2026,2029
2042,2039,2060,2040,2029,2038,2032,2030
2045,2045,2058,2040,2049,2046,2057,2040
2046,2046,2052,2038,2052,2048,2067,2043
2049,2040,2056,2039,2056,2047,2069,2063
2045,2044,2060,2050,2066,2053,2063,2051
2027,2051,2066,2054,2063,2053,2062,2054
2037,2055,2062,2049,2071,2059,2071,2072
2046,2060,2066,2056,2066,2057,2049,2078
2047,2056,2060,2065,2062,2051,2062,2084
2048,2050,2055,2068,2059,2047,2059,2083
2049,2054,2059,2070,2057,2043,2038,2085
2035,2049,2050,2064,2058,2043,2047,2080
2039,2049,2054,2072,2060,2048,2035,2086
2035,2050,2058,2073,2054,2049,2035,2081
2039,2051,2054,2065,2050,2051,2031,2082
2033,2049,2050,2060,2051,2052,2034,2074
2045,2046,2053,2057,2048,2049,2044,2065
2040,2046,2048,2053,2045,2050,2052,2062
2048,2049,2056,2048,2042,2049,2033,2054
2043,2048,2059,2058,2045,2050,2054,2048
2040,2050,2061,2052,2049,2047,2064,2039
2040,2045,2051,2043,2045,2049,2063,2028
2047,2044,2052,2043,2045,2046,2056,2025
2040,2038,2046,2049,2045,2048,2051,2016
2034,2040,2049,2047,2041,2046,2045,2013
2039,2039,2041,2053,2048,2045,2041,2015
2041,2037,2036,2070,2052,2044,2034,2000
2033,2030,2030,2075,2039,2036,2035,1994
2034,2021,2030,2078,2038,2035,2010,1995
2042,2024,2032,2091,2048,2036,2029,2005
2040,2023,2048,2089,2055,2042,2027,2001
2034,2033,2054,2087,2062,2046,2042,2003
2033,2035,2068,2095,2062,2047,2034,2010
2027,2027,2053,2091,2056,2042,2025,2013
2015,2018,2029,2069,2044,2041,2025,2017
2016,2012,2004,2045,2052,2042,2029,2018
2023,2013,1996,2032,2059,2050,2035,2042
2029,2026,2005,2037,2056,2053,2049,2045
2033,2034,2013,2033,2052,2050,2040,2053
2026,2025,2010,2033,2046,2042,2051,2070
2024,2020,1998,2013,2036,2045,2038,2073
2018,2018,1992,1992,2032,2038,2043,2067
2020,2031,2002,1982,2015,2039,2050,2068
2034,2050,2025,1968,2015,2043,2034,2087
2040,2047,2031,1939,1998,2031,2047,2091
2042,2043,2032,1928,1962,2027,2044,2102
2051,2050,2047,1939,1983,2031,2037,2103
2057,2051,2050,1955,2030,2030,2035,2087
2051,2057,2065,1968,2051,2029,2038,2087
2052,2067,2081,1981,2054,2029,2033,2085
2057,2078,2097,1991,2029,2016,2031,2070
2050,2076,2106,2000,2053,2016,2035,2056
2053,2075,2097,2027,2119,2052,2039,2050
2048,2078,2083,2035,2208,2077,2068,2046
2051,2074,2077,2047,2243,2078,2052,2032
2050,2066,2080,2039,2180,2059,2043,2021
2050,2059,2079,2030,2047,2041,2037,2022
2049,2059,2078,2034,2060,2046,2038,2020
2043,2060,2066,2046,2077,2049,2043,2009
2044,2062,2070,2050,2064,2051,2045,2015
2045,2062,2073,2047,2001,2039,2024,2008
2048,2061,2075,2030,1924,2025,2018,2013
2053,2064,2073,2038,1946,2026,2024,2012
2055,2063,2079,2047,2009,2035,2016,2021
2057,2062,2071,2053,2042,2037,2045,2028
2054,2061,2065,2051,2006,2032,2047,2034
2049,2065,2056,2054,1962,2041,2053,2032
2046,2062,2055,2065,1998,2048,2058,2037
2038,2062,2053,2076,2031,2052,2056,2032
2035,2058,2050,2075,2033,2055,2052,2040
2034,2065,2047,2080,2026,2053,2065,2050
2036,2057,2032,2068,1998,2036,2049,2056
2038,2052,2018,2058,2046,2043,2040,2064
2035,2040,2012,2064,2055,2055,2059,2069
2040,2040,2011,2071,2066,2066,2049,2075
2036,2039,2007,2064,2086,2069,2044,2080
2038,2029,1993,2052,2084,2061,2048,2080
2021,2013,1969,2029,2064,2052,2028,2070
2014,2013,1965,2021,2039,2044,2020,2081
2026,2023,1988,2031,2037,2038,2024,2073
2037,2044,2022,2055,2067,2052,2038,2075
2050,2054,2044,2064,2087,2066,2046,2074
2054,2046,2041,2055,2052,2060,2049,2071
2050,2032,2029,2033,2012,2041,2046,2051
2038,2031,2030,2018,2006,2039,2047,2051
2041,2042,2056,2037,2009,2034,2054,2053
2040,2048,2077,2053,2019,2043,2054,2044
2059,2072,2104,2068,2045,2056,2052,2037
2069,2082,2106,2069,2045,2057,2059,2025
2058,2074,2082,2051,2020,2045,2035,2012
2060,2063,2069,2036,2006,2027,2009,2019
2045,2054,2073,2028,2013,2004,2010,2013
2039,2051,2075,2030,2052,2000,2027,2002
2031,2048,2069,2045,2064,2017,2025,1996
2031,2054,2071,2056,2071,2040,2032,2010
2030,2061,2078,2048,2076,2048,2042,2017
2035,2060,2066,2044,2080,2045,2048,2016
2033,2064,2078,2064,2101,2054,2048,2024
2050,2087,2090,2073,2102,2052,2045,2021
2036,2065,2072,2071,2069,2028,2030,2015
2024,2039,2050,2046,2038,2024,2019,2017
2025,2032,2053,2033,1988,2009,2025,2013
2031,2043,2064,2031,1962,2014,2026,2028
2032,2059,2072,2010,1952,2014,2022,2033
2030,2055,2071,2009,1989,2028,2047,2061
2033,2065,2072,2045,2050,2055,2029,2081
2043,2069,2073,2062,2094,2064,2049,2085
2053,2069,2067,2063,2109,2078,2030,2089
2051,2066,2068,2057,2092,2084,2038,2094
2050,2065,2058,2052,2074,2074,2033,2091
2039,2052,2059,2059,2078,2069,2021,2086
2046,2070,2074,2062,2075,2065,2046,2090
2049,2064,2068,2050,2047,2057,2029,2084
2048,2066,2060,2041,2034,2050,2033,2077
2047,2067,2058,2039,2023,2052,2037,2067
2047,2065,2053,2030,2006,2041,2044,2070
2049,2068,2060,2035,1997,2038,2047,2062
2049,2074,2058,2037,1984,2036,2027,2055
2055,2068,2057,2046,1985,2036,2028,2044
2056,2059,2052,2045,1998,2038,2052,2040
2046,2049,2044,2043,2004,2027,2045,2035
2040,2043,2036,2036,1999,2015,2031,2031
2033,2048,2037,2035,2008,2010,2033,2024
2039,2051,2041,2039,2021,2014,2036,2016
2041,2054,2039,2041,2045,2038,2031,2007
2042,2058,2047,2057,2072,2067,2021,2010
2045,2058,2042,2064,2095,2086,2020,2017
2050,2052,2042,2068,2115,2095,2047,2027
2060,2054,2046,2072,2124,2103,2063,2026
2052,2056,2042,2080,2120,2076,2061,2023
2047,2050,2053,2078,2096,2053,2059,2017
2046,2052,2052,2076,2056,2038,2041,2022
2043,2050,2053,2069,2027,2025,2030,2028
2036,2057,2050,2068,2042,2033,2051,2022
2040,2054,2052,2071,2045,2032,2040,2029
2034,2058,2041,2069,2047,2037,2048,2044
2043,2068,2039,2072,2041,2041,2051,2064
2054,2064,2039,2064,2043,2038,2057,2074
2054,2062,2036,2065,2050,2040,2048,2073
2048,2052,2024,2065,2028,2028,2059,2069
2039,2047,2021,2060,2033,2030,2033,2064
2036,2040,2021,2058,2030,2026,2049,2075
2039,2034,2018,2052,2024,2030,2053,2074
2035,2035,2021,2052,2029,2037,2019,2071
2034,2049,2046,2058,2040,2042,2026,2074
2043,2065,2058,2062,2058,2047,2045,2087
2056,2074,2058,2064,2082,2049,2062,2080
2050,2068,2061,2067,2089,2052,2054,2065
2048,2063,2058,2079,2088,2049,2046,2053
2038,2058,2052,2080,2082,2043,2035,2049
2041,2048,2056,2075,2057,2040,2043,2040
2051,2052,2060,2069,2055,2043,2045,2043
2054,2055,2067,2088,2077,2060,2051,2044
2062,2062,2069,2092,2082,2062,2047,2039
2064,2063,2066,2091,2061,2054,2043,2039
2057,2069,2057,2071,2043,2032,2061,2030
2051,2058,2037,2056,2042,2035,2044,2014
2042,2051,2038,2052,2042,2042,2049,2008
2045,2064,2034,2042,2041,2039,2040,2004
2043,2046,2018,2035,2042,2035,2034,2006
2050,2039,2016,2038,2042,2041,2044,2013
2058,2050,2015,2033,2052,2044,2040,2015
2050,2055,2019,2042,2055,2046,2054,2024
2049,2051,2027,2048,2057,2046,2062,2016
2042,2048,2033,2045,2054,2049,2049,2017
2042,2047,2034,2046,2051,2054,2057,2026
2043,2042,2029,2048,2050,2041,2053,2031
2041,2045,2037,2053,2050,2055,2047,2039
2044,2054,2035,2055,2061,2047,2058,2049
2041,2045,2026,2043,2047,2044,2063,2061
2053,2039,2027,2043,2041,2047,2062,2068
2043,2037,2032,2051,2032,2036,2033,2080
2043,2032,2035,2060,2028,2039,2024,2078
2050,2032,2031,2058,2026,2033,2046,2087
2052,2032,2025,2060,2024,2034,2035,2090
2044,2031,2031,2062,2026,2037,2040,2093
2067,2054,2030,2074,2029,2043,2048,2094
2068,2063,2023,2075,2070,2055,2057,2085
2066,2056,2012,2077,2093,2058,2060,2098
2064,2044,1997,2083,2101,2054,2052,2089
2041,2033,1980,2083,2105,2049,2042,2068
2045,2036,1988,2086,2106,2051,2039,2065
2055,2043,1999,2086,2091,2050,2060,2057
2062,2051,2010,2071,2085,2044,2026,2038
2060,2061,2019,2055,2057,2040,2032,2029
2065,2061,2021,2038,2030,2032,2029,2024
2058,2052,2010,2025,1941,2026,2034,2020
2048,2047,2012,2012,1968,2034,2025,2016
2040,2052,2023,2017,1998,2043,2029,2016
2044,2066,2041,2026,2002,2046,2031,2021
2049,2070,2055,2025,1996,2044,2040,2015
2050,2058,2048,2021,1988,2033,2042,2006
2040,2054,2050,2011,1975,2046,2035,2003
2044,2058,2060,2023,1965,2059,2043,2009
2051,2064,2067,2015,1951,2054,2034,2012
2048,2061,2039,2026,2006,2057,2031,2008
2044,2046,2029,2039,2054,2047,2046,2023
2036,2038,2037,2051,2053,2037,2043,2034
2041,2057,2063,2075,2057,2049,2058,2040
2055,2065,2059,2073,2040,2055,2068,2051
2058,2056,2036,2078,2043,2060,2053,2056
2049,2044,2026,2075,2067,2060,2056,2069
2050,2037,2021,2045,2051,2047,2049,2069
2045,2039,2031,2007,1928,2014,2035,2062
2040,2042,2052,2003,1987,2041,2045,2062
2046,2058,2080,2048,2102,2064,2041,2080
2047,2059,2074,2063,2110,2066,2044,2086
2045,2042,2049,2044,2097,2044,2037,2079
2038,2039,2033,2053,2095,2050,2062,2085
2042,2054,2044,2060,2086,2053,2051,2091
2048,2052,2065,2066,2090,2056,2052,2079
2057,2062,2073,2061,2088,2050,2047,2077
2053,2064,2083,2057,2087,2049,2046,2068
2052,2058,2072,2051,2078,2047,2043,2064
2057,2065,2079,2049,2016,2046,2046,2048
2060,2070,2090,2044,1959,2044,2053,2043
2057,2072,2104,2056,1988,2047,2057,2046
2057,2065,2099,2071,1998,2053,2049,2039
2061,2063,2090,2070,2005,2049,2055,2035
2049,2053,2063,2062,2009,2049,2054,2031
2049,2051,2051,2054,2026,2054,2050,2025
2046,2053,2051,2049,2042,2061,2058,2019
2043,2052,2050,2066,2082,2070,2054,2022
2044,2054,2062,2079,2082,2063,2038,2013
2047,2041,2061,2074,2098,2058,2027,2009
2048,2045,2069,2077,2089,2076,2050,2014
2051,2050,2072,2083,2072,2094,2053,2015
2051,2056,2073,2082,2057,2087,2052,2023
2049,2059,2072,2087,2055,2084,2054,2030
2049,2053,2061,2083,2077,2078,2040,2036
2048,2049,2054,2080,2069,2057,2043,2036
2041,2045,2043,2070,2026,2023,2058,2039
2048,2047,2044,2056,1963,2005,2053,2040
2050,2043,2048,2063,2006,2018,2051,2048
2042,2041,2053,2086,2108,2044,2051,2050
2042,2049,2058,2096,2138,2056,2052,2066
2051,2045,2045,2083,2124,2050,2056,2072
2040,2039,2027,2072,2096,2033,2031,2083
2040,2033,2013,2061,2077,2023,2032,2088
2041,2035,2009,2038,2057,2031,2046,2088
2044,2044,2029,2028,2041,2036,2053,2087
2049,2055,2060,2042,2053,2051,2050,2089
2054,2072,2072,2031,2048,2052,2032,2088
2052,2070,2057,2025,2045,2049,2038,2080
2051,2056,2048,2027,2043,2047,2058,2076
2048,2049,2037,2037,2048,2044,2042,2072
2054,2045,2036,2034,2026,2043,2019,2066
2051,2045,2030,2026,2008,2038,2048,2055
2049,2033,2018,2008,1996,2034,2034,2047
2040,2034,2018,2017,2007,2038,2031,2041
2048,2042,2020,2022,2020,2038,2054,2036
2057,2052,2024,2030,2019,2037,2053,2036
2055,2057,2030,2029,2011,2044,2040,2028
2046,2056,2038,2030,2012,2033,2010,2011
2035,2052,2058,2029,2009,2033,2045,2006
2037,2054,2076,2029,2017,2026,2024,2014
2048,2065,2089,2033,2028,2026,2045,2010
2045,2070,2087,2040,2069,2046,2062,2011
2055,2064,2085,2049,2085,2057,2048,2009
2049,2055,2076,2039,2083,2051,2054,2016
2052,2053,2073,2040,2071,2052,2042,2024
2057,2055,2069,2034,2066,2051,2055,2029
2053,2049,2065,2027,2053,2047,2029,2024
2053,2052,2054,2031,2042,2035,2049,2030
2047,2045,2048,2026,2034,2033,2053,2038
2051,2040,2048,2032,2060,2044,2063,2044
2051,2049,2049,2042,2078,2047,2053,2050
2043,2035,2032,2033,2063,2038,2050,2052
2040,2031,2028,2037,2022,2049,2058,2064
2050,2060,2054,2055,2030,2056,2059,2075
2064,2075,2064,2059,2052,2060,2053,2088
2067,2066,2068,2058,2052,2053,2061,2085
2056,2057,2060,2055,2042,2042,2028,2077
2042,2039,2054,2054,2059,2056,2043,2070
2025,2040,2066,2070,2082,2072,2049,2072
2030,2037,2068,2070,2092,2079,2021,2076
2024,2043,2068,2074,2086,2075,2045,2071
2036,2050,2071,2080,2080,2077,2043,2070
2043,2049,2072,2078,2075,2073,2070,2059
2064,2056,2076,2074,2071,2068,2066,2064
2066,2063,2077,2076,2064,2038,2058,2052
2056,2053,2069,2065,2031,2006,2046,2033
2049,2060,2066,2063,1994,1989,2036,2031
2049,2056,2056,2064,1995,2010,2040,2027
2050,2057,2054,2064,2000,2026,2051,2027
2050,2056,2039,2037,2009,2026,2059,2022
2049,2051,2024,2025,2026,2032,2054,2020
2038,2041,2018,2020,2047,2036,2055,2018
2052,2050,2039,2024,2053,2040,2054,2023
2060,2062,2048,2032,2056,2046,2053,2026
2071,2064,2047,2033,2057,2064,2081,2024
2073,2067,2040,2033,2048,2073,2073,2018
2072,2062,2040,2039,2052,2072,2038,2013
2048,2042,2033,2038,2054,2065,2050,2008
2048,2042,2038,2049,2054,2062,2048,2012
2049,2055,2038,2056,2070,2046,2053,2033
2045,2054,2043,2077,2081,2028,2056,2047
2037,2059,2049,2083,2101,2040,2062,2052
2046,2060,2041,2076,2096,2053,2072,2050
2043,2058,2038,2075,2084,2060,2063,2054
2037,2049,2032,2064,2085,2055,2073,2064
2036,2052,2022,2049,2067,2049,2046,2074
2040,2039,2003,2034,2028,2030,2019,2077
2038,2028,1982,2019,2000,2024,2044,2082
2033,2017,1969,1999,1964,2016,2032,2077
2040,2012,1980,2008,1973,2021,2050,2075
2041,2035,2007,2028,1994,2042,2060,2078
2042,2050,2023,2035,2008,2047,2068,2077
2047,2056,2035,2032,2006,2040,2069,2075
2043,2054,2031,2018,2000,2033,2052,2064
2041,2046,2029,2004,1996,2028,2048,2063
2042,2043,2024,1991,1997,2028,2049,2061
2040,2044,2017,2000,2007,2031,2045,2057
2055,2050,2030,2014,2021,2043,2066,2055
2060,2044,2022,2019,2027,2048,2073,2055
2056,2040,2020,2016,2016,2043,2060,2052
2056,2033,2023,2008,2025,2037,2057,2042
2055,2042,2042,2017,2053,2042,2059,2041
2060,2061,2064,2034,2101,2044,2059,2027
2052,2068,2075,2061,2118,2050,2061,2017
2052,2066,2079,2067,2117,2058,2053,1999
2043,2063,2074,2069,2153,2066,2059,2003
2051,2052,2073,2065,2145,2077,2064,2017
2058,2066,2076,2071,2146,2090,2060,2032
2060,2069,2069,2076,2147,2097,2073,2050
2054,2065,2056,2072,2128,2094,2061,2049
2064,2061,2055,2070,2077,2084,2045,2048
2073,2062,2064,2050,1967,2059,2048,2046
2072,2056,2055,2030,1935,2039,2041,2053
2059,2057,2050,2037,1983,2042,2061,2058
2050,2052,2053,2053,1997,2037,2063,2057
2034,2056,2057,2071,1992,2030,2047,2058
2037,2062,2065,2069,2024,2041,2069,2074
2044,2056,2057,2071,2065,2050,2049,2074
2040,2048,2044,2071,2076,2047,2038,2074
2032,2045,2044,2068,2070,2052,2052,2080
2041,2051,2041,2064,2081,2057,2044,2089
2038,2044,2040,2067,2090,2063,2046,2090
2051,2057,2045,2075,2069,2068,2045,2088
2049,2062,2043,2075,2046,2065,2029,2078
2048,2057,2050,2075,2042,2059,2031,2076
2058,2061,2057,2088,2047,2052,2022,2073
2054,2051,2057,2084,2071,2045,2029,2057
2040,2044,2051,2066,2085,2039,2031,2043
2035,2040,2043,2073,2129,2059,2045,2046
2040,2047,2051,2089,2173,2074,2048,2039
2042,2043,2046,2109,2169,2076,2055,2035
2039,2040,2033,2095,2145,2072,2040,2029
2028,2029,2012,2068,2119,2059,2034,2016
2024,2024,2007,2051,2083,2045,2028,2004
2024,2025,2014,2050,2000,2047,2039,2000
2034,2033,2010,2043,1948,2054,2050,2004
2045,2033,1999,2034,1952,2058,2021,2009
2038,2021,1970,1998,1909,2040,2026,2006
2031,2012,1964,1967,1906,2036,2022,2008
2039,2029,1985,1966,1923,2026,2023,2002
2040,2040,2014,1987,1972,2017,2029,2006
2052,2059,2038,2026,2045,2019,2057,2029
2063,2071,2068,2064,2106,2036,2073,2041
2068,2072,2078,2067,2041,2058,2062,2050
2067,2073,2072,2068,2012,2093,2078,2057
2060,2070,2066,2072,2061,2097,2063,2059
2055,2058,2063,2063,2043,2074,2065,2061
2056,2050,2051,2060,2066,2057,2048,2064
2052,2049,2053,2053,2079,2054,2044,2074
2052,2042,2044,2047,2058,2043,2040,2080
2045,2038,2042,2047,2052,2045,2036,2081
2035,2031,2041,2048,2039,2042,2027,2074
2036,2044,2050,2037,2019,2042,2032,2086
2052,2052,2064,2024,2006,2043,2038,2096
2057,2056,2055,2012,2012,2037,2041,2097
2062,2067,2059,2012,2016,2038,2048,2090
2054,2062,2058,2007,2034,2044,2039,2085
2052,2060,2055,2014,2064,2061,2058,2078
2048,2064,2060,2026,2080,2064,2046,2076
2050,2067,2050,2027,2063,2049,2042,2072
2058,2063,2043,2022,2043,2042,2044,2060
2056,2051,2042,2034,2066,2062,2048,2045
2052,2038,2038,2034,2086,2059,2035,2029
2032,2031,2037,2031,2079,2045,2030,2020
2035,2023,2035,2030,2056,2044,2026,2028
2034,2031,2045,2031,2042,2059,2042,2017
2035,2038,2047,2032,2033,2068,2034,2020
2036,2046,2040,2030,2045,2065,2021,2016
2037,2045,2042,2030,2046,2063,2037,2012
2042,2059,2055,2046,2073,2060,2046,2020
2057,2071,2070,2062,2094,2049,2054,2029
2070,2082,2080,2072,2098,2054,2053,2030
2066,2072,2078,2070,2092,2065,2050,2029
2051,2064,2056,2066,2092,2064,2055,2025
2049,2064,2053,2065,2077,2073,2057,2038
2046,2071,2058,2068,2073,2072,2053,2044
2054,2068,2054,2077,2057,2062,2060,2048
2051,2067,2061,2078,2033,2040,2040,2044
2039,2064,2056,2076,2020,2027,2040,2054
2049,2059,2040,2082,2044,2036,2048,2064
2043,2050,2026,2082,2045,2040,2045,2070
2035,2034,2025,2080,2064,2049,2056,2076
2036,2033,2013,2080,2071,2055,2034,2077
2034,2040,2018,2076,2075,2064,2049,2085
2045,2054,2031,2073,2081,2058,2049,2084
2042,2052,2036,2062,2076,2064,2035,2091
2040,2061,2043,2054,2075,2063,2051,2082
2042,2073,2031,2048,2053,2057,2038,2089
2039,2072,2026,2045,2018,2052,2045,2082
2040,2061,2018,2044,2020,2048,2055,2083
2041,2055,2026,2043,2014,2038,2049,2081
2046,2060,2028,2042,2015,2028,2035,2073
2042,2053,2024,2029,2014,2030,2041,2060
2051,2059,2045,2026,2017,2037,2040,2049
2049,2051,2033,2011,2023,2039,2026,2042
2042,2048,2026,2006,2028,2040,2030,2037
2042,2060,2045,2008,2028,2046,2052,2039
2047,2070,2056,2010,2021,2056,2044,2035
2052,2076,2071,2011,2032,2053,2050,2041
2055,2076,2078,2027,2033,2052,2021,2044
2058,2068,2070,2034,2045,2053,2051,2030
2054,2061,2059,2027,2043,2065,2012,2022
2049,2053,2059,2018,2040,2075,2028,2025
2043,2054,2053,2012,2033,2079,2019,2021
2035,2061,2057,2035,2058,2091,2042,2023
2041,2062,2062,2041,2070,2088,2027,2024
2046,2061,2056,2047,2077,2048,2045,2040
2049,2068,2066,2054,2087,2017,2041,2054
2049,2071,2068,2063,2075,2029,2037,2063
2045,2064,2064,2054,2061,2043,2051,2063
2050,2056,2056,2053,2059,2049,2077,2072
2048,2059,2056,2058,2062,2052,2071,2079
2042,2052,2049,2061,2073,2050,2070,2083
2053,2049,2042,2064,2060,2036,2066,2092
2052,2051,2045,2066,2046,2030,2057,2096
2045,2045,2044,2059,2037,2020,2030,2090
2030,2040,2040,2052,2023,2014,2007,2077
2020,2037,2038,2051,2032,2030,2026,2083
2026,2044,2049,2064,2069,2052,2047,2105
2046,2073,2061,2081,2084,2059,2047,2103
2046,2057,2040,2067,2073,2050,2042,2098
2043,2048,2019,2055,2049,2043,2046,2081
2042,2044,2032,2056,2033,2041,2051,2070
2047,2057,2056,2065,2023,2047,2058,2061
2047,2069,2066,2068,2031,2053,2053,2071
2054,2077,2076,2056,2034,2057,2057,2073
2060,2075,2067,2033,2025,2041,2033,2065
2043,2051,2044,2010,2003,2030,2025,2046
2035,2043,2034,1998,2004,2028,2032,2029
2046,2046,2036,1996,2014,2043,2037,2036
2054,2055,2031,2006,2020,2045,2035,2032
2046,2058,2039,2019,2034,2047,2050,2030
2045,2063,2039,2025,2046,2039,2037,2013
2036,2049,2033,2028,2058,2037,2038,2012
2032,2041,2037,2031,2065,2050,2053,2022
2034,2042,2026,2022,2069,2049,2035,2029
2044,2034,2022,2014,2054,2051,2042,2021
2043,2033,2018,2011,2058,2044,2048,2031
2054,2037,2028,2008,2051,2046,2046,2042
2052,2041,2034,2007,2051,2049,2023,2044
2040,2044,2049,2016,2049,2054,2041,2051
2040,2049,2049,2018,2055,2058,2056,2044
2035,2045,2050,2019,2024,2063,2060,2049
2030,2042,2038,2027,2032,2065,2060,2071
2036,2049,2028,2028,2047,2063,2055,2076
2034,2042,2025,2030,2041,2072,2046,2071
2028,2052,2030,2041,2035,2079,2053,2079
2030,2058,2031,2021,1993,2053,2052,2085
2032,2051,2024,2014,1968,2037,2023,2080
2028,2044,2023,2021,1982,2029,2034,2088
2034,2047,2030,2022,1998,1997,2025,2089
2039,2049,2039,2015,2058,1996,2032,2094
2048,2058,2060,2055,2162,2028,2039,2096
2062,2066,2066,2070,2188,2052,2039,2088
2061,2070,2064,2067,2174,2049,2055,2075
2058,2059,2053,2055,2151,2055,2064,2061
2043,2056,2056,2055,2112,2044,2058,2055
2054,2059,2067,2072,2082,2042,2063,2051
2059,2055,2075,2079,2054,2038,2053,2044
2047,2053,2071,2080,2005,2031,2031,2037
2047,2050,2052,2062,1915,2020,2042,2039
2043,2048,2037,2059,1935,2025,2031,2032
2049,2043,2031,2066,1988,2034,2038,2022
2047,2050,2036,2072,2017,2045,2046,2018
2055,2044,2028,2071,2036,2034,2047,2007
2044,2043,2012,2069,2073,2048,2030,2004
2043,2041,2010,2078,2116,2068,2049,2014
2043,2035,2016,2085,2130,2082,2033,2025
2049,2045,2013,2077,2126,2085,2053,2027
2049,2050,2015,2065,2119,2090,2041,2036
2052,2049,2019,2051,2109,2087,2039,2040
2049,2045,2015,2030,2092,2082,2059,2044
2042,2038,2021,2001,2084,2078,2055,2045
2041,2036,2031,1990,2085,2073,2039,2053
2046,2028,2036,1988,2059,2043,2048,2061
2038,2026,2047,1989,2025,2017,2033,2060
2027,2037,2071,2004,2010,2010,2036,2072
2038,2057,2084,2031,2021,2018,2044,2087
2048,2058,2075,2033,2019,2013,2053,2091
2049,2056,2057,2029,2012,2010,2053,2095
2044,2055,2058,2025,1993,1999,2014,2089
2045,2056,2068,2023,1971,1998,2025,2091
2054,2068,2068,2024,1979,2000,2038,2092
2056,2060,2052,2009,2008,2001,2032,2078
2046,2044,2039,1998,2033,2021,2050,2076
2050,2057,2052,2012,2022,2034,2059,2077
2048,2064,2065,2033,2011,2041,2063,2079
2053,2061,2071,2049,2041,2057,2052,2076
2052,2050,2071,2071,2054,2065,2057,2061
2045,2040,2072,2069,2059,2056,2052,2047
2043,2047,2084,2086,2059,2057,2058,2039
2047,2048,2086,2073,2050,2043,2050,2030
2047,2049,2082,2065,2060,2037,2028,2022
2041,2047,2068,2054,2034,2046,2037,2012
2039,2042,2057,2046,2001,2042,2042,2014
2039,2042,2051,2046,2011,2046,2038,2013
2042,2041,2053,2042,2017,2044,2039,2008
2043,2037,2047,2050,2026,2048,2040,2013
2042,2048,2046,2050,2024,2059,2050,2017
2044,2050,2049,2049,2013,2055,2055,2026
2049,2052,2038,2046,2012,2052,2051,2025
2042,2049,2033,2064,2024,2060,2030,2031
2036,2055,2065,2092,2055,2060,2033,2023
2042,2048,2084,2096,2062,2052,2041,2021
2039,2030,2069,2083,2071,2050,2036,2030
2028,2020,2054,2086,2077,2055,2046,2041
2025,2029,2067,2099,2088,2064,2036,2045
2035,2047,2084,2108,2082,2059,2046,2052
2031,2039,2072,2104,2077,2050,2053,2063
2034,2031,2054,2102,2078,2039,2035,2070
2030,2025,2035,2087,2083,2035,2027,2075
2033,2022,2023,2080,2077,2026,2032,2077
2032,2026,2012,2070,2060,2021,2006,2080
2033,2033,2015,2064,2048,2020,2029,2089
2044,2042,2005,2037,2041,2022,2005,2090
2054,2036,1992,2013,2038,2037,2031,2081
2062,2035,1975,1991,2031,2044,2029,2084
2054,2029,1973,1974,2032,2040,2050,2067
2048,2022,1958,1953,2014,2032,2032,2058
2040,2021,1957,1952,2014,2034,2041,2051
2026,2031,1985,1984,2032,2047,2047,2041
2033,2050,2025,2016,2037,2047,2045,2045
2051,2069,2063,2041,2053,2055,2050,2047
2060,2069,2067,2048,2056,2060,2061,2038
2058,2059,2063,2047,2053,2056,2056,2024
2050,2051,2055,2046,2061,2044,2046,2026
2043,2040,2035,2041,2059,2045,2036,2025
2044,2037,2028,2052,2064,2048,2045,2025
2042,2036,2027,2056,2064,2053,2040,2021
2048,2047,2045,2058,2070,2057,2044,2022
2047,2060,2058,2066,2066,2063,2053,2019
2043,2054,2062,2060,2070,2056,2057,2020
2043,2054,2060,2067,2074,2060,2036,2023
2042,2045,2057,2066,2069,2056,2035,2023
2036,2043,2070,2066,2069,2057,2059,2026
2040,2039,2071,2062,2060,2060,2053,2039
2040,2035,2058,2058,2058,2056,2034,2039
2042,2039,2056,2062,2066,2059,2062,2051
2042,2047,2077,2074,2069,2064,2056,2052
2046,2050,2081,2073,2077,2065,2055,2062
2040,2046,2068,2072,2080,2061,2066,2067
2036,2045,2060,2068,2072,2065,2065,2080
2035,2042,2054,2058,2070,2063,2061,2085
2034,2044,2048,2043,2057,2056,2043,2080
2026,2031,2025,2037,2040,2042,2041,2075
2026,2020,2018,2044,2045,2041,2024,2074
2026,2035,2027,2059,2045,2037,2022,2073
2044,2041,2030,2077,2047,2045,2041,2080
2046,2051,2025,2089,2056,2042,2055,2077
2048,2050,2029,2099,2055,2037,2043,2076
2054,2045,2020,2093,2045,2026,2035,2063
2041,2042,2008,2077,2044,2034,2028,2049
2037,2029,2000,2062,2048,2038,2028,2035
2034,2024,2009,2048,2041,2036,2043,2029
2028,2027,2032,2045,2043,2047,2056,2026
2053,2042,2051,2045,2042,2048,2042,2025
2053,2051,2063,2029,2035,2058,2047,2018
2045,2061,2063,2006,1997,2067,2024,2016
2036,2054,2069,1987,1952,2062,2031,2014
2035,2058,2063,1970,1939,2063,2029,2004
2032,2052,2057,1971,1927,2048,2020,1991
2024,2042,2052,1978,1936,2028,2022,2000
2035,2048,2057,1991,1976,2010,2051,2029
2043,2056,2065,2018,2036,2021,2054,2033
2045,2062,2080,2033,2057,2062,2061,2043
2045,2065,2090,2046,2071,2061,2053,2045
2056,2070,2088,2047,2072,2032,2047,2052
2061,2075,2091,2063,2080,2028,2030,2055
2064,2073,2086,2068,2069,2033,2042,2062
2057,2070,2077,2060,2070,2038,2052,2066
2060,2062,2060,2060,2065,2048,2069,2074
2061,2056,2039,2056,2066,2058,2078,2081
2054,2047,2027,2038,2057,2050,2069,2086
2051,2045,2025,2029,2047,2044,2052,2084
2045,2044,2016,2015,2043,2038,2047,2094
2052,2043,2019,2024,2055,2048,2067,2078
2045,2047,2032,2035,2072,2047,2045,2085
2046,2045,2044,2039,2076,2051,2052,2087
2043,2056,2038,2037,2057,2052,2066,2089
2045,2055,2032,2043,2061,2056,2069,2093
2050,2053,2027,2036,2057,2052,2063,2088
2056,2046,2022,2029,2045,2051,2058,2084
2060,2049,2026,2031,2038,2045,2049,2072
2057,2050,2023,2023,2029,2039,2040,2048
2052,2041,2027,2022,2030,2034,2048,2040
2043,2040,2036,2021,2027,2034,2070,2029
2040,2042,2048,2026,2037,2038,2065,2028
2042,2037,2055,2035,2043,2041,2018,2025
2040,2045,2057,2038,2040,2038,2041,2030
2052,2058,2063,2042,2048,2046,2061,2031
2064,2074,2081,2054,2053,2050,2053,2036
2067,2078,2094,2056,2053,2037,2044,2025
2055,2056,2079,2051,2038,2034,2034,2002
2034,2043,2076,2054,2047,2038,2034,2005
2045,2048,2072,2059,2049,2041,2041,2015
2057,2049,2074,2061,2055,2049,2033,2026
2063,2060,2079,2069,2077,2056,2036,2024
2055,2059,2077,2068,2071,2054,2059,2021
2052,2051,2076,2069,2068,2058,2050,2025
2049,2049,2064,2073,2067,2058,2057,2041
2055,2047,2056,2066,2056,2054,2073,2048
2047,2043,2045,2066,2049,2047,2040,2057
2043,2035,2034,2068,2051,2043,2049,2057
2032,2041,2026,2077,2055,2042,2061,2064
2041,2041,2023,2075,2066,2053,2060,2076
2043,2040,2011,2068,2063,2056,2046,2082
2046,2040,2004,2064,2061,2058,2044,2086
2043,2028,2004,2050,2048,2042,2044,2081
2033,2018,2006,2029,2040,2033,2035,2072
2031,2018,2015,2023,2053,2040,2043,2080
2037,2031,2026,2019,2064,2051,2055,2088
2036,2030,2015,2007,2055,2040,2039,2087
2043,2038,1999,1998,2053,2046,2049,2067
2032,2035,2005,2018,2060,2047,2052,2056
2045,2054,2030,2042,2064,2059,2056,2055
2051,2071,2060,2057,2053,2057,2054,2053
2057,2068,2082,2064,2047,2052,2052,2051
2051,2073,2088,2066,2041,2052,2047,2036
2045,2061,2088,2051,2017,2042,2045,2032
2042,2057,2082,2048,2004,2037,2042,2032
2039,2048,2065,2047,2016,2036,2053,2024
2032,2033,2052,2057,2021,2041,2040,2016
2037,2052,2073,2059,2021,2052,2051,2016
2046,2067,2083,2061,2026,2058,2050,2015
2046,2056,2072,2049,2024,2051,2047,2011
2044,2055,2068,2044,2033,2057,2048,2016
2047,2063,2062,2039,2054,2060,2056,2013
2048,2057,2047,2023,2054,2053,2054,2020
2040,2042,2036,2019,2046,2047,2053,2017
2050,2044,2037,2016,2042,2052,2053,2023
2051,2042,2034,2012,2047,2057,2053,2035
2048,2043,2036,2021,2046,2058,2057,2032
2055,2043,2032,2028,2039,2055,2062,2040
2046,2040,2032,2027,2038,2052,2050,2046
2046,2036,2032,2022,2041,2054,2050,2051
2041,2031,2037,2021,2037,2054,2059,2054
2038,2028,2034,2019,2041,2050,2046,2060
2040,2039,2034,2018,2033,2061,2046,2076
2044,2038,2040,2024,2033,2053,2030,2080
2043,2035,2031,2021,2029,2052,2024,2081
2035,2027,2021,2021,2029,2045,2014,2081
2036,2030,2021,2016,2027,2038,2034,2090
2043,2044,2028,2028,2025,2045,2040,2084
2045,2051,2032,2032,2017,2046,2049,2083
2052,2052,2037,2035,2015,2048,2040,2074
2040,2050,2038,2026,2024,2044,2050,2063
2043,2051,2038,2032,2041,2046,2051,2062
2047,2066,2048,2040,2052,2049,2037,2060
2058,2064,2048,2046,2032,2044,2061,2053
2064,2068,2055,2047,2018,2037,2045,2044
2052,2069,2051,2056,2017,2028,2042,2040
2052,2062,2042,2056,2014,2029,2047,2033
2045,2052,2036,2042,2011,2039,2034,2020
2044,2045,2035,2044,2042,2051,2040,2023
2055,2055,2046,2059,2066,2058,2037,2021
2064,2056,2045,2057,2067,2063,2057,2014
2054,2052,2035,2046,2059,2059,2055,2020
2056,2047,2034,2043,2057,2068,2049,2029
2060,2055,2050,2051,2059,2064,2044,2024
2050,2057,2046,2052,2057,2066,2063,2021
2048,2057,2045,2050,2056,2064,2059,2022
2051,2059,2044,2051,2057,2061,2072,2025
2057,2055,2044,2049,2064,2060,2069,2029
2054,2059,2043,2051,2064,2057,2050,2039
2056,2059,2046,2051,2057,2062,2053,2045
2053,2056,2041,2061,2059,2057,2058,2049
2048,2051,2050,2065,2065,2052,2056,2054
2052,2039,2050,2065,2067,2050,2057,2063
2044,2039,2045,2075,2065,2047,2055,2066
2046,2038,2052,2077,2058,2044,2055,2079
2044,2034,2042,2077,2058,2041,2049,2078
2038,2032,2044,2080,2058,2039,2032,2085
2038,2021,2033,2081,2054,2047,2040,2081
2041,2029,2039,2084,2056,2069,2032,2078
2049,2036,2045,2087,2058,2080,2033,2072
2050,2044,2050,2088,2056,2078,2030,2060
2044,2044,2048,2080,2054,2072,2025,2055
2045,2040,2046,2074,2047,2046,2026,2046
2042,2037,2034,2053,2043,2005,2016,2048
2041,2025,2010,2034,2042,1998,2019,2041
2035,2031,2016,2032,2036,2011,2006,2034
2040,2038,2035,2024,2029,2017,2005,2029
2041,2057,2047,2014,2036,2030,2023,2021
2048,2069,2059,2008,2044,2036,2021,2027
2051,2068,2050,2004,2037,2042,2040,2022
2051,2060,2043,2002,2039,2052,2042,2021
2049,2063,2048,2012,2047,2058,2042,2020
2063,2071,2051,2015,2040,2052,2048,2014
2059,2058,2046,2013,2039,2046,2050,2013
2062,2050,2040,2010,2041,2054,2025,2014
2062,2047,2038,2017,2044,2047,2036,2016
2051,2043,2039,2018,2044,2055,2027,2019
2047,2051,2046,2025,2048,2060,2042,2021
2049,2058,2048,2031,2055,2062,2053,2021
2052,2060,2052,2033,2060,2067,2053,2034
2055,2057,2048,2042,2060,2069,2066,2043
2061,2056,2051,2037,2057,2066,2070,2049
2055,2048,2043,2037,2046,2058,2064,2054
2053,2047,2041,2038,2052,2061,2068,2064
2053,2051,2038,2043,2057,2058,2073,2068
2050,2058,2039,2047,2057,2059,2064,2074
2051,2050,2030,2049,2054,2054,2053,2079
2046,2041,2033,2045,2048,2051,2053,2082
2042,2041,2031,2039,2040,2042,2044,2083
2038,2040,2028,2040,2035,2037,2033,2086
2039,2034,2029,2036,2046,2041,2028,2083
2047,2049,2040,2040,2036,2043,2042,2085
2046,2048,2048,2041,2045,2052,2050,2072
2052,2053,2051,2046,2043,2050,2049,2062
2052,2055,2064,2041,2045,2033,2036,2052
2053,2049,2062,2042,2043,2021,2019,2045
2046,2050,2053,2041,2035,2022,2044,2039
2045,2052,2055,2040,2036,2029,2046,2034
2050,2048,2047,2038,2038,2031,2022,2025
2046,2044,2040,2036,2038,2031,2034,2025
2051,2042,2036,2040,2035,2024,2023,2017
2052,2043,2036,2039,2036,2025,2038,2012
2043,2043,2029,2043,2036,2021,2048,2012
2045,2046,2030,2040,2041,2024,2046,2008
2052,2046,2038,2042,2040,2030,2042,2000
2063,2047,2043,2043,2042,2024,2028,1996
2054,2045,2043,2042,2044,2036,2035,2008
2057,2044,2043,2047,2054,2041,2062,2012
2061,2052,2047,2047,2059,2045,2054,2016
2068,2049,2045,2046,2050,2049,2049,2013
2059,2042,2042,2048,2052,2046,2052,2012
2056,2044,2038,2045,2053,2050,2049,2008
2048,2044,2038,2050,2054,2062,2060,2017
2037,2043,2049,2059,2060,2076,2065,2020
2032,2037,2043,2051,2055,2079,2058,2024
2033,2038,2038,2047,2060,2083,2059,2031
2043,2039,2043,2054,2059,2085,2067,2046
2042,2040,2039,2050,2059,2094,2062,2057
2052,2039,2042,2053,2063,2098,2063,2070
2054,2042,2042,2050,2052,2077,2061,2073
2051,2045,2046,2056,2054,2031,2049,2088
2052,2046,2045,2047,2054,2016,2050,2089
2051,2041,2035,2039,2044,2013,2044,2076
2046,2039,2035,2040,2035,2023,2057,2087
2052,2047,2044,2042,2042,2038,2051,2084
2053,2047,2049,2043,2042,2036,2031,2091
2057,2050,2048,2040,2040,2033,2052,2078
2056,2057,2048,2040,2037,2040,2042,2068
2060,2060,2055,2044,2044,2039,2054,2066
2070,2059,2048,2047,2041,2037,2059,2064
2063,2055,2049,2052,2032,2035,2044,2051
2067,2050,2045,2050,2042,2038,2064,2040
2064,2051,2044,2044,2050,2042,2058,2033
2064,2043,2045,2044,2051,2048,2064,2030
2062,2045,2046,2050,2046,2047,2033,2034
2060,2050,2047,2049,2050,2041,2044,2028
2062,2048,2047,2046,2053,2040,2036,2026
2064,2045,2045,2048,2048,2041,2036,2021
2060,2039,2045,2051,2044,2032,2032,2005
2055,2034,2039,2041,2041,2028,2034,2006
2054,2038,2043,2041,2045,2031,2017,2008
2055,2047,2048,2046,2053,2032,2024,2012
2061,2048,2041,2047,2061,2034,2039,2018
2064,2048,2044,2048,2058,2037,2064,2027
2060,2045,2042,2046,2057,2034,2056,2025
2058,2043,2040,2045,2054,2030,2049,2038
2060,2054,2045,2051,2054,2035,2047,2043
2065,2057,2048,2050,2063,2036,2068,2045
2065,2062,2049,2045,2058,2038,2071,2052
2065,2060,2046,2049,2063,2039,2070,2064
2061,2053,2047,2046,2057,2033,2080,2071
2055,2051,2041,2051,2053,2035,2069,2072
2052,2046,2039,2051,2052,2036,2045,2078
2054,2050,2035,2048,2044,2038,2060,2086
2054,2047,2039,2042,2057,2054,2082,2085
2052,2045,2035,2040,2044,2049,2052,2071
2041,2033,2030,2033,2050,2056,2053,2068
2038,2039,2037,2044,2059,2064,2065,2075
2049,2045,2049,2041,2056,2065,2055,2074
2046,2049,2044,2041,2050,2069,2065,2067
2051,2050,2052,2044,2050,2066,2060,2070
2052,2052,2050,2039,2045,2057,2060,2062
2054,2051,2044,2032,2036,2042,2048,2057
2054,2045,2045,2034,2038,2035,2030,2049
2056,2052,2043,2037,2039,2044,2051,2037
2056,2053,2045,2041,2046,2048,2045,2035
2050,2060,2043,2037,2042,2047,2063,2029
2046,2057,2041,2036,2040,2046,2040,2029
2049,2050,2042,2041,2038,2046,2058,2029
2045,2047,2041,2037,2037,2046,2054,2021
2044,2047,2045,2039,2042,2048,2059,2016
2041,2046,2045,2038,2034,2043,2064,2009
2043,2036,2035,2035,2039,2044,2036,2009
2044,2027,2036,2033,2050,2050,2048,2013
2047,2043,2038,2042,2057,2054,2068,2008
2044,2043,2038,2043,2050,2056,2064,2009
2046,2040,2036,2043,2047,2056,2037,2011
2038,2038,2036,2042,2053,2057,2032,2011
2038,2031,2036,2046,2052,2054,2049,2016
2032,2022,2038,2045,2055,2057,2065,2021
2027,2029,2037,2048,2058,2056,2070,2027
2027,2035,2037,2045,2057,2057,2058,2046
2035,2038,2034,2045,2063,2064,2056,2055
2041,2045,2044,2045,2065,2058,2082,2058
2041,2042,2039,2048,2058,2059,2077,2069
2044,2049,2042,2040,2060,2054,2063,2084
2044,2044,2041,2042,2058,2055,2044,2087
2042,2040,2040,2042,2056,2057,2039,2093
2044,2044,2032,2040,2053,2050,2060,2088
2037,2035,2028,2025,2050,2047,2041,2084
2047,2044,2040,2036,2044,2045,2059,2087
2046,2050,2038,2037,2036,2040,2062,2080
2046,2052,2046,2036,2032,2040,2046,2075
2042,2050,2051,2033,2024,2037,2065,2071
2039,2049,2055,2038,2028,2041,2066,2059
2043,2060,2060,2030,2022,2033,2059,2047
2043,2065,2061,2033,1995,2028,2063,2048
2045,2064,2056,2032,1984,2025,2059,2046
2052,2068,2054,2028,1980,2021,2059,2033
2054,2062,2048,2020,1975,2016,2041,2026
2047,2054,2044,2019,1991,2040,2048,2023
2041,2052,2050,2036,2021,2047,2057,2020
2047,2052,2048,2046,2042,2062,2052,2023
2052,2058,2060,2054,2056,2082,2052,2021
2052,2058,2054,2059,2071,2089,2065,2018
2049,2046,2048,2042,2039,2073,2048,2009
2046,2043,2043,2027,1994,2078,2064,2002
2047,2053,2046,2021,1961,2052,2039,2017
2050,2053,2050,2028,1953,2032,2037,2009
2053,2047,2053,2023,1934,2009,2020,2015
2044,2050,2048,2021,1950,1962,2035,2034
2044,2053,2058,2048,2020,1948,2047,2047
2057,2064,2068,2072,2098,2015,2068,2046
2058,2069,2071,2075,2136,2067,2074,2052
2062,2064,2066,2074,2129,2097,2076,2057
2062,2056,2063,2058,2108,2106,2073,2051
2056,2051,2056,2058,2073,2094,2073,2066
2052,2052,2060,2051,2072,2095,2074,2078
2052,2055,2053,2053,2084,2100,2091,2085
2039,2054,2045,2058,2083,2095,2085,2072
2028,2049,2041,2051,2067,2079,2089,2081
2030,2037,2035,2042,2056,2061,2090,2082
2032,2033,2030,2041,2072,2058,2082,2084
2049,2041,2033,2043,2093,2059,2091,2094
2045,2042,2045,2054,2094,2050,2078,2094
2051,2052,2041,2052,2085,2037,2070,2088
2045,2051,2042,2047,2070,2045,2074,2071
2043,2045,2040,2047,2062,2045,2072,2065
2045,2045,2037,2044,2041,2029,2061,2047
2044,2048,2042,2043,2032,2030,2056,2030
2045,2050,2039,2036,2031,2042,2066,2037
2043,2044,2034,2038,2035,2049,2055,2037
2051,2046,2035,2043,2034,2045,2048,2023
2043,2043,2039,2044,2033,2045,2062,2019
2039,2046,2040,2048,2041,2049,2045,2013
2036,2046,2044,2046,2043,2044,2054,2017
2041,2046,2039,2049,2040,2050,2054,2016
2031,2042,2043,2037,2037,2033,2042,2001
2033,2039,2039,2042,2042,2019,2038,1990
2033,2040,2043,2042,2049,2030,2045,2005
2039,2038,2036,2045,2051,2033,2054,2013
2038,2039,2040,2049,2051,2030,2056,2012
2040,2053,2051,2052,2058,2027,2053,2015
2052,2056,2054,2053,2046,2028,2064,2028
2050,2067,2055,2054,2038,2024,2055,2034
2048,2063,2049,2050,2024,2017,2062,2043
2050,2054,2045,2045,2021,2020,2067,2046
2048,2047,2039,2033,2022,2049,2061,2049
2042,2044,2031,2035,2028,2078,2070,2060
2049,2044,2038,2043,2038,2092,2061,2061
2042,2045,2038,2044,2054,2104,2068,2078
2048,2055,2050,2051,2061,2104,2072,2083
2049,2060,2057,2054,2065,2076,2070,2089
2055,2060,2057,2061,2078,2029,2062,2092
2045,2048,2045,2057,2064,2023,2057,2078
2037,2050,2036,2045,2058,2037,2063,2090
2041,2053,2044,2045,2052,2035,2044,2083
2040,2058,2048,2043,2043,2039,2045,2090
2052,2065,2055,2050,2042,2041,2032,2081
2046,2062,2055,2044,2042,2046,2039,2076
2049,2060,2054,2048,2044,2039,2022,2069
2049,2056,2047,2046,2041,2046,2045,2067
2056,2059,2042,2050,2043,2045,2036,2056
2059,2064,2042,2046,2045,2043,2040,2048
2061,2063,2039,2047,2039,2034,2036,2038
2058,2057,2036,2044,2038,2036,2020,2032
2052,2061,2039,2042,2032,2036,2038,2014
2040,2057,2043,2037,2025,2037,2040,2011
2038,2055,2040,2042,2024,2041,2045,2007
2034,2055,2039,2041,2023,2036,2046,1996
2033,2044,2036,2033,2026,2034,2029,2003
2038,2042,2034,2033,2021,2041,2040,2016
2043,2054,2042,2035,2030,2046,2060,2022
2048,2057,2046,2038,2030,2050,2060,2018
2050,2058,2043,2040,2033,2050,2072,2025
2052,2064,2047,2038,2041,2072,2082,2022
2051,2058,2041,2039,2034,2088,2074,2021
2048,2053,2045,2037,2026,2090,2073,2025
2048,2054,2042,2029,2017,2079,2061,2035
2043,2052,2035,2032,2012,2059,2056,2039
2044,2052,2034,2040,2040,2019,2044,2055
2050,2055,2041,2037,2055,2022,2041,2067
2046,2052,2043,2049,2060,2030,2045,2073
2041,2054,2038,2042,2053,2040,2036,2075
2041,2048,2034,2042,2050,2042,2035,2073
2036,2047,2034,2039,2056,2051,2044,2086
2026,2034,2022,2034,2053,2054,2043,2089
2030,2036,2026,2036,2043,2049,2052,2090
2031,2043,2026,2026,2034,2041,2053,2082
2052,2044,2029,2036,2034,2045,2053,2081
2037,2048,2028,2032,2039,2039,2034,2062
2039,2046,2032,2035,2042,2034,2049,2064
2035,2045,2030,2032,2032,2036,2060,2064
2045,2045,2031,2038,2035,2035,2058,2049
2049,2048,2038,2039,2044,2040,2043,2038
2045,2045,2030,2044,2046,2041,2056,2032
2044,2046,2030,2036,2043,2041,2040,2027
2042,2041,2026,2041,2045,2042,2053,2029
2039,2044,2029,2039,2046,2044,2049,2025
2034,2038,2024,2032,2038,2043,2049,2015
2029,2030,2024,2038,2042,2037,2049,2010
2026,2028,2020,2039,2048,2033,2056,2002
2030,2024,2020,2024,2043,2032,2046,2012
2030,2021,2026,2030,2044,2022,2044,2011
2040,2035,2030,2043,2051,2028,2043,2011
2040,2032,2021,2042,2052,2026,2048,2020
2045,2034,2030,2039,2039,2023,2053,2023
2045,2039,2032,2028,2027,2025,2050,2031
2042,2050,2038,2030,2027,2031,2075,2039
2049,2056,2052,2038,2015,2026,2086,2057
2060,2062,2055,2045,2009,2020,2084,2066
2064,2067,2054,2040,1999,2009,2078,2071
2063,2055,2050,2035,2008,2016,2050,2073
2059,2052,2043,2029,2030,2030,2049,2079
2073,2060,2058,2048,2052,2056,2069,2082
2072,2063,2059,2053,2052,2079,2064,2088
2068,2055,2056,2053,2053,2090,2073,2082
2064,2042,2041,2046,2061,2077,2066,2092
2053,2032,2034,2033,2059,2067,2054,2090
2044,2037,2030,2037,2061,2092,2057,2096
2043,2033,2028,2041,2064,2110,2058,2090
2043,2050,2047,2051,2065,2114,2061,2075
2035,2058,2059,2056,2052,2066,2053,2068
2037,2062,2062,2061,2044,2035,2046,2066
2040,2065,2062,2059,2033,2043,2059,2070
2041,2058,2059,2045,2024,2037,2031,2055
2040,2055,2042,2034,2031,2025,2023,2036
2036,2054,2044,2048,2051,2019,2017,2029
2042,2046,2052,2050,2054,2025,2023,2035
2041,2056,2057,2049,2045,2026,2028,2030
2041,2055,2055,2046,2045,2022,2031,2028
2047,2056,2054,2039,2031,2013,2023,2017
2045,2061,2054,2039,2029,2000,2044,2013
2045,2056,2065,2039,2031,1998,2040,2013
2039,2052,2054,2038,2026,1979,2033,2007
2040,2047,2044,2036,2030,1987,2021,2008
2043,2051,2042,2041,2042,2017,2030,2009
2045,2049,2044,2044,2055,2047,2054,2007
2043,2046,2048,2044,2056,2070,2040,2010
2039,2045,2047,2040,2047,2076,2033,2011
2042,2052,2046,2040,2047,2097,2039,2015
2038,2047,2048,2038,2053,2091,2045,2032
2040,2044,2046,2048,2064,2085,2056,2030
2042,2040,2040,2049,2057,2081,2051,2040
2042,2044,2042,2045,2062,2069,2059,2044
2044,2046,2035,2053,2065,2063,2042,2046
2041,2045,2038,2044,2059,2059,2051,2056
2036,2037,2036,2040,2043,2052,2043,2055
2028,2033,2028,2033,2040,2046,2022,2050
2031,2030,2021,2030,2026,2062,2014,2058
2028,2030,2018,2021,2023,2071,2015,2061
2027,2020,2015,2023,2021,2080,2047,2067
2032,2028,2019,2025,2006,2078,2057,2073
2040,2026,2021,2030,1997,2060,2047,2075
2047,2030,2026,2033,1999,2026,2051,2072
2039,2033,2023,2033,1998,2018,2046,2053
2036,2026,2010,2018,1997,2021,2032,2040
2035,2033,2017,2036,2039,2042,2030,2049
2050,2047,2034,2072,2074,2063,2042,2042
2052,2049,2043,2081,2072,2057,2041,2029
2046,2047,2036,2077,2067,2050,2037,2019
2047,2037,2027,2069,2063,2058,2048,2014
2038,2028,2021,2064,2053,2054,2046,2006
2042,2019,2021,2056,2040,2045,2044,1997
2046,2027,2018,2053,2041,2043,2042,1998
2053,2033,2026,2055,2037,2041,2052,1989
2049,2037,2028,2047,2039,2041,2031,1987
2038,2029,2021,2041,2036,2049,2039,1994
2043,2035,2028,2044,2048,2041,2040,2020
2048,2054,2053,2061,2058,2028,2061,2022
2064,2056,2060,2053,2042,2036,2044,2017
2053,2061,2064,2032,2020,2029,2042,2011
2059,2062,2059,2015,2009,2036,2037,2008
2051,2064,2074,2017,2005,2051,2059,2009
2046,2069,2089,2025,2011,2036,2042,2016
2041,2064,2090,2030,2060,2009,2037,2042
2048,2059,2081,2050,2116,2015,2039,2055
2057,2056,2079,2067,2144,2046,2064,2064
2056,2060,2078,2066,2150,2074,2057,2073
2057,2056,2073,2070,2167,2093,2062,2083
2059,2057,2072,2069,2159,2095,2053,2089
2061,2054,2065,2066,2146,2088,2056,2088
2054,2053,2057,2059,2119,2068,2058,2091
2047,2041,2050,2044,2082,2061,2053,2092
2044,2041,2049,2039,2038,2057,2049,2088
2047,2044,2044,2028,1933,2043,2040,2078
2044,2050,2044,2033,1949,2049,2036,2078
2047,2048,2044,2037,1984,2045,2041,2072
2042,2044,2040,2035,1995,2043,2036,2062
2040,2043,2042,2034,1993,2040,2026,2056
2041,2042,2036,2027,1980,2057,2024,2035
2037,2044,2037,2021,1957,2064,2033,2030
2037,2040,2036,2017,1948,2051,2023,2026
2034,2031,2027,2004,1920,2033,2010,2027
2028,2021,2016,1996,1919,2016,2007,2014
2028,2026,2016,2003,1957,2022,2025,2017
2030,2034,2021,2031,2012,2070,2049,2019
2049,2047,2032,2038,2029,2099,2063,2017
2050,2047,2030,2036,2016,2139,2065,2005
2040,2034,2013,2028,2007,2134,2056,2001
2033,2034,2010,2039,2036,2077,2046,2017
2037,2046,2017,2057,2073,2033,2038,2016
2046,2042,2016,2059,2081,2031,2049,2016
2049,2037,2019,2066,2083,2024,2030,2023
2047,2040,2024,2060,2063,2038,2042,2023
2051,2045,2027,2065,2053,2061,2041,2033
2045,2043,2031,2063,2067,2060,2036,2041
2047,2042,2034,2056,2055,2062,2030,2042
2044,2035,2030,2039,2006,2050,2046,2043
2041,2035,2027,2024,2005,2042,2036,2059
2045,2036,2035,2035,2058,2058,2045,2077
2051,2046,2054,2044,2016,2048,2044,2082
2048,2043,2053,2033,1965,2023,2032,2080
2040,2032,2052,2020,1945,1998,2028,2080
2033,2016,2045,2007,1959,1998,2024,2075
2027,2014,2050,2000,1957,2023,2048,2090
2035,2028,2061,2013,1952,2049,2061,2100
2053,2040,2076,2026,1968,2071,2078,2102
2059,2048,2078,2039,2036,2089,2083,2105
2069,2056,2072,2043,2069,2083,2070,2091
2073,2060,2068,2036,2077,2072,2054,2080
2069,2062,2066,2044,2098,2071,2065,2078
2077,2065,2061,2048,2084,2059,2059,2052
2075,2063,2063,2046,2103,2059,2043,2032
2056,2056,2054,2048,2105,2049,2048,2019
2035,2038,2041,2037,2090,2008,2028,2001
2020,2033,2034,2044,2108,2003,2021,1998
2026,2048,2050,2060,2115,2023,2014,2001
2043,2047,2050,2061,2090,2030,2008,1996
2037,2038,2045,2054,2096,2032,2018,1998
2024,2041,2043,2054,2093,2027,2018,1994
2032,2038,2035,2047,2088,2041,2024,2004
2041,2035,2037,2040,2068,2046,2032,2020
2056,2046,2038,2041,2050,2042,2048,2021
2062,2043,2035,2042,2035,2008,2018,2021
2044,2026,2022,2039,2028,1995,2012,2026
2046,2038,2024,2037,2026,2023,2019,2030
2062,2062,2048,2034,2024,2038,2022,2028
2055,2069,2051,2052,2056,2060,2043,2032
2045,2062,2048,2051,2085,2068,2045,2044
2042,2055,2040,2049,2101,2066,2032,2056
2055,2059,2050,2060,2082,2054,2049,2049
2057,2050,2054,2053,2043,2046,2048,2062
2049,2035,2041,2043,2018,2032,2037,2068
2030,2019,2035,2040,2035,2023,2018,2068
2012,2021,2040,2047,2081,2029,2016,2073
2015,2020,2040,2049,2099,2038,2031,2060
2017,2017,2036,2052,2100,2049,2041,2068
2020,2021,2041,2059,2100,2046,2044,2068
2025,2032,2055,2063,2104,2041,2022,2073
2029,2044,2067,2070,2117,2052,2041,2075
2032,2050,2072,2067,2115,2062,2045,2067
2035,2051,2071,2060,2123,2071,2050,2071
2044,2049,2067,2050,2112,2077,2058,2072
2054,2045,2061,2026,2014,2059,2055,2066
2061,2045,2054,2020,2006,2056,2049,2064
2057,2050,2057,2029,2068,2057,2020,2036
2060,2051,2057,2032,2110,2075,2040,2021
2050,2051,2067,2043,2140,2079,2057,2019
2048,2057,2065,2047,2157,2065,2053,2037
2060,2064,2062,2039,2145,2054,2069,2045
2068,2076,2068,2040,2134,2041,2028,2038
2064,2077,2066,2031,2082,2010,2020,2011
2043,2058,2048,2009,1998,1987,2031,2001
2048,2054,2042,2011,1998,1999,2033,2010
2056,2053,2045,2028,2017,2007,2020,2009
2049,2047,2049,2025,1956,1994,2026,2011
2042,2047,2057,2039,1993,2019,2018,2020
2035,2055,2065,2049,2000,2024,2023,2020
2041,2059,2073,2051,1993,2019,2020,2018
2041,2058,2067,2050,1999,2024,2019,2024
2045,2052,2059,2038,2002,2036,2016,2035
2039,2049,2047,2018,1949,2039,2036,2038
2039,2042,2046,2018,2004,2063,2025,2056
2040,2046,2047,2037,2072,2104,2061,2068
2038,2043,2047,2045,2068,2126,2068,2076
2046,2038,2041,2037,2060,2141,2067,2078
2043,2034,2045,2036,2050,2171,2063,2082
2033,2029,2040,2033,2035,2190,2053,2072
2029,2016,2026,2032,2021,2177,2045,2075
2029,2021,2024,2036,2027,2111,2039,2072
2032,2027,2030,2035,2016,1987,2022,2074
2034,2022,2029,2041,2043,1943,2029,2073
2041,2020,2021,2042,2045,1960,2027,2076
2043,2027,2020,2040,2043,1971,2028,2068
2042,2021,2016,2030,2034,1976,2012,2059
2042,2016,2006,2023,2033,1969,1998,2035
2034,2025,2015,2037,2071,1994,2012,2017
2029,2039,2032,2056,2134,2019,2044,2025
2038,2036,2032,2054,2132,2020,2041,2026
2041,2028,2030,2035,2097,2018,2015,2020
2043,2030,2024,2025,2061,2021,2005,2017
2046,2040,2032,2006,1966,2017,1992,2013
2049,2044,2031,2000,1887,2016,1991,1998
2040,2032,2022,1996,1963,2029,1986,1996
2036,2029,2017,2026,2039,2044,2010,2003
2049,2043,2037,2060,2056,2077,2033,2022
2064,2076,2077,2074,2059,2110,2060,2025
2070,2086,2092,2073,2067,2113,2056,2020
2068,2076,2094,2065,2062,2096,2057,2021
2068,2072,2093,2060,2045,2104,2061,2026
2064,2064,2086,2051,2043,2110,2061,2041
2062,2062,2078,2053,2022,2098,2063,2051
2069,2062,2070,2053,1992,2055,2044,2058
2059,2062,2078,2054,1967,2025,2061,2058
2070,2070,2079,2055,1981,2028,2040,2047
2051,2058,2076,2051,2001,2032,2034,2043
2027,2052,2070,2033,2010,2059,2035,2042
2024,2045,2058,2025,2017,2087,1999,2069
2040,2042,2047,2017,2020,2077,2031,2073
2044,2047,2058,2019,1998,2030,2015,2088
2051,2062,2070,2045,2024,2023,2035,2102
2057,2067,2076,2073,2098,2016,2043,2111
2057,2059,2074,2081,2167,2075,2045,2098
2050,2050,2058,2071,2157,2088,2024,2080
2049,2055,2059,2064,2128,2096,2039,2070
2053,2055,2056,2055,2110,2101,2024,2053
2036,2037,2033,2025,2088,2051,2033,2042
2036,2022,2025,2027,2108,2000,2045,2036
2040,2035,2037,2046,2116,2020,2050,2035
2041,2039,2044,2061,2107,2061,2046,2027
2048,2054,2053,2065,2137,2064,2052,2018
2048,2051,2051,2043,2086,2027,2021,1997
2035,2030,2026,2003,2002,2002,2019,1993
2025,2009,2010,2009,2031,2016,2019,1993
2020,2006,2022,2026,2064,2027,2034,1986
2019,2035,2050,2053,2087,2047,2051,1994
2030,2043,2046,2048,2059,2037,2044,1994
2035,2039,2028,2026,2017,2020,2030,2002
2051,2047,2032,2008,1956,2003,2034,2021
2066,2060,2031,1998,1853,1991,2030,2025
2084,2063,2047,2019,1893,2008,2029,2031
2084,2062,2043,2023,1925,2018,2034,2025
2076,2051,2052,2023,1924,2022,2054,2016
2080,2054,2056,2028,1976,2029,2049,2013
2065,2052,2049,2036,2035,2047,2057,2027
2058,2037,2046,2052,2079,2045,2033,2052
2046,2038,2049,2065,2113,2041,2030,2061
2046,2049,2053,2064,2120,2030,2002,2068
2043,2057,2059,2065,2146,2030,2010,2074
2038,2062,2068,2054,2099,2025,2014,2075
2058,2074,2083,2045,2025,2032,2018,2079
2063,2075,2077,2038,2063,2049,2042,2076
2048,2056,2059,2050,2131,2057,2039,2080
2038,2046,2048,2036,2023,2037,2047,2087
2047,2058,2062,2056,2072,2069,2076,2103
2053,2066,2075,2086,2144,2098,2085,2091
2062,2072,2075,2079,2092,2080,2084,2079
2053,2068,2069,2051,1988,2042,2068,2061
2051,2065,2064,2038,1951,2045,2059,2039
2036,2058,2050,2021,1957,2056,2054,2038
2049,2058,2054,2030,1988,2086,2047,2037
2051,2051,2048,2034,2041,2109,2060,2032
2043,2049,2044,2025,2034,2078,2020,2026
2050,2040,2040,2027,2022,2054,2062,2032
2060,2048,2043,2038,2015,2058,2041,2032
2064,2055,2054,2045,2049,2082,2061,2014
2054,2049,2042,2040,2086,2125,2058,1996
2046,2027,2028,2018,2074,2169,2054,1993
2043,2002,2009,1992,2029,2180,2039,1976
2023,1995,2006,1987,1987,2174,2009,1969
2024,2017,2014,1981,1957,2170,1995,1974
2036,2032,2030,1984,1943,2067,2040,1986
2040,2036,2034,2018,2014,1996,2050,2009
2050,2053,2050,2049,2119,2046,2052,2006
2042,2045,2040,2058,2142,2067,2049,2003
2020,2043,2040,2074,2165,2053,2052,2014
2013,2041,2048,2080,2144,2019,2040,2019
2023,2036,2042,2076,2114,2016,2046,2029
2047,2037,2041,2078,2100,2038,2056,2047
2050,2043,2047,2090,2099,2065,2075,2069
2062,2063,2064,2088,2074,2049,2037,2064
2052,2056,2052,2047,1979,2018,2005,2056
2041,2047,2035,2003,1969,1993,2023,2044
2028,2034,2029,1990,2022,1971,2025,2036
2011,2022,2018,1995,2080,1972,2021,2045
2016,2030,2022,2016,2093,1991,2029,2065
2035,2054,2048,2064,2126,2035,2039,2070
2052,2062,2054,2073,2156,2061,2037,2071
2065,2046,2043,2066,2145,2084,2030,2067
2062,2048,2054,2063,2101,2097,2049,2061
2057,2047,2063,2076,2114,2115,2058,2057
2072,2057,2077,2097,2188,2131,2066,2054
2075,2052,2082,2094,2178,2105,2074,2029
2066,2045,2076,2072,2122,2074,2069,2023
2063,2052,2080,2064,2095,2079,2060,2016
2051,2061,2074,2054,2044,2071,2062,2019
2029,2044,2049,2030,1966,2034,2049,2006
2018,2039,2044,2035,1932,2013,2034,1997
2022,2060,2061,2070,1982,2023,2042,1989
2039,2076,2064,2091,2016,1979,2035,1988
2048,2057,2048,2068,2008,1965,2037,1983
2053,2046,2045,2065,2028,1996,2033,1994
2054,2055,2047,2067,2022,2018,2025,1996
2047,2047,2035,2037,2012,2015,2017,1993
2049,2044,2028,2031,2034,2019,2021,1998
2040,2039,2028,2024,2090,2019,2037,2024
2054,2048,2039,2030,2161,2019,2038,2026
2056,2056,2054,2020,2180,2025,2045,2017
2056,2053,2060,2012,2191,2043,2039,2014
2046,2040,2055,2027,2259,2071,2043,2020
2033,2044,2040,2043,2280,2080,2041,2038
2029,2034,2035,2050,2235,2071,2028,2052
2030,2033,2039,2043,2167,2058,2053,2071
2045,2044,2043,2040,2069,2049,2057,2080
2053,2039,2039,2008,1825,2013,2063,2092
2060,2029,2025,1991,1770,1972,2036,2089
2053,2007,2008,1978,1759,1966,2050,2096
2051,1991,2003,1983,1799,1975,2053,2076
2044,1992,1995,1994,1855,1983,2023,2035
2028,2000,2009,2015,1900,2013,2021,2027
2055,2026,2032,2034,1946,2015,2027,2051
2067,2034,2039,2043,2017,2009,2032,2063
2060,2030,2043,2051,2044,2018,2032,2050
2045,2038,2052,2039,2061,2066,2004,2022
2026,2040,2039,2033,2046,2078,2006,2019
2029,2026,2022,2020,2081,2074,2024,2008
2026,2026,2029,2038,2136,2075,2003,2013
2049,2039,2049,2069,2170,2071,2024,2021
2057,2051,2060,2089,2155,2065,2018,2006
2055,2047,2075,2093,2153,2071,2025,2005
2057,2047,2075,2097,2138,2078,2055,1997
2046,2053,2075,2082,2096,2072,2046,2000
2041,2046,2051,2070,2075,2065,2045,2000
2043,2051,2047,2078,2085,2078,2068,2014
2047,2054,2042,2064,2033,2072,2062,2013
2043,2052,2046,2057,2034,2080,2069,2016
2038,2056,2049,2073,2094,2112,2059,2004
2037,2045,2032,2065,2127,2130,2061,2013
2034,2017,2005,2044,2150,2162,2060,2018
2026,2007,2004,2038,2144,2167,2065,2018
2028,2022,2026,2024,2110,2158,2055,2019
2029,2030,2036,2010,2075,2064,2047,2035
2038,2045,2045,2004,2052,2034,2060,2061
2054,2050,2051,2010,2032,2063,2065,2082
2065,2056,2055,1999,2008,2030,2033,2072
2065,2057,2065,1999,1966,1969,2040,2047
2039,2057,2091,2018,1913,1971,2039,2057
2045,2049,2088,2036,1986,2011,2036,2065
2038,2036,2088,2040,2020,2030,2032,2072
2035,2055,2100,2049,2050,2039,2022,2085
2051,2068,2077,2038,2045,2037,2031,2092
2047,2071,2063,2050,2111,2061,2052,2079
2031,2067,2064,2050,2140,2073,2034,2072
2056,2067,2061,2040,2130,2074,2035,2062
2062,2060,2057,2033,2130,2072,2052,2059
2066,2056,2048,2046,2146,2072,2042,2039
2045,2048,2041,2052,2173,2085,2028,2024
2046,2047,2054,2062,2141,2089,2025,2024
2060,2062,2064,2058,2081,2075,2028,2032
2076,2049,2046,2035,2002,2053,2009,2011
2061,2025,2010,2003,1977,2039,1986,1984
2047,2013,1999,2018,1990,2022,2025,2001
2073,2016,2026,2067,2072,2032,2083,2029
2092,2026,2043,2099,2193,2067,2079,2031
2062,2019,2042,2082,2106,2094,2071,2017
2035,2024,2043,2057,2080,2112,2084,2010
1997,2022,2033,2061,2135,2115,2049,2002
1961,2009,2017,2064,2143,2124,2060,2008
2005,2044,2037,2076,2122,2121,2051,2019
2047,2072,2045,2068,2118,2094,2072,2040
2064,2073,2044,2055,2111,2056,2055,2044
2063,2076,2052,2031,2014,2045,2052,2028
2048,2068,2070,2036,2031,2030,2036,2032
2038,2074,2084,2045,1986,2046,2045,2036
2054,2074,2092,2046,1999,2048,2066,2067
2063,2081,2095,2060,2021,2036,2062,2083
2066,2076,2083,2064,1972,2037,2068,2090
2056,2056,2059,2076,2082,2087,2038,2084
2045,2052,2053,2079,2158,2092,2025,2071
2040,2050,2045,2055,2150,2063,2009,2041
2017,2026,2017,2022,2102,2036,2003,2040
2011,2006,2013,2023,2068,2036,2009,2042
2011,2023,2041,2034,2027,2035,2027,2054
2028,2032,2040,2008,1990,2018,2030,2058
2035,2024,2034,2012,2011,1993,2041,2055
2036,2030,2027,2024,2049,1992,2034,2062
2055,2027,2012,2016,2074,2015,2033,2054
2045,2011,2003,2024,2099,2046,2054,2030
2032,2024,2036,2044,2090,2066,2075,2034
2078,2074,2066,2045,2073,2065,2084,2048
2111,2100,2070,2048,2046,2055,2088,2050
2098,2075,2054,2049,2015,2050,2086,2025
2065,2064,2047,2045,1953,2059,2076,2000
2045,2050,2045,2052,1907,2076,2096,2003
2045,2033,2037,2056,1958,2072,2088,2016
2044,2001,2018,2047,1953,2058,2081,2020
2035,2008,2025,2054,2071,2098,2070,2008
2039,2023,2035,2041,1986,2095,2053,1990
2040,2026,2022,2008,1889,2090,2030,1996
2065,2033,2022,2019,1886,2090,2020,2010
2065,2024,2015,2024,1952,2003,2008,1980
2028,2013,2024,2051,2095,1940,2030,2009
2056,2066,2085,2120,2237,1972,2079,2059
2082,2077,2082,2102,2132,1992,2073,2051
2052,2044,2044,2069,2144,2036,2056,2030
2033,2027,2044,2088,2192,2093,2079,2031
2037,2033,2067,2104,2194,2120,2097,2054
2041,2035,2056,2092,2123,2117,2094,2068
2052,2046,2053,2070,2100,2121,2074,2048
2044,2052,2047,2052,2045,2120,2063,2045
2035,2057,2048,2041,1974,2116,2080,2066
2028,2056,2047,2037,1942,2085,2066,2063
2022,2055,2049,2036,1944,2047,2060,2058
2032,2064,2059,2022,1982,2020,2056,2085
2074,2080,2070,2003,2016,2004,2039,2081
2075,2080,2063,2011,2088,1995,2038,2057
2050,2037,2033,2027,2163,1992,2034,2040
2040,2014,2024,2054,2229,2017,2034,2037
2070,2027,2038,2102,2232,2037,2042,2046
2092,2049,2051,2095,2145,2022,2052,2039
2092,2037,2038,2082,2104,2008,2039,2022
2072,2031,2045,2071,2091,2012,2065,2004
2051,2046,2064,2087,2115,2038,2067,1985
2030,2028,2047,2058,2093,2040,2048,1980
2023,2035,2051,2033,2013,2031,2053,1981
2003,2053,2056,2014,1950,2032,2063,2000
2022,2059,2046,2015,2022,2045,2056,2009
2036,2034,2037,2022,2074,2045,2078,2011
2044,2027,2054,2054,2089,2058,2099,2025
2078,2051,2096,2112,2103,2058,2086,2029
2082,2062,2107,2142,2100,2054,2074,2026
2072,2058,2104,2150,2108,2055,2055,2010
2049,2065,2103,2160,2160,2076,2060,2002
2050,2075,2113,2185,2286,2106,2073,2010
2039,2075,2092,2176,2310,2111,2074,2006
2039,2054,2062,2169,2314,2134,2079,2014
2052,2068,2051,2184,2349,2166,2085,2028
2057,2065,2043,2208,2363,2179,2078,2039
2044,2069,2046,2222,2345,2150,2065,2022
2021,2055,2041,2207,2245,2096,2068,2020
2009,2046,2046,2129,1933,1990,2031,2036
2019,2042,2030,2059,1824,1938,2037,2049
2028,2041,2026,2044,1839,1946,2040,2051
2018,2026,2025,2037,1924,1977,2028,2055
2014,2017,2020,2007,1930,1988,2042,2053
2015,2020,2024,1996,1912,1990,2048,2056
2030,2033,2031,2004,1925,1994,2043,2033
2023,2041,2044,2014,2011,2039,2027,1992
2014,2066,2070,2044,2104,2073,2060,2016
2033,2074,2084,2072,2134,2071,2065,2061
2052,2056,2087,2073,2140,2066,2045,2067
2047,2042,2059,2046,2112,2065,2056,2051
2037,2032,2025,2003,2088,2068,2050,2029
2024,2017,1975,1967,2051,2062,2046,1998
2000,2012,1970,1965,2049,2073,2050,2000
2036,2045,1993,1982,2042,2080,2064,2006
2055,2044,1984,1977,2036,2073,2054,2023
2067,2050,1976,1977,2033,2060,2028,2011
2051,2047,1978,1970,2053,2051,2049,2000
2043,2043,1963,1958,2043,2017,2028,2005
2046,2043,1964,1972,2029,1990,2047,2009
2052,2027,1966,1993,2035,2014,2053,2022
2053,2036,1977,2009,2068,2034,2057,2009
2059,2050,1989,2023,2082,2042,2057,2002
2062,2054,1999,2034,2090,2046,2068,2023
2067,2053,1994,2039,2090,2050,2078,2005
2035,2051,1998,2043,2090,2056,2072,2012
2030,2047,1996,2037,2089,2059,2069,2032
2042,2038,1996,2028,2079,2050,2057,2038
2048,2032,2008,2020,2063,2033,2054,2035
2034,2023,2036,2006,2056,2020,2053,2020
2010,2036,2088,2023,2068,2033,2049,2031
2011,2061,2135,2040,2080,2041,2058,2055
2031,2085,2159,2055,2079,2044,2068,2084
2046,2096,2153,2052,2080,2063,2068,2096
2056,2086,2122,2044,2042,2079,2049,2072
2055,2075,2110,2019,2001,2091,2048,2068
2064,2081,2111,2008,1952,2073,2064,2059
2045,2066,2101,1991,1880,2048,2030,2050
1998,2052,2094,1981,1878,2013,2018,2039
1991,2060,2098,1999,1944,1985,2047,2064
2028,2082,2116,2039,2033,2023,2069,2069
2047,2085,2112,2056,2088,2051,2073,2060
2056,2088,2113,2089,2082,2046,2073,2046
2049,2075,2122,2121,2139,2060,2047,2034
2057,2075,2144,2156,2210,2072,2059,2022
2055,2071,2152,2172,2172,2067,2049,2016
2045,2065,2134,2165,2144,2075,2065,2007
2045,2062,2112,2158,2112,2072,2064,1995
2047,2058,2082,2148,2091,2076,2078,2002
2050,2042,2051,2138,2089,2088,2077,1991
2043,2038,2032,2141,2101,2067,2050,1991
2036,2042,2026,2141,2105,2039,2044,1992
2042,2062,2035,2142,2108,2038,2052,2005
2052,2068,2034,2138,2087,2043,2064,2007
2052,2069,2027,2124,2091,2055,2064,2006
2039,2062,2024,2114,2102,2061,2061,2000
2038,2061,2033,2101,2105,2064,2066,2001
2047,2056,2036,2078,2092,2058,2026,2008
2045,2052,2034,2048,2071,2049,2062,2023
2050,2047,2038,2021,2052,2040,2056,2033
2047,2033,2045,1996,2040,2054,2050,2044
2042,2026,2047,1966,2044,2062,2063,2060
2051,2024,2049,1942,2036,2053,2066,2077
2048,2028,2058,1946,2026,2054,2078,2086
2066,2035,2084,1977,2017,2018,2052,2084
2050,2035,2093,2012,2016,2003,2047,2069
2029,2028,2084,2009,2030,1986,2043,2063
2022,2029,2085,2030,2065,2001,2044,2067
2016,2034,2082,2045,2112,2038,2024,2073
2038,2046,2096,2094,2146,2051,2044,2081
2045,2047,2073,2123,2130,2022,2023,2075
2038,2028,2040,2122,2079,2014,2035,2066
2042,2032,2039,2140,2089,2035,2043,2056
2051,2039,2052,2152,2008,2062,2058,2058
2060,2052,2041,2150,1983,2095,2075,2056
2064,2046,2020,2152,2051,2104,2071,2056
2061,2042,1980,2137,2052,2110,2072,2041
2055,2033,1944,2110,2004,2101,2055,2004
2046,2017,1929,2103,2001,2090,2025,1993
2039,1998,1915,2077,1949,2074,2038,1994
2056,1992,1906,2055,1977,2055,2033,2020
2079,2017,1923,2062,1975,2008,2034,2014
2068,2021,1931,2063,2087,2016,2018,1997
2036,2008,1940,2068,2200,2043,2039,1977
2002,1981,1960,2048,2193,2065,2029,1991
2000,1986,1979,2021,2147,2054,2044,2008
2008,2012,2027,1958,2021,2021,2037,2001
2011,2053,2073,1950,2001,2018,2022,2015
2037,2074,2132,1978,2029,2038,2044,2027
2053,2076,2153,1982,2030,2035,2030,2035
2050,2080,2177,1999,2060,2042,2052,2039
2040,2085,2179,2038,2129,2077,2066,2044
2034,2075,2141,2054,2123,2090,2077,2053
2051,2068,2127,2050,2061,2073,2071,2054
2039,2055,2104,2023,2002,2052,2072,2075
2044,2051,2076,1999,1997,2040,2074,2096
2061,2056,2074,2001,2026,2027,2046,2084
2030,2038,2050,2025,2060,2015,2017,2063
2002,1999,2034,2037,2054,2025,2039,2052
2017,1999,2034,2065,2076,2044,2033,2061
2020,2015,2035,2075,2077,2050,2034,2085
2011,2025,2025,2080,2076,2057,2049,2092
2051,2062,2052,2095,2097,2071,2051,2079
2074,2082,2073,2098,2103,2064,2060,2059
2044,2077,2054,2087,2089,2071,2041,2049
2045,2066,2047,2062,2087,2101,2042,2032
2037,2064,2058,2071,2127,2134,2050,2045
2034,2061,2065,2085,2147,2136,2054,2047
2039,2051,2044,2067,2088,2120,2042,2025
2036,2033,2040,2045,2059,2098,2031,2025
2048,2035,2038,2028,2030,2074,2019,2023
2047,2039,2041,2012,2000,2062,2005,2012
2034,2040,2035,1997,1970,2039,2013,2007
2048,2042,2023,1997,1975,1968,2028,2006
2047,2043,2041,2037,2073,1938,2026,1987
2028,2060,2084,2065,2100,1973,2017,1994
2033,2078,2094,2068,2072,2024,2039,2014
2041,2083,2099,2049,2066,2056,2037,2028
2059,2076,2078,2016,2051,2032,2037,2013
2047,2056,2047,1990,2019,2012,2027,2010
2040,2055,2052,1995,2036,2019,2036,2009
2038,2045,2056,1998,2047,2027,2041,2032
2072,2065,2076,2017,2069,2043,2032,2034
2085,2074,2100,2040,2074,2049,2065,2042
2075,2078,2106,2058,2088,2053,2043,2054
2061,2094,2119,2065,2080,2053,2066,2072
2055,2092,2111,2071,2063,2043,2059,2072
2052,2081,2089,2067,2061,2038,2044,2094
2060,2091,2098,2079,2078,2056,2045,2104
2058,2098,2110,2089,2092,2062,2061,2096
2046,2072,2089,2072,2091,2054,2033,2093
2037,2051,2071,2076,2142,2061,2054,2097
2060,2061,2084,2098,2181,2086,2068,2098
2063,2053,2104,2137,2162,2103,2068,2105
2073,2070,2131,2174,2126,2100,2080,2107
2089,2065,2126,2174,2115,2075,2059,2096
2077,2054,2101,2180,2109,2056,2068,2065
2050,2045,2098,2177,2091,2032,2058,2035
2037,2038,2080,2145,1965,2001,2044,2017
2025,2025,2047,2113,1900,1983,2044,2012
2016,2013,2017,2124,1996,1996,2047,1991
2014,2013,2002,2135,2056,2025,2053,1989
2033,2037,2011,2145,2074,2068,2078,2007
2035,2038,1988,2145,2093,2077,2067,2000
2020,2028,1972,2132,2116,2093,2075,1998
2024,2032,1981,2125,2113,2103,2062,2001
2042,2026,1971,2112,2091,2079,2048,2002
2032,2003,1952,2066,2044,2059,2042,2005
2033,2001,1943,2016,2020,2056,2039,2001
2031,2004,1971,2000,2015,2043,2047,2011
2034,2041,2077,2027,2024,2015,2054,2030
2044,2077,2142,2066,2046,1997,2073,2044
2054,2083,2134,2086,2065,2012,2064,2050
2051,2072,2124,2104,2084,2055,2083,2057
2065,2065,2126,2111,2089,2068,2086,2070
2086,2071,2127,2112,2102,2074,2095,2084
2093,2092,2128,2095,2096,2054,2037,2061
2069,2088,2105,2068,2085,2053,2051,2055
2076,2076,2072,2040,2090,2057,2078,2096
2099,2069,2036,2034,2078,2057,2094,2109
2101,2070,2011,2023,2065,2051,2072,2117
2090,2067,1981,2021,2056,2044,2074,2116
2044,2046,1955,2013,2039,2029,2064,2098
1998,2022,1944,2000,2028,2015,2050,2094
2002,2039,1953,1990,2034,2026,2049,2090
2029,2064,1997,1998,2051,2051,2040,2090
2063,2100,2034,1983,2054,2045,2068,2100
2073,2076,2019,1966,2035,2036,2063,2093
2053,2064,2043,1971,2042,2041,2057,2088
2056,2065,2070,1983,2053,2048,2054,2075
2052,2073,2090,1992,2051,2045,2054,2062
2053,2072,2090,2000,2063,2047,2049,2052
2052,2072,2122,2026,2071,2044,2069,2046
2062,2077,2140,2046,2068,2052,2061,2042
2064,2068,2128,2048,2064,2046,2053,2049
2064,2070,2110,2062,2070,2041,2056,2056
2058,2073,2103,2086,2067,2035,2055,2058
2062,2071,2076,2080,2066,2047,2040,2044
2074,2053,2058,2079,2069,2055,2032,2037
2066,2034,2029,2059,2054,2028,2021,2026
2038,2020,2009,2051,2054,2036,2037,2019
2031,2025,2014,2057,2056,2034,2034,2004
2017,2041,2035,2079,2076,2022,2043,2016
2036,2061,2036,2096,2088,2021,2071,2045
2072,2060,2033,2093,2089,2039,2078,2042
2058,2053,2022,2081,2079,2062,2073,2038
2044,2041,2027,2076,2065,2070,2063,2039
2034,2035,2022,2066,2054,2073,2061,2049
2029,2029,2018,2075,2060,2081,2066,2059
2046,2047,2034,2083,2073,2071,2075,2076
2054,2057,2053,2095,2070,2064,2051,2081
2049,2052,2052,2067,2061,2053,2043,2090
2050,2046,2055,2028,2035,2049,2027,2093
2044,2037,2058,2005,2017,2039,2025,2081
2040,2050,2088,2022,2018,2037,2015,2086
2052,2065,2120,2045,2036,2045,2033,2111
2079,2064,2128,2056,2040,2054,2054,2107
2090,2062,2101,2059,2044,2054,2032,2087
2068,2043,2056,2050,2024,2043,2018,2068
2052,2020,2041,2043,2023,2046,2008,2073
2050,2028,2044,2034,2022,2043,2029,2070
2057,2054,2061,2036,2015,2050,2043,2059
2065,2082,2070,2055,2031,2045,2053,2064
2066,2093,2062,2063,2033,2002,2017,2065
2069,2092,2055,2061,2035,1979,2006,2057
2069,2094,2057,2068,2052,2003,2023,2036
2060,2078,2061,2060,2066,2044,2028,2014
2049,2065,2067,2060,2076,2064,2034,2010
2053,2054,2065,2064,2075,2062,2052,2014
2041,2050,2071,2072,2073,2051,2045,2016
2044,2060,2089,2069,2053,2040,2037,2011
2028,2045,2089,2073,2055,2031,2021,2004
2033,2052,2100,2086,2055,2032,2037,2019
2044,2056,2104,2090,2053,2032,2046,2020
2041,2059,2108,2096,2048,2038,2046,2022
2049,2057,2110,2106,2063,2055,2057,2029
2056,2072,2126,2120,2075,2077,2070,2039
2064,2085,2127,2120,2070,2076,2051,2046
2070,2069,2101,2089,2061,2056,2042,2037
2051,2044,2058,2060,2048,2062,2018,2033
2037,2040,2034,2041,2037,2075,2037,2036
2036,2022,2003,2012,2021,2080,2046,2054
2033,2013,1993,1993,2013,2089,2046,2064
2036,2012,2001,1990,2007,2069,2025,2064
2026,2025,2022,2003,2042,2041,2038,2049
2015,2037,2031,2018,2079,2034,2059,2058
2017,2036,2024,2024,2096,2047,2033,2076
2014,2020,2004,2025,2078,2054,2049,2085
2025,2025,2006,2030,2082,2065,2061,2114
2059,2047,2021,2033,2072,2064,2040,2124
2079,2048,2014,2031,2050,2042,2046,2102
2073,2050,2029,2042,2047,2046,2032,2085
2080,2057,2039,2035,2030,2043,2046,2074
2072,2051,2038,2021,2001,2033,2035,2075
2058,2049,2052,2044,2002,2031,2045,2058
2039,2061,2075,2057,2005,2021,2034,2046
2037,2077,2085,2076,2012,2021,2057,2063
2056,2095,2097,2098,2027,2034,2058,2062
2060,2098,2100,2099,2046,2041,2051,2059
2061,2097,2095,2082,2048,2058,2053,2052
2063,2089,2094,2072,2050,2056,2052,2061
2066,2077,2093,2075,2051,2060,2043,2047
2071,2069,2094,2076,2043,2056,2047,2035
2067,2068,2105,2070,2025,2029,2034,2020
2051,2062,2101,2067,1999,2004,2026,2019
2053,2066,2107,2079,1994,2008,2043,2027
2061,2053,2090,2075,2001,2025,2049,2020
2059,2047,2074,2090,2049,2059,2058,2025
2063,2069,2090,2130,2121,2088,2079,2034
2083,2084,2094,2150,2140,2080,2056,2032
2075,2068,2078,2133,2119,2066,2063,2042
2075,2060,2070,2113,2112,2059,2059,2052
2085,2072,2065,2111,2094,2058,2064,2061
2079,2074,2062,2106,2073,2061,2066,2071
2068,2061,2043,2083,2073,2068,2065,2074
2053,2052,2027,2080,2087,2065,2058,2071
2033,2045,2036,2090,2106,2064,2049,2071
2044,2056,2056,2100,2103,2070,2048,2075
2047,2060,2052,2072,2072,2073,2031,2080
2044,2041,2047,2056,2028,2069,2034,2070
2031,2024,2031,2040,2032,2061,2016,2068
2028,2025,2030,2049,2018,2041,2034,2074
2047,2035,2074,2064,1985,2007,2032,2078
2053,2035,2094,2080,1966,1991,2050,2087
2058,2036,2100,2092,1985,2011,2044,2080
2056,2018,2093,2099,2040,2043,2042,2067
2045,2014,2089,2104,2062,2060,2046,2056
2051,2025,2081,2117,2056,2063,2053,2047
2046,2030,2059,2111,2045,2046,2040,2032
2030,2017,2043,2089,2044,2037,2025,2020
2019,2024,2032,2089,2052,2049,2034,2016
2031,2046,2034,2104,2066,2061,2052,2030
2048,2068,2034,2106,2064,2066,2066,2037
2055,2068,2013,2087,2059,2058,2043,2029
2040,2042,1993,2068,2047,2045,2052,2018
2036,2031,1978,2028,2028,2035,2039,2018
2037,2035,1994,2005,2008,2020,2026,2019
2047,2046,2035,1998,2006,2022,2015,2031
2057,2072,2081,2003,2017,2029,2032,2036
2067,2089,2094,2002,2020,2045,2053,2042
2074,2089,2084,2005,1985,2047,2052,2047
2072,2090,2090,2025,2015,2056,2038,2056
2079,2088,2116,2048,2019,2058,2032,2056
2078,2093,2122,2073,2022,2063,2056,2060
2070,2092,2114,2069,2020,2063,2057,2067
2070,2084,2105,2076,2031,2062,2047,2069
2070,2074,2089,2076,2054,2058,2053,2074
2058,2064,2074,2068,2061,2043,2054,2085
2058,2061,2073,2053,2054,2029,2051,2094
2059,2063,2076,2065,2097,2033,2056,2095
2063,2066,2070,2076,2097,2042,2038,2096
2063,2059,2061,2065,2067,2045,2038,2093
2054,2046,2057,2056,2052,2036,2024,2090
2046,2031,2046,2045,2023,2025,2025,2084
2037,2032,2042,2046,2016,2032,2041,2097
2047,2041,2051,2054,2021,2016,2042,2105
2060,2059,2065,2071,2024,2014,2063,2110
2080,2073,2072,2083,2031,2027,2067,2097
2066,2060,2067,2069,2022,2047,2072,2083
2052,2048,2061,2065,2011,2053,2070,2067
2049,2044,2051,2058,1988,2044,2061,2060
2045,2050,2048,2054,1975,2051,2062,2053
2054,2049,2048,2050,1965,2043,2059,2038
2048,2044,2036,2028,1962,2037,2040,2012
2038,2029,2029,2005,1966,2033,2025,2000
2022,2029,2035,2013,1976,2026,1998,2004
2033,2041,2046,2024,2016,2016,2028,2026
2051,2059,2058,2054,2077,2037,2060,2034
2065,2066,2063,2081,2124,2061,2064,2034
2054,2053,2061,2086,2121,2080,2042,2026
2057,2056,2067,2083,2106,2072,2048,2029
2060,2070,2066,2088,2086,2068,2056,2030
2062,2067,2062,2081,2071,2049,2068,2029
2062,2058,2056,2075,2055,2037,2062,2032
2073,2044,2053,2070,2058,2039,2055,2037
2074,2037,2042,2064,2052,2046,2057,2035
2073,2033,2035,2063,2052,2058,2067,2036
2064,2022,2032,2062,2059,2068,2068,2037
2053,2023,2037,2066,2063,2074,2056,2064
2048,2035,2046,2070,2057,2078,2080,2064
2030,2049,2050,2075,2056,2070,2074,2068
2032,2051,2043,2072,2034,2067,2064,2076
2042,2045,2037,2058,2016,2051,2050,2086
2040,2042,2034,2054,2024,2056,2054,2086
2041,2045,2042,2059,2034,2086,2066,2095
2050,2042,2037,2062,2029,2093,2051,2093
2043,2033,2021,2049,2024,2085,2046,2095
2028,2026,2012,2043,2013,2077,2047,2094
2039,2035,2012,2048,2024,2049,2056,2096
2055,2044,2032,2063,2070,2012,2058,2086
2058,2051,2031,2073,2087,2027,2062,2102
2069,2043,2024,2064,2077,2039,2054,2087
2058,2053,2023,2068,2083,2049,2055,2070
2057,2052,2029,2070,2085,2057,2060,2053
2052,2053,2035,2067,2073,2052,2060,2049
2059,2051,2026,2056,2060,2052,2052,2039
2052,2046,2030,2059,2053,2055,2055,2041
2046,2049,2033,2060,2045,2056,2047,2042
2044,2063,2046,2069,2055,2052,2055,2046
2056,2065,2044,2062,2058,2051,2059,2037
2049,2058,2036,2057,2050,2046,2033,2032
2046,2049,2044,2052,2050,2042,2033,2033
2050,2049,2049,2050,2044,2038,2029,2030
2046,2046,2054,2049,2035,2033,2043,2030
2058,2053,2068,2070,2042,2041,2046,2040
2057,2070,2083,2076,2050,2050,2068,2037
2065,2074,2088,2080,2056,2060,2071,2041
2066,2077,2081,2073,2063,2061,2080,2046
2064,2068,2071,2069,2083,2067,2056,2033
2056,2058,2053,2054,2075,2085,2058,2027
2056,2050,2043,2058,2043,2084,2033,2026
2056,2041,2031,2043,2012,2076,2028,2039
2057,2039,2029,2043,1994,2047,2026,2054
2046,2038,2028,2050,2016,2006,2039,2078
2052,2042,2039,2079,2076,2005,2049,2098
2058,2058,2051,2095,2094,2037,2061,2114
2070,2072,2048,2086,2020,2048,2065,2121
2073,2058,2033,2062,1952,2033,2058,2122
2067,2040,2019,2046,1953,2015,2038,2108
2044,2027,2017,2042,1960,2006,2034,2094
2043,2041,2034,2061,2002,2009,2043,2092
2037,2041,2035,2066,2028,2000,2052,2087
2046,2053,2044,2071,2038,2004,2056,2099
2050,2064,2056,2076,2022,1997,2060,2096
2047,2055,2054,2055,1986,1987,2053,2083
2044,2054,2046,2033,1956,1991,2060,2074
2045,2048,2040,2032,1974,2023,2068,2069
2046,2054,2046,2044,2040,2067,2069,2055
2039,2052,2042,2043,2061,2081,2088,2053
2042,2049,2038,2034,2041,2094,2091,2050
2047,2047,2031,2035,2037,2091,2096,2043
2044,2050,2028,2047,2034,2085,2075,2046
2056,2047,2030,2051,2027,2077,2064,2041
2055,2048,2029,2049,2012,2066,2040,2028
2056,2045,2037,2055,2012,2060,2041,2018
2046,2036,2036,2052,2009,2055,2032,2009
2042,2036,2038,2049,2014,2051,2040,2013
2045,2050,2058,2063,2040,2051,2046,2018
2047,2061,2073,2075,2052,2069,2065,2028
2050,2060,2080,2075,2046,2081,2062,2032
2048,2057,2085,2080,2043,2084,2057,2032
2048,2049,2072,2074,2041,2070,2064,2038
2059,2048,2063,2072,2055,2022,2073,2058
2067,2048,2060,2069,2055,2001,2066,2062
2067,2047,2061,2059,2052,2010,2060,2062
2050,2045,2047,2051,2035,2024,2052,2053
2036,2032,2037,2044,2021,2046,2052,2060
2031,2036,2038,2035,2016,2059,2063,2070
2045,2050,2041,2039,2032,2068,2065,2094
2064,2074,2048,2051,2042,2048,2056,2113
2075,2070,2044,2045,2044,2005,2049,2122
2072,2052,2023,2030,2040,1984,2021,2116
2056,2050,2025,2029,2050,1998,2006,2106
2051,2051,2024,2024,2062,2032,2025,2088
2041,2054,2034,2026,2067,2077,2043,2090
2059,2052,2025,2032,2063,2083,2038,2081
2047,2046,2019,2025,2033,2062,2025,2066
2045,2042,2019,2009,1942,2030,2016,2070
2050,2039,2026,2009,1926,2013,2026,2068
2059,2054,2035,2043,1989,2001,2046,2068
2060,2055,2042,2056,2020,2011,2047,2059
2052,2056,2044,2053,2013,2024,2060,2056
2055,2056,2046,2058,2035,2053,2058,2056
2060,2057,2045,2055,2076,2072,2061,2046
2064,2058,2039,2063,2092,2074,2061,2042
2065,2053,2041,2059,2096,2061,2047,2038
2057,2048,2043,2062,2107,2056,2041,2035
2054,2049,2040,2064,2121,2047,2063,2029
2043,2044,2036,2062,2110,2031,2047,2032
2036,2046,2036,2057,2052,2011,2052,2033
2050,2053,2036,2058,2020,2006,2049,2032
2050,2051,2036,2032,1923,1990,2047,2025
2034,2035,2019,1993,1907,1988,2041,2021
2034,2034,2020,2026,1977,2019,2043,2034
2044,2041,2034,2066,2038,2057,2070,2041
2051,2048,2036,2074,2039,2065,2070,2038
2050,2044,2027,2077,2057,2060,2060,2051
2047,2037,2014,2080,2068,2054,2063,2055
2041,2032,2003,2079,2051,2027,2054,2064
2036,2024,2003,2068,2026,2017,2042,2071
2042,2026,2011,2065,2026,2025,2036,2081
2051,2033,2021,2069,2047,2015,2054,2088
2044,2030,2013,2062,2060,2014,2033,2088
2033,2009,2000,2033,2003,2018,2024,2072
2020,2004,2002,2017,2006,2053,2041,2087
2015,2012,2016,2023,2003,2076,2037,2086
2023,2030,2044,2047,1950,2078,2043,2091
2040,2036,2058,2066,1959,2065,2033,2094
2051,2045,2079,2083,1996,2061,2041,2087
2055,2045,2082,2091,2009,2060,2061,2074
2050,2051,2095,2096,2020,2057,2020,2071
2052,2057,2100,2087,2018,2046,2006,2056
2052,2055,2094,2077,2021,2015,2001,2059
2053,2065,2110,2089,2041,2018,2009,2047
2050,2069,2104,2092,2036,2018,2024,2044
2047,2069,2086,2072,2027,2034,2011,2032
2049,2067,2067,2068,2042,2059,2024,2034
2050,2064,2063,2059,2037,2063,2009,2025
2047,2064,2052,2049,2034,2052,2025,2027
2042,2052,2040,2044,2027,2044,2012,2015
2032,2042,2031,2027,2011,2037,2016,2016
2034,2033,2024,2007,2009,2040,2014,2016
2037,2041,2027,2017,2021,2037,2015,2024
2046,2050,2032,2019,2023,2042,2049,2035
2056,2053,2026,2009,2026,2048,2051,2049
2058,2055,2019,2003,2023,2053,2059,2052
2066,2055,2018,2015,2027,2058,2069,2062
2063,2061,2030,2027,2030,2056,2064,2063
2069,2066,2047,2036,2042,2069,2080,2070
2081,2074,2050,2047,2044,2083,2081,2077
2080,2073,2046,2050,2027,2066,2051,2078
2058,2055,2036,2038,2009,2043,2053,2066
2030,2038,2036,2029,1985,2033,2052,2065
2048,2041,2037,2026,1972,1992,2041,2085
2054,2042,2045,2042,1991,1956,2047,2104
2047,2046,2062,2053,2032,1996,2062,2101
2051,2055,2071,2054,2052,2047,2045,2100
2054,2056,2071,2067,2073,2072,2043,2107
2057,2053,2071,2076,2060,2062,2055,2104
2050,2061,2071,2083,2037,2023,2041,2106
2054,2057,2065,2079,2053,1975,2040,2104
2050,2048,2040,2067,2059,1994,2035,2092
2044,2038,2034,2056,2144,2031,2048,2080
2049,2046,2041,2071,2205,2066,2054,2074
2056,2056,2045,2070,2187,2095,2059,2074
2061,2051,2044,2075,2192,2143,2065,2066
2068,2058,2049,2079,2196,2169,2096,2056
2070,2054,2046,2072,2195,2188,2096,2047
2057,2045,2035,2065,2159,2212,2106,2055
2050,2049,2015,2056,2086,2207,2085,2048
2046,2046,2002,2041,1966,2144,2070,2026
2044,2037,1988,2022,1861,2032,2035,2012
2037,2036,1984,2016,1867,1955,2026,1994
2028,2017,1981,2016,1893,1946,2032,1995
2017,2005,1977,2006,1943,1979,2023,2004
2014,2006,1981,1993,1984,2015,2028,2013
2024,2006,1980,1987,1983,2026,2035,2002
2014,1997,1981,1977,1995,2014,2036,2013
2028,2006,1990,1989,1992,2027,2037,2026
2029,2014,2010,1993,2000,2042,2057,2034
2035,2026,2013,2004,1996,2043,2051,2031
2036,2028,2035,2011,1985,2038,2044,2029
2042,2038,2054,2034,1991,2038,2056,2035
2039,2044,2061,2034,2005,2041,2066,2047
2040,2043,2070,2044,2014,2047,2062,2071
2053,2055,2079,2050,2011,2048,2061,2086
2061,2058,2083,2051,2013,2037,2048,2092
2066,2068,2097,2051,2025,2046,2031,2101
2069,2061,2098,2068,2050,2056,2029,2105
2075,2068,2081,2054,2010,2040,2034,2101
2066,2040,2050,2049,1983,2030,2029,2108
2059,2029,2034,2051,1979,2030,2040,2112
2056,2031,2032,2056,1962,2037,2039,2098
2067,2047,2044,2052,1962,2039,2027,2093
2066,2061,2051,2046,1987,2034,2047,2090
2058,2067,2051,2053,2011,2035,2051,2083
2047,2072,2063,2069,2064,2055,2054,2079
2059,2080,2074,2069,2081,2056,2044,2067
2065,2074,2074,2067,2059,2054,2032,2062
2059,2061,2065,2049,2026,2039,2033,2048
2050,2039,2038,2033,2034,2024,2019,2038
2048,2021,2029,2033,2033,2033,2021,2033
2047,2028,2044,2063,2068,2051,2040,2022
2033,2036,2056,2087,2102,2055,2037,2020
2039,2030,2055,2090,2087,2054,2061,2031
2062,2031,2051,2078,2065,2044,2047,2033
2072,2025,2040,2061,2045,2038,2049,2031
2073,2023,2038,2039,2031,2035,2057,2025
2082,2034,2045,2023,2028,2037,2034,2029
2074,2020,2028,2016,2010,2034,2009,2016
2067,2006,2015,2007,2008,2037,2020,2005
2050,2007,2011,2011,2021,2041,2022,2024
2028,2020,2022,2034,2027,2042,2040,2035
2029,2054,2049,2039,2031,2054,2050,2054
2049,2089,2066,2035,2020,2048,2051,2046
2049,2082,2054,2018,1995,2032,2052,2065
2050,2066,2033,2004,2011,2032,2057,2080
2056,2057,2030,1996,2026,2033,2059,2098
2061,2066,2028,2012,2039,2039,2049,2100
2056,2065,2039,2029,2043,2042,2027,2103
2063,2066,2053,2033,2019,2072,2060,2098
2061,2068,2057,2033,2020,2084,2081,2103
2053,2055,2052,2023,2027,2075,2049,2094
2049,2064,2053,2025,2020,2058,2056,2100
2056,2074,2072,2032,2025,2036,2054,2110
2061,2078,2075,2059,2018,1984,2054,2114
2071,2081,2081,2054,2007,1976,2049,2105
2066,2070,2070,2044,1977,1977,2046,2090
2060,2064,2059,2009,1912,1967,2024,2072
2065,2055,2052,1982,1862,1966,2029,2059
2050,2047,2049,1978,1883,1980,2040,2051
2041,2048,2065,2011,1965,2027,2057,2052
2050,2052,2097,2078,2113,2072,2068,2050
2055,2058,2093,2076,2118,2068,2052,2037
2053,2040,2081,2055,2084,2056,2035,2022
2051,2042,2065,2041,2069,2049,2044,2016
2049,2040,2050,2046,2097,2054,2038,2019
2046,2026,2029,2049,2131,2056,2040,2016
2042,2026,2024,2049,2139,2056,2077,2018
2047,2032,2033,2062,2127,2067,2087,2023
2047,2038,2045,2076,2125,2070,2086,2016
2046,2037,2040,2078,2128,2059,2077,2009
2034,2027,2031,2069,2116,2052,2049,2019
2045,2044,2041,2073,2107,2058,2054,2022
2047,2052,2056,2071,2058,2045,2048,2022
2050,2039,2034,2023,1926,2033,2038,2027
2037,2016,2013,2024,1956,2040,2058,2031
2042,2029,2026,2045,2009,2056,2069,2049
2055,2048,2045,2058,2045,2057,2077,2064
2064,2054,2047,2053,2052,2064,2079,2074
2054,2044,2045,2043,2021,2062,2075,2096
2056,2040,2039,2039,2021,2056,2074,2098
2061,2038,2030,2041,2024,2049,2072,2108
2066,2046,2036,2057,2036,2053,2085,2127
2080,2049,2035,2067,2038,2048,2064,2106
2067,2028,2018,2058,2037,2047,2060,2092
2054,2004,2004,2042,2030,2043,2040,2092
2050,1998,2000,2044,2031,2042,2050,2084
2046,2007,2020,2067,2058,2066,2063,2083
2055,2036,2052,2110,2087,2080,2067,2079
2067,2063,2071,2121,2099,2068,2058,2073
2034,2048,2062,2123,2084,2056,2047,2050
2016,2028,2044,2104,2080,2061,2049,2052
2040,2028,2028,2075,2058,2079,2053,2049
2040,2022,2004,2026,2001,2093,2033,2027
2034,1999,1987,1969,1905,2077,2004,2015
2023,1997,1985,1957,1838,2034,2000,1997
2028,2012,2002,1969,1833,2014,1992,1993
2023,2012,1995,1971,1856,1980,2007,2001
2039,2014,1996,1992,1955,1957,2037,2021
2051,2030,2011,2045,2099,1989,2060,2029
2056,2035,2004,2040,2151,2056,2064,2020
2042,2012,1983,2019,2130,2089,2077,2022
2046,2013,1969,1993,2088,2088,2065,2021
2045,2015,1972,1996,2042,2065,2058,2023
2043,2027,2011,2008,2011,2056,2051,2030
2047,2038,2053,2020,2014,2051,2048,2039
2042,2055,2082,2036,2030,2057,2054,2054
2059,2067,2101,2056,2046,2060,2060,2066
2069,2074,2111,2078,2062,2059,2075,2071
2066,2075,2101,2083,2074,2055,2055,2082
2061,2071,2099,2094,2078,2055,2074,2089
2058,2073,2105,2096,2072,2056,2075,2097
2069,2073,2107,2086,2057,2046,2055,2107
2067,2065,2089,2080,2044,2044,2056,2107
2060,2062,2064,2074,2044,2040,2030,2108
2054,2055,2038,2068,2024,2027,2033,2077
2031,2034,2021,2052,2010,2015,2002,2074
2046,2029,2016,2036,1996,2022,2028,2085
2043,2042,2020,2022,1984,2019,2035,2087
2047,2044,2028,2008,1970,2021,2032,2100
2048,2046,2022,1991,1972,2022,2050,2099
2064,2068,2024,2000,1983,2045,2032,2093
2077,2073,2025,2007,2019,2068,2016,2085
2072,2069,2018,2020,2045,2076,2019,2070
2059,2048,2006,2025,2042,2076,2019,2053
2042,2040,2016,2024,2024,2051,2033,2030
2032,2033,2012,2016,2026,2004,2033,2033
2043,2021,2018,2026,2052,2005,2045,2042
2041,2031,2035,2033,2080,2032,2025,2039
2038,2044,2048,2032,2099,2045,2048,2031
2044,2044,2071,2032,2099,2064,2065,2034
2058,2068,2107,2039,2088,2064,2053,2033
2058,2060,2113,2037,2090,2058,2059,2033
2056,2053,2105,2035,2091,2058,2067,2048
2061,2062,2103,2037,2100,2066,2064,2043
2060,2051,2078,2031,2079,2064,2058,2042
2061,2041,2073,2027,2047,2054,2067,2047
2064,2041,2058,2015,1961,2043,2051,2047
2058,2043,2054,2013,1980,2045,2042,2043
2052,2036,2052,2030,2026,2075,2025,2038
2035,2020,2040,2037,2017,2085,2034,2045
2042,2011,2042,2038,2010,2089,2030,2047
2039,2033,2055,2047,1995,2099,2026,2059
2045,2048,2069,2049,1983,2084,2029,2069
2042,2053,2063,2047,1984,2037,2027,2080
2030,2046,2061,2045,1970,2004,2028,2092
2030,2049,2068,2031,1969,1987,2023,2094
2044,2047,2063,2023,1967,1963,2032,2100
2050,2039,2062,2035,1981,1968,2027,2101
2064,2046,2081,2060,2017,2020,2061,2118
2078,2066,2088,2086,2086,2087,2067,2112
2081,2064,2087,2090,2108,2092,2050,2103
2067,2061,2078,2069,2037,2054,2073,2091
2059,2060,2065,2055,1996,2037,2083,2082
2066,2057,2058,2044,1988,2031,2058,2074
2059,2049,2050,2039,2014,2038,2048,2055
2047,2041,2050,2039,2043,2049,2054,2060
2051,2045,2051,2041,2075,2067,2070,2059
2063,2048,2049,2047,2055,2067,2059,2059
2068,2046,2047,2056,2032,2052,2034,2046
2065,2044,2050,2055,2033,2033,2039,2042
2056,2040,2047,2062,2022,2029,2040,2028
2048,2029,2049,2065,2015,2040,2038,2021
2063,2036,2044,2061,2008,2033,2050,2026
2072,2027,2023,2049,1993,2028,2041,2027
2066,2032,2020,2048,2021,2034,2047,2040
2088,2049,2024,2052,2029,2049,2046,2033
2074,2026,1985,2027,2033,2050,2021,2020
2052,2006,1957,2013,2068,2066,2017,2009
2036,2004,1945,2022,2062,2079,2041,2001
2005,2009,1949,2026,2057,2083,2046,2026
2024,2019,1954,2037,2068,2093,2058,2041
2045,2032,1976,2053,2084,2102,2038,2052
2056,2046,1988,2063,2102,2092,2052,2072
2066,2054,1994,2056,2098,2088,2056,2085
2067,2064,2004,2043,2075,2056,2051,2083
2061,2056,2020,2034,2068,2045,2041,2084
2057,2060,2046,2045,2075,2025,2037,2088
2053,2053,2064,2062,2069,2004,2045,2091
2054,2043,2072,2067,2057,1998,2028,2092
2051,2050,2073,2070,2052,1985,2032,2080
2044,2037,2062,2051,2048,1996,2017,2080
2034,2032,2066,2058,2050,2018,2020,2078
2048,2046,2091,2071,2053,2010,2034,2086
2048,2040,2103,2072,2052,2004,2010,2086
2056,2055,2123,2081,2050,2001,2000,2082
2063,2078,2144,2090,2055,2008,2031,2072
2064,2080,2124,2069,2055,2012,2037,2054
2052,2072,2103,2053,2029,2012,2048,2050
2057,2077,2100,2039,1980,2013,2035,2043
2054,2065,2079,2005,1928,2007,2038,2023
2042,2057,2058,1972,1935,2017,2026,2021
2043,2057,2057,1984,1998,2049,2063,2024
2047,2059,2076,2023,2049,2083,2062,2024
2043,2041,2062,2030,2072,2095,2070,2022
2046,2039,2057,2038,2075,2117,2072,2027
2052,2047,2059,2047,2062,2093,2051,2018
2041,2032,2051,2050,2035,2073,2054,2006
2042,2034,2051,2053,2036,2079,2063,2017
2052,2049,2055,2059,2063,2090,2066,2022
2056,2060,2057,2059,2093,2095,2065,2028
2057,2054,2047,2053,2094,2094,2075,2013
2039,2040,2040,2061,2093,2092,2083,2023
2045,2046,2042,2073,2108,2097,2090,2030
2053,2051,2050,2068,2116,2089,2074,2036
2064,2056,2056,2059,2116,2075,2070,2041
2057,2057,2054,2065,2112,2076,2069,2054
2056,2056,2054,2060,2085,2066,2066,2064
2052,2057,2059,2065,2066,2049,2078,2067
2048,2052,2067,2081,2066,2053,2064,2076
2052,2046,2060,2075,2042,2046,2054,2077
2046,2034,2050,2071,2045,2042,2057,2066
2038,2029,2043,2086,2052,2042,2041,2067
2031,2018,2035,2082,2046,2044,2031,2081
2039,2023,2037,2091,2049,2060,2046,2097
2049,2028,2031,2090,2036,2046,2052,2097
2049,2012,2022,2072,2016,2022,2056,2072
2031,1998,2015,2049,2007,2018,2049,2055
2038,2007,2013,2023,2002,2019,2050,2063
2056,2011,2006,2009,1994,2024,2040,2052
2051,2018,1999,1997,2001,2028,2046,2034
2038,2005,1992,1997,2005,2027,2035,2024
2050,2015,2002,2014,2025,2040,2045,2026
2056,2036,2029,2032,2036,2035,2034,2024
2067,2055,2041,2038,2036,2041,2038,2030
2063,2059,2035,2025,2031,2024,2033,2022
2062,2055,2030,2011,2017,2031,2040,2021
2074,2052,2026,2012,2015,2029,2017,2003
2055,2042,2011,2008,2010,2029,2016,2011
2048,2038,2013,2004,2015,2026,2036,2012
2044,2041,2026,2018,2029,2040,2027,2002
2036,2063,2041,2027,2035,2047,2042,2004
2048,2059,2043,2033,2041,2057,2048,2013
2050,2053,2039,2029,2044,2068,2064,2020
2041,2055,2051,2042,2046,2070,2058,2022
2040,2051,2059,2047,2047,2066,2052,2029
2036,2051,2060,2052,2036,2056,2040,2027
2035,2041,2067,2052,2040,2050,2037,2030
2042,2047,2070,2061,2048,2058,2035,2051
2055,2051,2068,2063,2050,2060,2034,2062
2056,2048,2066,2068,2049,2063,2042,2067
2046,2044,2064,2055,2040,2049,2039,2069
2036,2046,2072,2061,2041,2046,2011,2084
2043,2047,2082,2059,2035,2043,2022,2072
2041,2042,2083,2063,2032,2042,2028,2070
2037,2038,2070,2059,2028,2038,2033,2078
2039,2044,2071,2060,2024,2038,2035,2084
2047,2052,2071,2057,2019,2046,2070,2081
2043,2050,2059,2070,2016,2056,2064,2078
2038,2043,2055,2081,2030,2064,2078,2075
2043,2056,2062,2094,2032,2046,2051,2061
2045,2046,2063,2102,2031,2044,2024,2055
2037,2051,2064,2095,2017,2068,2054,2043
2044,2050,2056,2077,2009,2086,2072,2044
2058,2044,2044,2053,2001,2088,2053,2041
2068,2048,2046,2034,1988,2075,2048,2027
2059,2050,2047,2010,2003,2042,2056,2024
2058,2062,2055,2022,2051,2056,2064,2010
2048,2059,2049,2015,2051,2087,2061,1997
2032,2057,2053,2013,2036,2086,2064,1996
2040,2056,2050,2020,2032,2061,2037,2006
2049,2044,2043,2028,2124,2035,2032,2023
2059,2042,2037,2045,2206,2009,2062,2033
2060,2050,2036,2048,2232,2002,2044,2029
2049,2044,2033,2052,2237,2027,2050,2028
2062,2054,2040,2058,2239,2064,2069,2026
2049,2042,2030,2050,2161,2095,2069,2018
2049,2047,2038,2042,2082,2114,2064,2022
2048,2049,2043,2045,2048,2097,2043,2026
2049,2041,2030,2040,1980,2063,2053,2029
2042,2032,2027,2016,1793,1995,2042,2036
2038,2039,2042,2031,1813,1979,2031,2051
2050,2052,2054,2061,1916,1985,2038,2078
2058,2052,2060,2061,1971,2003,2041,2089
2067,2058,2064,2062,1993,2016,2050,2079
2064,2050,2056,2056,2000,2024,2041,2080
2058,2044,2064,2070,2011,2019,2033,2077
2049,2038,2066,2071,2005,2019,2024,2074
2052,2039,2063,2082,2043,2036,2048,2084
2058,2052,2057,2095,2059,2043,2064,2078
2038,2045,2045,2088,2072,2051,2056,2072
2031,2047,2038,2084,2090,2066,2066,2071
2036,2054,2037,2079,2058,2071,2062,2059
2041,2063,2026,2068,2046,2063,2050,2049
2040,2040,2008,2050,2052,2057,2036,2043
2034,2033,1988,2031,2031,2055,2036,2030
2040,2031,2006,2026,2031,2052,2018,2031
2038,2037,2030,2020,2023,2062,2017,2028
2051,2044,2036,2015,2012,2062,2022,2027
2054,2036,2028,2002,2015,2060,2027,2021
2054,2035,2040,2002,2008,2070,2031,2019
2049,2039,2049,1992,2006,2069,2024,2016
2048,2042,2041,1983,2018,2076,2026,2016
2051,2039,2040,1991,2005,2071,2041,2020
2040,2040,2042,2000,1998,2035,2048,2032
2052,2060,2066,2016,1992,1984,2057,2040
2061,2074,2064,2016,1988,1996,2047,2035
2049,2068,2061,2025,2045,2029,2049,2031
2046,2061,2064,2047,2104,2063,2052,2024
2048,2064,2064,2057,2097,2059,2044,2032
2054,2055,2064,2054,2069,2044,2054,2040
2054,2059,2061,2046,2066,2043,2051,2052
2058,2052,2052,2044,2084,2048,2056,2054
2057,2054,2041,2049,2098,2053,2061,2057
2053,2054,2036,2053,2090,2050,2056,2058
2046,2054,2025,2039,2066,2068,2032,2060
2043,2050,2026,2031,2021,2076,2031,2074
2050,2055,2019,2025,1980,2064,2025,2072
2046,2060,2015,2025,1951,2053,2028,2078
2043,2039,2006,2014,1944,2017,2036,2084
2045,2043,2020,2048,2018,1999,2052,2108
2063,2062,2046,2072,2086,2037,2063,2110
2068,2066,2061,2077,2089,2064,2074,2108
2084,2082,2067,2080,2077,2073,2060,2101
2080,2069,2056,2064,2047,2058,2049,2080
2080,2059,2059,2043,2037,2041,2037,2066
2074,2062,2073,2049,2043,2045,2061,2047
2072,2064,2090,2066,2049,2054,2066,2035
2057,2056,2099,2059,2056,2049,2059,2028
2027,2046,2084,2058,2060,2050,2063,2027
2027,2057,2084,2066,2072,2061,2051,2039
2050,2068,2073,2054,2047,2074,2048,2024
2060,2057,2055,2045,2045,2077,2035,2014
2062,2047,2028,2024,2022,2056,2026,2005
2048,2041,2014,2008,1983,2021,2036,2004
2036,2037,2016,2013,1984,1994,2039,2003
2044,2045,2036,2043,2046,2004,2064,2020
2050,2061,2048,2049,2092,2031,2060,2023
2054,2058,2039,2046,2110,2059,2081,2021
2054,2066,2048,2046,2105,2079,2090,2024
2061,2064,2047,2035,2084,2079,2062,2025
2059,2064,2042,2037,2068,2069,2037,2028
2060,2062,2037,2032,2061,2061,2059,2041
2056,2057,2039,2032,2060,2060,2059,2044
2060,2062,2044,2041,2073,2066,2060,2052
2058,2058,2058,2049,2073,2063,2065,2056
2046,2051,2058,2047,2061,2056,2065,2068
2049,2062,2058,2045,2044,2046,2051,2073
2051,2055,2061,2048,2035,2052,2049,2087
2049,2054,2062,2059,2076,2047,2049,2080
2043,2053,2053,2062,2097,2059,2034,2078
2042,2050,2037,2057,2093,2068,2060,2088
2040,2033,2026,2047,2082,2076,2062,2093
2037,2030,2041,2045,2073,2055,2055,2086
2041,2044,2061,2055,2073,2057,2058,2073
2053,2067,2074,2067,2090,2075,2048,2061
2059,2065,2080,2079,2104,2086,2059,2054
2049,2058,2071,2069,2110,2079,2056,2052
2040,2048,2059,2063,2096,2074,2061,2041
2039,2052,2060,2046,2006,2059,2056,2037
2039,2049,2055,2033,1940,2043,2050,2027
2040,2040,2048,2033,1965,2062,2058,2019
2046,2045,2059,2045,2002,2084,2075,2021
2049,2056,2076,2069,2024,2092,2068,2009
2047,2042,2070,2069,2033,2076,2052,1999
2050,2039,2071,2069,2033,2021,2057,1990
2042,2042,2072,2077,2034,2000,2061,1977
2036,2039,2080,2076,2037,2005,2043,1992
2047,2043,2081,2070,2049,2026,2059,2003
2062,2044,2060,2060,2043,2035,2039,2004
2046,2032,2019,2045,2027,2035,2022,1996
2033,2014,2003,2027,2023,2037,2026,1992
2026,2015,2003,2021,2025,2036,2045,1994
2014,2022,2016,2029,2028,2045,2050,2014
2029,2031,2011,2026,2030,2038,2064,2023
2027,2035,2016,2022,2028,2029,2047,2028
2039,2050,2036,2035,2044,2033,2034,2042
2047,2082,2076,2056,2047,2039,2034,2058
2060,2089,2088,2048,2053,2038,2046,2068
2053,2078,2095,2046,2046,2045,2051,2068
2058,2084,2100,2046,2044,2046,2054,2071
2056,2072,2100,2043,2043,2049,2052,2079
2052,2069,2094,2045,2041,2045,2057,2083
2042,2058,2077,2028,2032,2039,2040,2087
2041,2047,2064,2026,2033,2037,2052,2087
2040,2051,2061,2026,2044,2041,2061,2086
2042,2051,2054,2027,2048,2041,2045,2088
2043,2040,2051,2027,2049,2053,2042,2085
2051,2037,2040,2024,2042,2050,2033,2070
2033,2033,2029,2012,2021,2029,2037,2039
2040,2021,2021,2002,1986,2009,2046,2029
2022,2015,2020,2007,1978,2004,2034,2028
2029,2037,2048,2024,1987,2021,2056,2037
2043,2062,2061,2040,2010,2043,2063,2035
2053,2071,2064,2052,2044,2057,2072,2040
2059,2070,2062,2065,2082,2069,2059,2051
2073,2084,2072,2060,2069,2068,2049,2041
2072,2073,2064,2057,2064,2064,2058,2024
2057,2059,2065,2056,2058,2053,2053,2012
2053,2050,2062,2050,2042,2043,2050,2009
2062,2054,2048,2042,2041,2035,2067,2008
2052,2044,2042,2040,2061,2030,2029,2012
2037,2041,2044,2044,2069,2028,2041,2010
2024,2047,2050,2048,2065,2037,2043,2016
2023,2056,2058,2051,2064,2036,2050,2024
2039,2063,2069,2056,2058,2045,2060,2041
2060,2068,2069,2053,2046,2056,2056,2041
2052,2061,2061,2049,2049,2056,2062,2036
2047,2054,2062,2060,2064,2064,2058,2047
2044,2050,2057,2060,2066,2063,2061,2056
2045,2051,2056,2052,2061,2058,2061,2068
2042,2047,2052,2055,2050,2049,2062,2078
2046,2051,2060,2054,2038,2056,2076,2089
2052,2053,2057,2057,2029,2055,2062,2090
2049,2047,2054,2047,2021,2046,2055,2088
2038,2043,2041,2035,2011,2044,2054,2094
2042,2049,2045,2043,2048,2056,2063,2101
2053,2079,2070,2062,2128,2076,2073,2091
2053,2064,2058,2052,2114,2059,2058,2075
2044,2047,2033,2022,2047,2036,2047,2082
2038,2030,2019,2011,2050,2064,2053,2093
2053,2056,2039,2027,2119,2093,2074,2099
2070,2064,2047,2029,2152,2083,2070,2072
2063,2046,2034,2024,2133,2061,2052,2050
2043,2044,2031,2022,2110,2068,2048,2027
2036,2039,2034,2055,2129,2107,2057,2024
2043,2032,2047,2067,2125,2138,2076,2030
2033,2033,2051,2067,2078,2116,2066,2027
2042,2028,2038,2036,2012,2050,2065,2015
2050,2036,2035,2028,1975,1980,2040,2027
2053,2050,2037,2033,1915,1918,2056,2027
2055,2035,2034,2022,1894,1929,2062,2007
2049,2022,2029,2012,1894,1974,2063,2010
2037,2029,2037,2025,1903,2016,2077,2011
2033,2043,2034,2047,1997,2041,2038,2008
2024,2039,2022,2051,2047,2059,2068,2019
2022,2034,2012,2040,2093,2050,2063,2020
2014,2022,1995,2028,2115,2043,2051,2020
2024,2021,1998,2007,2093,2040,2066,2020
2042,2031,2004,2012,2074,2048,2067,2047
2061,2043,2025,2016,2071,2047,2040,2064
2066,2051,2033,2012,2063,2044,2047,2073
2092,2059,2042,2012,2068,2043,2023,2085
2105,2063,2036,2010,2067,2052,2034,2101
2100,2051,2031,2004,2050,2050,2046,2100
2098,2031,2026,1998,2036,2047,2030,2071
2054,2016,2018,1999,2020,2031,2013,2036
2025,2015,2021,2003,2016,2021,2011,2037
2002,2016,2032,2009,2010,2031,2042,2069
2005,2036,2060,2036,2035,2051,2057,2083
2017,2058,2081,2058,2043,2058,2049,2084
2028,2072,2089,2066,2047,2059,2064,2080
2050,2077,2074,2075,2045,2053,2040,2074
2048,2071,2058,2077,2048,2052,2054,2062
2041,2058,2054,2079,2044,2047,2030,2049
2039,2044,2049,2071,2032,2045,2022,2032
2031,2040,2047,2064,2036,2039,2054,2026
2033,2045,2054,2059,2040,2050,2042,2032
2045,2046,2050,2059,2044,2051,2050,2036
2046,2046,2049,2055,2036,2041,2047,2019
2048,2036,2043,2054,2036,2035,2030,2010
2045,2047,2064,2054,2036,2033,2051,2012
2043,2068,2092,2068,2040,2040,2049,2013
2049,2077,2111,2073,2050,2041,2052,2014
2043,2076,2117,2075,2044,2042,2047,2008
2044,2074,2112,2078,2054,2053,2050,2016
2058,2080,2110,2085,2053,2047,2070,2016
2052,2076,2106,2085,2054,2042,2062,2016
2047,2067,2093,2077,2047,2048,2057,2028
2047,2058,2075,2066,2052,2052,2075,2029
2043,2056,2060,2056,2051,2050,2061,2036
2047,2058,2047,2057,2054,2049,2073,2041
2052,2056,2041,2058,2054,2052,2068,2049
2052,2058,2039,2052,2060,2053,2062,2059
2052,2061,2035,2048,2054,2056,2060,2067
2058,2061,2034,2044,2054,2055,2067,2076
2050,2056,2027,2043,2048,2052,2060,2077
2048,2050,2027,2032,2045,2043,2051,2075
2051,2043,2021,2017,2040,2045,2043,2084
2050,2045,2015,2016,2044,2047,2058,2084
2041,2028,2015,2006,2034,2042,2068,2087
2038,2032,2019,2014,2034,2045,2067,2098
2053,2041,2028,2022,2038,2053,2079,2088
2054,2049,2022,2023,2043,2053,2063,2086
2057,2037,2000,2026,2041,2045,2036,2063
2036,2024,1988,2041,2032,2042,2034,2054
2035,2020,1997,2064,2050,2052,2050,2058
2043,2039,2010,2085,2059,2053,2059,2055
2054,2051,2020,2100,2062,2061,2040,2052
2054,2054,2020,2101,2071,2060,2037,2041
2054,2049,2021,2099,2076,2055,2058,2028
2050,2033,2008,2087,2070,2058,2063,2026
2039,2032,2009,2086,2059,2061,2074,2027
2032,2035,2018,2092,2065,2052,2079,2024
2030,2040,2025,2084,2064,2050,2057,2018
2024,2037,2032,2074,2059,2047,2068,2015
2039,2039,2049,2052,2047,2034,2047,2017
2041,2043,2055,2032,2025,2027,2058,2033
