CH1,CH2,CH3,CH4,CH5,CH6,CH7,CH8
2046,2064,2078,2100,2174,2076,2023,2043
2058,2072,2084,2097,2180,2076,2036,2043
2057,2073,2074,2080,2136,2066,2028,2036
2056,2064,2067,2058,2066,2070,2034,2031
2046,2063,2059,2057,2026,2081,2040,2034
2058,2067,2059,2054,2008,2062,2044,2030
2058,2060,2054,2028,1974,2015,2029,2028
2052,2056,2057,2029,1992,1972,2016,2027
2055,2067,2083,2052,2015,1989,2036,2042
2061,2072,2095,2074,2031,2004,2044,2031
2060,2064,2077,2078,2037,2017,2047,2027
2054,2057,2065,2057,2060,2037,2031,2035
2062,2056,2061,2051,2009,2063,2060,2039
2064,2061,2056,2014,1894,2059,2061,2022
2044,2051,2057,1984,1917,2053,2063,2014
2036,2050,2069,1989,1948,2048,2043,2031
2047,2053,2067,1998,1891,2039,2040,2036
2053,2056,2068,1985,1841,1996,1996,2027
2045,2048,2065,1974,1834,1921,1989,2025
2033,2035,2054,1957,1880,1940,2004,2019
2018,2035,2051,2015,2067,1997,2008,2041
2033,2052,2072,2100,2243,2017,2051,2070
2057,2065,2086,2153,2302,2041,2086,2083
2069,2066,2081,2152,2254,2063,2080,2088
2064,2070,2074,2132,2165,2065,2069,2082
2060,2062,2077,2094,1992,2035,2053,2081
2052,2058,2064,2080,1966,2021,2058,2077
2047,2052,2063,2065,1995,2030,2048,2083
2045,2059,2060,2041,2005,2051,2060,2081
2041,2049,2051,2018,2032,2057,2055,2071
2042,2046,2051,2014,2060,2056,2044,2059
2042,2042,2050,2037,2097,2054,2048,2054
2038,2045,2051,2054,2125,2055,2048,2048
2030,2041,2043,2046,2088,2050,2044,2038
2032,2037,2051,2045,2077,2049,2054,2033
2031,2048,2050,2060,2066,2047,2058,2037
2044,2046,2046,2054,2075,2058,2054,2036
2042,2043,2042,2054,2071,2058,2034,2030
2043,2036,2040,2045,2062,2050,2032,2028
2038,2033,2036,2046,2053,2050,2057,2025
2037,2039,2041,2047,2054,2044,2054,2026
2050,2052,2047,2054,2055,2051,2068,2024
2051,2053,2049,2053,2052,2048,2045,2021
2041,2037,2040,2046,2050,2043,2056,2017
2037,2032,2038,2051,2054,2047,2052,2022
2043,2043,2050,2057,2060,2058,2056,2021
2045,2049,2057,2056,2064,2060,2056,2025
2048,2049,2058,2057,2061,2056,2044,2027
2054,2049,2054,2062,2064,2054,2042,2033
2051,2047,2054,2057,2057,2057,2055,2033
2059,2049,2059,2058,2059,2055,2048,2038
2058,2058,2060,2059,2064,2052,2029,2044
2061,2061,2060,2063,2060,2053,2051,2046
2057,2055,2056,2072,2060,2050,2037,2046
2054,2044,2044,2074,2036,2028,2038,2049
2040,2033,2044,2071,2022,2023,2046,2057
2033,2027,2037,2069,2015,2013,2043,2060
2031,2025,2036,2071,2022,2021,2040,2058
2030,2028,2034,2074,2040,2042,2051,2064
2036,2043,2040,2087,2077,2055,2058,2062
2046,2032,2037,2095,2097,2057,2043,2064
2046,2028,2039,2090,2089,2063,2051,2068
2047,2033,2038,2083,2082,2065,2056,2065
2047,2037,2042,2077,2076,2060,2051,2061
2040,2033,2045,2072,2061,2052,2033,2050
2039,2029,2045,2059,2060,2055,2028,2045
2031,2027,2044,2055,2065,2051,2032,2034
2040,2031,2047,2060,2064,2054,2041,2033
2046,2049,2066,2063,2052,2058,2049,2035
2055,2057,2071,2054,2053,2058,2055,2040
2057,2062,2069,2050,2051,2055,2064,2040
2062,2066,2070,2061,2051,2053,2056,2047
2070,2067,2065,2067,2043,2051,2049,2036
2072,2060,2059,2059,2039,2051,2050,2032
2073,2061,2052,2058,2034,2052,2054,2036
2067,2062,2042,2053,2028,2056,2062,2031
2058,2041,2034,2044,2014,2051,2020,2020
2045,2036,2021,2048,2038,2051,2026,2022
2048,2044,2031,2064,2080,2073,2052,2025
2054,2053,2040,2055,2069,2071,2053,2029
2054,2053,2050,2052,2059,2066,2030,2028
2055,2061,2056,2058,2066,2066,2056,2030
2051,2055,2076,2079,2087,2073,2064,2032
2061,2061,2086,2092,2079,2065,2039,2037
2057,2054,2086,2104,2082,2065,2052,2039
2062,2058,2082,2104,2080,2073,2044,2048
2056,2057,2076,2092,2086,2072,2045,2060
2055,2053,2073,2091,2098,2067,2064,2052
2051,2052,2069,2095,2086,2055,2049,2047
2052,2055,2075,2088,2050,2025,2054,2066
2055,2049,2071,2075,2015,2015,2046,2067
2054,2049,2074,2073,2016,2007,2032,2071
2044,2043,2077,2067,2056,2019,2032,2060
2038,2033,2059,2047,2085,2031,2029,2074
2034,2037,2050,2041,2122,2054,2044,2075
2043,2052,2054,2049,2129,2066,2023,2063
2039,2059,2050,2028,2109,2062,2043,2062
2047,2055,2025,2000,2112,2068,2057,2062
2045,2045,2009,1985,2108,2076,2051,2058
2051,2057,2031,2002,2029,2067,2057,2053
2054,2055,2045,2002,1887,2056,2055,2052
2059,2053,2043,2004,1906,2060,2075,2062
2068,2049,2037,2026,1982,2067,2081,2059
2067,2042,2027,2035,2007,2057,2065,2041
2052,2021,2013,2040,1996,2035,2055,2034
2047,2020,2019,2041,1963,2018,2061,2019
2059,2038,2038,2049,1961,2010,2034,2012
2061,2053,2051,2060,1992,2028,2027,2014
2057,2045,2052,2060,1996,2026,2053,2012
2040,2047,2055,2061,2002,2031,2048,2013
2038,2045,2068,2053,1991,2042,2053,2014
2038,2048,2066,2053,1986,2051,2061,2018
2045,2053,2072,2051,2010,2051,2054,2020
2045,2053,2071,2046,2054,2057,2043,2019
2047,2042,2053,2069,2142,2078,2058,2027
2047,2031,2032,2076,2136,2087,2055,2031
2047,2036,2015,2056,2106,2087,2055,2027
2045,2036,2020,2043,2044,2064,2071,2034
2044,2046,2030,2049,2009,2056,2072,2046
2050,2054,2041,2061,2008,2059,2058,2057
2047,2054,2043,2075,2047,2062,2052,2063
2044,2058,2056,2094,2099,2075,2049,2060
2044,2057,2059,2095,2092,2054,2038,2060
2037,2047,2057,2071,2064,2031,2049,2070
2041,2045,2064,2074,2070,2030,2048,2079
2043,2053,2072,2081,2056,2033,2041,2069
2040,2046,2075,2071,2013,2043,2042,2061
2041,2047,2081,2060,1988,2049,2032,2064
2046,2056,2091,2070,1991,2059,2050,2072
2055,2068,2094,2071,1987,2057,2033,2070
2049,2062,2067,2046,1976,2020,2038,2064
2048,2047,2061,2039,1987,2012,2039,2054
2049,2049,2068,2054,2040,2026,2056,2051
2052,2056,2082,2058,2064,2042,2054,2047
2058,2051,2076,2050,2073,2050,2062,2046
2062,2056,2074,2049,2084,2010,2023,2045
2054,2046,2053,2031,2061,2006,2028,2032
2039,2039,2025,2028,2048,2029,2047,2028
2046,2037,2024,2024,2049,2040,2047,2033
2041,2042,2024,2026,2046,2038,2044,2030
2040,2045,2020,2015,2046,2032,2046,2033
2044,2045,2028,2015,2049,2030,2051,2034
2047,2045,2036,2012,2049,2042,2050,2022
2036,2038,2029,1996,2042,2052,2042,2015
2032,2034,2026,2008,2055,2069,2041,2017
2044,2047,2043,2025,2070,2079,2068,2015
2052,2061,2056,2041,2094,2085,2064,2030
2060,2061,2054,2049,2103,2078,2057,2025
2048,2059,2047,2052,2088,2066,2040,2019
2045,2050,2037,2041,2084,2060,2033,2030
2050,2040,2032,2043,2086,2060,2044,2033
2041,2033,2034,2049,2078,2075,2055,2029
2042,2031,2034,2043,2072,2079,2060,2032
2044,2042,2043,2041,2068,2080,2035,2038
2041,2046,2042,2050,2060,2081,2039,2056
2049,2045,2040,2052,2065,2066,2037,2068
2052,2044,2040,2060,2081,2032,2044,2075
2054,2036,2023,2059,2084,2037,2077,2085
2061,2036,2021,2054,2067,2048,2053,2076
2054,2024,2012,2043,2060,2061,2055,2066
2042,2011,1987,2029,2055,2075,2049,2063
2042,2002,1970,2027,2049,2085,2040,2068
2046,2012,1968,2031,2051,2080,2051,2062
2046,2018,1971,2033,2036,2053,2042,2056
2041,2012,1959,2032,1999,2000,2030,2061
2044,2017,1970,2039,1977,1988,2032,2058
2044,2035,2012,2062,1973,1983,2024,2044
2038,2050,2033,2065,1968,1983,2009,2011
2026,2038,2024,2058,2006,2008,2005,2026
2035,2028,2025,2086,2067,2041,2041,2034
2047,2035,2030,2098,2113,2050,2064,2040
2058,2039,2031,2108,2129,2060,2060,2041
2061,2050,2037,2108,2128,2068,2040,2039
2056,2050,2031,2100,2110,2075,2043,2032
2050,2041,2036,2091,2094,2062,2029,2018
2055,2043,2061,2094,2069,2062,2052,2011
2038,2037,2076,2077,2036,2058,2029,2005
2039,2041,2086,2064,1994,2057,2031,2013
2038,2044,2083,2045,1973,2056,2039,2023
2043,2050,2067,2027,1963,2038,2025,2020
2041,2042,2063,2022,1986,2007,2025,2023
2045,2059,2076,2036,2032,2025,2047,2027
2050,2067,2089,2048,2074,2063,2040,2036
2063,2073,2087,2058,2095,2117,2070,2049
2072,2078,2098,2071,2104,2133,2084,2060
2068,2069,2095,2069,2126,2080,2068,2057
2056,2062,2087,2056,2132,2027,2066,2065
2054,2060,2082,2057,2160,2032,2059,2064
2050,2063,2081,2046,2142,2048,2069,2073
2060,2065,2080,2028,2044,2064,2061,2068
2052,2053,2075,2020,1971,2074,2045,2059
2057,2059,2074,2015,1968,2069,2048,2066
2062,2062,2075,2028,2007,2064,2042,2067
2060,2054,2063,2026,2003,2022,2043,2060
2052,2046,2066,2046,2064,1987,2058,2073
2061,2062,2081,2061,2100,2006,2060,2081
2064,2072,2080,2060,2112,2040,2059,2083
2059,2057,2070,2067,2126,2056,2057,2075
2055,2056,2076,2085,2161,2079,2064,2074
2060,2071,2099,2118,2157,2087,2077,2072
2061,2061,2092,2117,2109,2090,2066,2053
2064,2048,2068,2094,2041,2070,2053,2036
2056,2039,2055,2086,2028,2055,2060,2025
2043,2030,2049,2081,2031,2052,2023,2005
2033,2028,2040,2081,1976,2013,2025,2024
2047,2042,2033,2091,1986,1986,2049,2028
2062,2046,2030,2108,2001,2023,2028,2022
2058,2039,2007,2100,2019,2037,2030,2025
2053,2036,2008,2107,2118,2066,2042,2019
2049,2034,1999,2109,2141,2073,2051,2019
2034,2023,1981,2093,2095,2058,2053,2015
2033,2014,1967,2061,2053,2046,2054,2010
2043,2023,1975,2042,2041,2051,2047,2018
2043,2027,1977,2032,2018,2050,2046,2024
2051,2034,1977,2017,2000,2048,2048,2038
2051,2028,1977,2004,1996,2032,2037,2033
2046,2029,2001,2004,2006,2031,2060,2023
2048,2042,2036,2027,2042,2048,2046,2031
2044,2038,2050,2037,2055,2041,2048,2030
2046,2044,2060,2040,2083,2047,2051,2033
2046,2043,2064,2044,2115,2053,2054,2043
2041,2040,2067,2058,2148,2064,2049,2056
2045,2040,2073,2064,2194,2068,2072,2064
2052,2049,2090,2086,2242,2089,2073,2068
2059,2056,2094,2097,2217,2092,2078,2081
2066,2072,2098,2110,2164,2086,2067,2091
2075,2077,2090,2118,2115,2066,2045,2083
2055,2052,2055,2080,1946,2012,2036,2071
2030,2030,2035,2037,1840,1982,2047,2073
2038,2036,2039,2034,1871,1967,2032,2077
2050,2047,2051,2024,1911,1979,2034,2071
2047,2059,2049,1999,1950,1996,2035,2069
2046,2065,2051,2000,2001,2019,2039,2064
2052,2056,2045,2006,2052,2044,2044,2058
2050,2054,2042,2027,2086,2058,2060,2048
2059,2054,2041,2043,2076,2051,2050,2042
2053,2052,2055,2045,2048,2043,2046,2041
2064,2052,2069,2037,2021,2029,2045,2041
2070,2060,2073,2030,2008,2036,2043,2042
2071,2053,2058,2032,2005,2036,2042,2016
2054,2048,2044,2035,2011,2039,2043,2011
2045,2048,2048,2042,2014,2035,2056,2015
2048,2052,2050,2049,2011,2049,2072,2014
2051,2050,2039,2059,2023,2047,2053,2012
2045,2036,2031,2070,2039,2036,2057,2011
2050,2039,2054,2097,2089,2042,2055,2017
2063,2054,2067,2103,2130,2052,2067,2024
2059,2055,2077,2112,2164,2059,2069,2027
2057,2059,2082,2112,2174,2061,2063,2029
2058,2060,2086,2107,2190,2063,2065,2030
2044,2051,2062,2098,2164,2045,2064,2032
2042,2044,2046,2081,2102,2026,2059,2031
2046,2041,2038,2066,2031,2012,2057,2045
2049,2049,2031,2063,1962,2008,2056,2045
2057,2046,2024,2039,1905,2009,2039,2044
2056,2044,2017,2046,1954,2039,2051,2050
2061,2055,2027,2072,2021,2059,2056,2070
2068,2058,2027,2077,2064,2055,2070,2072
2063,2045,2016,2060,2065,2064,2073,2075
2055,2041,2008,2038,2057,2062,2080,2073
2049,2032,2013,2022,2040,2048,2047,2067
2038,2036,2027,2016,2041,2034,2051,2077
2043,2050,2050,2009,2040,2025,2054,2079
2056,2048,2056,2016,2042,2033,2066,2075
2054,2054,2066,2030,2052,2054,2074,2070
2058,2056,2082,2050,2059,2058,2074,2059
2057,2052,2075,2051,2056,2056,2032,2058
2047,2044,2051,2046,2028,2042,2010,2042
2034,2047,2047,2033,2021,2035,2023,2037
2039,2047,2058,2043,2040,2051,2037,2039
2041,2050,2077,2049,2044,2055,2066,2036
2047,2052,2078,2047,2053,2058,2060,2029
2038,2058,2067,2047,2058,2061,2060,2029
2052,2063,2062,2045,2059,2056,2039,2027
2056,2048,2050,2048,2052,2055,2050,2027
2051,2042,2043,2045,2051,2044,2029,2019
2042,2041,2037,2042,2046,2035,2020,2015
2035,2032,2013,2034,2039,2028,2033,2004
2035,2021,2001,2029,2033,2046,2053,2017
2053,2030,2008,2034,2046,2053,2053,2017
2042,2026,1996,2032,2042,2049,2034,2020
2034,2023,1992,2038,2044,2048,2038,2023
2035,2033,2010,2048,2053,2060,2038,2028
2042,2041,2033,2052,2058,2058,2046,2035
2045,2054,2041,2060,2063,2058,2042,2034
2054,2063,2062,2065,2064,2057,2052,2043
2060,2056,2064,2068,2061,2058,2056,2057
2059,2035,2051,2064,2062,2058,2061,2057
2050,2032,2033,2048,2054,2046,2044,2059
2043,2017,2022,2039,2048,2043,2047,2077
2036,2017,2022,2034,2045,2039,2033,2070
2037,2027,2039,2043,2053,2044,2035,2070
2047,2040,2055,2048,2053,2044,2040,2064
2044,2037,2055,2042,2049,2033,2018,2061
2033,2037,2055,2036,2045,2036,2026,2069
2032,2041,2051,2036,2048,2048,2047,2071
2040,2044,2050,2036,2043,2052,2041,2069
2041,2047,2050,2040,2040,2056,2033,2071
2035,2044,2047,2031,2033,2062,2042,2071
2044,2047,2050,2037,2047,2063,2026,2069
2051,2045,2050,2038,2051,2022,2045,2069
2061,2046,2037,2034,2042,2009,2036,2057
2058,2036,2021,2028,2035,2012,2032,2064
2057,2029,2016,2027,2042,2026,2010,2048
2058,2036,2042,2058,2055,2044,2034,2025
2047,2056,2067,2087,2072,2061,2050,2026
2052,2060,2075,2093,2069,2060,2046,2029
2056,2055,2067,2100,2071,2060,2045,2025
2049,2046,2054,2097,2073,2058,2050,2027
2054,2047,2034,2091,2075,2056,2035,2032
2049,2034,2008,2081,2065,2048,2029,2018
2043,2030,1997,2069,2060,2038,2016,2006
2043,2035,2004,2064,2060,2043,2040,2018
2052,2047,1995,2066,2066,2041,2038,2031
2059,2053,1994,2065,2065,2036,2042,2035
2060,2053,1983,2046,2061,2039,2037,2039
2054,2044,1979,2028,2059,2035,2029,2038
2048,2039,1971,2010,2058,2038,2032,2025
2050,2042,1962,2012,2065,2044,2059,2036
2054,2038,1953,2003,2060,2046,2052,2046
2058,2047,1952,1996,2066,2050,2044,2051
2053,2041,1946,1994,2062,2052,2056,2055
2046,2032,1946,1993,2070,2054,2056,2063
2047,2034,1960,1999,2061,2045,2056,2065
2043,2020,1972,1991,2050,2037,2033,2069
2041,2017,1980,1976,2039,2035,2044,2066
2037,2020,2002,1979,2036,2036,2023,2066
2037,2033,2033,1991,2039,2040,2031,2072
2039,2045,2085,2012,2048,2044,2042,2080
2057,2059,2108,2020,2053,2045,2029,2070
2053,2054,2100,2013,2049,2037,2026,2073
2046,2050,2117,2019,2043,2034,2040,2068
2045,2051,2118,2035,2045,2034,2033,2056
2049,2061,2133,2052,2056,2048,2038,2055
2059,2069,2124,2062,2062,2053,2050,2045
2060,2062,2124,2065,2065,2050,2056,2045
2064,2064,2114,2068,2066,2050,2063,2055
2070,2063,2109,2069,2066,2050,2050,2048
2069,2069,2100,2075,2060,2043,2048,2042
2062,2062,2100,2077,2058,2046,2044,2027
2061,2059,2100,2065,2054,2043,2056,2015
2057,2061,2097,2064,2048,2041,2042,2021
2050,2053,2084,2052,2032,2036,2046,2019
2054,2046,2072,2035,2016,2022,2039,2018
2043,2023,2040,2017,1996,2018,2017,2010
2038,2012,2034,2015,2004,2030,2025,2006
2038,2023,2036,2025,2019,2048,2049,2009
2046,2040,2044,2053,2063,2063,2039,2019
2046,2044,2052,2068,2075,2053,2066,2025
2045,2045,2055,2066,2056,2042,2053,2023
2049,2045,2059,2069,2068,2059,2056,2027
2051,2048,2061,2069,2077,2058,2059,2034
2054,2052,2059,2064,2066,2046,2057,2037
2053,2044,2055,2052,2063,2039,2049,2037
2049,2040,2060,2055,2060,2046,2054,2042
2053,2043,2060,2061,2061,2054,2044,2048
2055,2051,2056,2058,2061,2051,2046,2054
2052,2048,2060,2054,2055,2051,2038,2060
2050,2048,2062,2058,2053,2045,2032,2060
2056,2052,2068,2065,2060,2044,2048,2073
2055,2050,2064,2060,2044,2032,2018,2074
2046,2036,2044,2044,2022,2020,2003,2065
2043,2033,2023,2022,2008,2022,2029,2066
2056,2039,2023,2022,2009,2036,2044,2067
2064,2053,2031,2017,2017,2038,2050,2064
2060,2055,2028,2015,2029,2046,2061,2072
2060,2054,2021,2013,2044,2048,2041,2064
2062,2055,2017,2022,2059,2045,2057,2059
2064,2057,2012,2031,2055,2050,2060,2060
2069,2057,2011,2035,2056,2052,2060,2053
2058,2044,2011,2058,2062,2059,2063,2041
2058,2038,2042,2075,2058,2073,2050,2030
2046,2027,2051,2077,2059,2081,2068,2024
2045,2021,2053,2078,2054,2090,2042,2014
2042,2018,2064,2087,2031,2072,2029,2002
2038,2022,2075,2093,2014,2028,2025,2004
2049,2030,2093,2103,1999,2002,2053,2010
2042,2020,2085,2092,1984,1971,2013,1995
2036,2023,2082,2105,2007,1966,1999,2006
2040,2032,2076,2113,2043,2002,2016,2013
2050,2041,2080,2118,2078,2034,2020,2019
2042,2040,2071,2112,2100,2052,2028,2016
2041,2044,2070,2109,2116,2071,2062,2031
2046,2059,2077,2095,2116,2081,2072,2039
2065,2066,2072,2046,2094,2072,2053,2043
2063,2061,2060,2007,2066,2049,2034,2048
2061,2056,2056,1991,2055,2050,2046,2053
2056,2053,2047,1959,2046,2055,2054,2055
2056,2042,2018,1938,2042,2049,2070,2060
2058,2054,2014,1936,2050,2045,2068,2074
2076,2088,2044,1969,2057,2052,2065,2095
2073,2095,2062,2002,2061,2049,2050,2097
2064,2096,2066,2012,2064,2033,2048,2097
2054,2079,2064,2018,2062,2030,2044,2084
2043,2058,2056,2014,2063,2046,2044,2075
2037,2054,2056,2013,2059,2069,2063,2073
2041,2056,2077,2012,2042,2067,2071,2066
2042,2058,2085,2022,2038,2071,2064,2068
2040,2055,2086,2024,2050,2061,2045,2067
2051,2061,2092,2033,2064,2026,2060,2069
2057,2061,2092,2042,2060,2006,2075,2067
2061,2061,2077,2045,2060,2020,2067,2060
2056,2054,2075,2041,2055,2030,2056,2046
2057,2052,2061,2036,2050,2033,2066,2036
2053,2051,2054,2031,2053,2041,2067,2027
2047,2046,2044,2030,2047,2044,2072,2024
2040,2040,2035,2026,2048,2046,2067,2018
2050,2044,2033,2030,2052,2038,2065,2018
2051,2038,2030,2030,2048,2037,2065,2020
2050,2036,2023,2025,2046,2032,2070,2018
2046,2024,2012,2024,2035,2026,2032,2015
2037,2020,2012,2022,2030,2020,2050,2015
2041,2031,2027,2027,2038,2033,2058,2025
2050,2043,2036,2035,2040,2028,2057,2021
2048,2049,2040,2036,2039,2025,2062,2028
2049,2045,2041,2039,2033,2028,2059,2027
2055,2040,2054,2044,2046,2029,2044,2037
2057,2041,2074,2054,2069,2034,2064,2047
2058,2046,2091,2069,2092,2036,2064,2049
2061,2051,2080,2067,2078,2034,2075,2053
2060,2049,2064,2058,2061,2027,2078,2060
2055,2044,2056,2057,2055,2027,2075,2072
2055,2053,2075,2061,2061,2033,2072,2082
2059,2060,2077,2062,2058,2031,2074,2088
2062,2058,2062,2057,2050,2036,2070,2086
2060,2052,2053,2050,2049,2044,2071,2083
2058,2062,2069,2063,2050,2047,2066,2072
2047,2053,2069,2064,2044,2053,2067,2074
2049,2047,2079,2066,2049,2067,2084,2086
2041,2059,2091,2074,2046,2073,2080,2083
2049,2056,2094,2061,2045,2065,2082,2077
2048,2061,2100,2050,2041,2054,2056,2062
2041,2054,2087,2031,2029,2032,2032,2054
2034,2046,2080,2015,2026,2038,2057,2047
2039,2050,2080,2027,2034,2043,2051,2043
2049,2050,2085,2034,2044,2054,2054,2050
2056,2062,2084,2043,2046,2051,2059,2045
2057,2062,2070,2041,2045,2041,2053,2034
2053,2056,2051,2040,2043,2037,2055,2034
2051,2049,2042,2043,2030,2040,2059,2025
2042,2047,2047,2033,2037,2038,2052,2026
2043,2048,2046,2026,2028,2040,2047,2013
2040,2054,2042,2018,2030,2041,2053,2011
2045,2048,2034,2007,2025,2031,2059,2014
2039,2044,2024,1993,2022,2038,2048,2015
2045,2045,2019,1988,2035,2053,2063,2026
2052,2054,2031,2006,2044,2055,2052,2023
2052,2060,2037,2012,2048,2054,2058,2035
2054,2060,2039,2015,2041,2051,2054,2029
2052,2054,2048,2016,2046,2048,2031,2029
2046,2050,2047,2019,2040,2040,2063,2037
2052,2055,2051,2026,2041,2046,2054,2053
2050,2055,2052,2022,2047,2046,2035,2060
2054,2051,2048,2020,2046,2043,2051,2062
2047,2052,2052,2019,2052,2056,2049,2062
2054,2058,2055,2014,2062,2060,2068,2066
2051,2057,2045,2008,2055,2051,2063,2067
2040,2053,2047,2006,2034,2034,2059,2078
2037,2046,2051,2011,2025,2030,2044,2073
2043,2052,2054,2023,2027,2028,2033,2072
2039,2043,2042,2020,2024,2027,2034,2072
2035,2044,2037,2015,2032,2030,2042,2078
2046,2052,2034,2023,2036,2038,2038,2076
2050,2045,2019,2028,2041,2046,2058,2072
2046,2041,2018,2028,2043,2056,2041,2070
2051,2039,2032,2040,2042,2066,2064,2064
2052,2050,2046,2044,2048,2066,2059,2065
2056,2044,2038,2054,2053,2067,2064,2052
2053,2042,2030,2053,2054,2056,2053,2048
2051,2034,2026,2057,2050,2047,2048,2038
2051,2041,2037,2063,2057,2040,2036,2033
2044,2043,2029,2060,2057,2041,2046,2033
2041,2045,2030,2058,2053,2036,2034,2031
2033,2032,2024,2051,2055,2037,2035,2025
2041,2033,2031,2050,2053,2049,2052,2029
2042,2034,2032,2038,2040,2050,2058,2019
2027,2024,2019,2015,2031,2050,2045,2017
2036,2022,2028,2013,2026,2056,2044,2028
2044,2040,2051,2023,2032,2060,2050,2032
2044,2052,2062,2022,2024,2062,2048,2036
2058,2059,2068,2021,2028,2059,2050,2036
2057,2064,2075,2026,2033,2060,2048,2036
2062,2071,2076,2040,2049,2054,2049,2039
2058,2065,2070,2049,2042,2054,2051,2044
2051,2048,2044,2038,2043,2047,2058,2052
2049,2037,2028,2038,2040,2050,2045,2049
2037,2040,2038,2041,2051,2053,2064,2056
2042,2056,2054,2052,2057,2061,2068,2065
2045,2060,2055,2056,2061,2064,2058,2070
2044,2053,2047,2050,2053,2065,2054,2071
2042,2052,2041,2050,2055,2059,2051,2070
2038,2047,2056,2046,2049,2061,2037,2064
2032,2039,2054,2037,2043,2049,2052,2070
2039,2048,2055,2040,2050,2054,2049,2080
2049,2060,2067,2046,2049,2062,2058,2078
2050,2066,2068,2046,2056,2058,2060,2072
2052,2064,2056,2038,2044,2053,2061,2074
2047,2057,2051,2032,2042,2045,2046,2060
2046,2057,2050,2042,2045,2040,2048,2062
2044,2057,2060,2045,2044,2032,2054,2056
2046,2064,2059,2054,2045,2040,2057,2045
2051,2060,2062,2055,2052,2044,2053,2039
2049,2059,2064,2054,2050,2041,2049,2035
2047,2061,2055,2056,2044,2037,2051,2036
2050,2059,2058,2046,2042,2037,2037,2033
2053,2057,2043,2032,2036,2040,2053,2038
2058,2056,2037,2026,2036,2051,2056,2028
2053,2046,2028,2020,2034,2054,2044,2029
2045,2034,2021,2014,2031,2065,2046,2024
2042,2036,2017,2017,2039,2079,2051,2028
2047,2046,2030,2023,2042,2091,2067,2031
2040,2036,2028,2033,2051,2098,2078,2037
2049,2038,2023,2029,2057,2103,2076,2037
2049,2036,2015,2027,2051,2095,2053,2034
2040,2040,2017,2028,2052,2092,2066,2036
2036,2032,2013,2023,2045,2049,2056,2048
2037,2034,2012,2014,2035,2003,2044,2053
2046,2032,2009,2012,2034,2002,2054,2074
2051,2031,2008,2019,2033,2018,2069,2077
2046,2029,2017,2019,2022,2025,2066,2071
2045,2031,2034,2024,2026,2026,2051,2066
2040,2040,2055,2025,2021,2021,2062,2076
2046,2045,2055,2034,2024,2018,2070,2087
2047,2043,2052,2030,2021,2013,2058,2087
2043,2044,2045,2040,2025,2025,2059,2090
2054,2054,2062,2050,2040,2039,2057,2090
2058,2073,2071,2056,2044,2048,2044,2083
2050,2071,2076,2060,2054,2048,2055,2075
2048,2071,2078,2062,2046,2057,2054,2067
2059,2068,2066,2061,2053,2077,2052,2061
2047,2060,2063,2058,2061,2106,2052,2055
2047,2052,2057,2053,2034,2107,2053,2050
2049,2056,2053,2037,1993,2077,2038,2041
2042,2046,2044,2024,1957,2048,2035,2030
2037,2045,2035,2015,1942,2030,2041,2027
2046,2042,2033,2010,1960,2002,2037,2029
2050,2046,2037,2037,2033,1991,2048,2037
2067,2044,2041,2057,2089,2024,2047,2029
2065,2055,2039,2063,2096,2049,2049,2028
2054,2048,2044,2060,2090,2068,2050,2015
2040,2031,2028,2052,2077,2068,2052,2012
2032,2032,2036,2062,2065,2065,2053,2020
2047,2060,2052,2063,2049,2082,2057,2032
2051,2051,2048,2046,2035,2091,2065,2042
2054,2062,2043,2026,2019,2089,2046,2044
2059,2062,2032,2002,1992,2067,2039,2038
2049,2058,2026,1986,1995,2058,2043,2042
2054,2069,2046,2011,2035,2027,2074,2050
2060,2076,2052,2024,2063,2036,2068,2045
2058,2066,2042,2024,2058,2043,2052,2046
2039,2045,2040,2017,2038,2048,2053,2037
2035,2047,2034,2022,2040,2059,2064,2054
2038,2056,2041,2025,2053,2064,2057,2068
2036,2052,2037,2029,2062,2067,2044,2066
2035,2049,2040,2035,2050,2061,2049,2068
2034,2042,2040,2031,2044,2051,2057,2064
2027,2032,2037,2018,2028,2036,2052,2070
2030,2039,2041,2024,2034,2021,2048,2070
2032,2041,2048,2023,2026,2029,2043,2063
2030,2035,2034,2020,2008,2012,2042,2061
2036,2036,2030,2021,1986,2016,2025,2068
2037,2040,2020,2018,1981,2012,2042,2059
2043,2037,2014,2006,1983,2013,2036,2053
2037,2043,2015,2018,2016,2034,2063,2051
2044,2041,2023,2042,2055,2046,2072,2049
2042,2041,2030,2048,2085,2076,2076,2047
2049,2038,2025,2036,2093,2116,2100,2038
2048,2036,2019,2031,2078,2127,2096,2032
2054,2033,2016,2024,2046,2109,2074,2030
2056,2034,2020,2018,2027,2081,2079,2030
2056,2044,2033,2022,2034,2015,2058,2037
2072,2066,2064,2046,2046,1978,2043,2045
2075,2085,2077,2063,2058,1980,2047,2043
2068,2084,2075,2066,2067,2015,2051,2034
2060,2084,2055,2066,2077,2050,2044,2024
2057,2065,2036,2061,2076,2078,2051,2020
2048,2055,2022,2048,2061,2093,2051,2021
2045,2052,2014,2046,2050,2089,2061,2025
2044,2057,2023,2047,2047,2083,2058,2034
2044,2067,2041,2052,2052,2070,2066,2054
2053,2073,2044,2068,2063,2028,2056,2063
2059,2072,2048,2070,2069,2012,2061,2065
2056,2067,2050,2065,2064,2022,2052,2070
2048,2065,2038,2053,2062,2038,2056,2074
2045,2054,2033,2040,2051,2035,2040,2076
2041,2046,2040,2034,2045,2033,2047,2069
2036,2054,2050,2035,2033,2034,2038,2081
2039,2059,2069,2035,2031,2027,2035,2091
2048,2054,2086,2032,2025,2026,2051,2089
2054,2059,2098,2030,2031,2032,2058,2098
2050,2064,2096,2031,2034,2041,2052,2089
2054,2069,2083,2035,2033,2046,2040,2086
2045,2064,2067,2032,2033,2037,2028,2082
2053,2064,2055,2032,2029,2040,2050,2078
2050,2061,2047,2029,2027,2042,2058,2078
2047,2052,2050,2028,2027,2047,2030,2054
2042,2050,2048,2028,2033,2047,2043,2050
2036,2050,2053,2038,2045,2047,2039,2040
2038,2056,2058,2044,2054,2049,2044,2047
2042,2059,2058,2052,2059,2046,2051,2040
2047,2055,2049,2045,2056,2042,2054,2042
2040,2058,2052,2044,2048,2047,2055,2037
2040,2052,2046,2047,2044,2061,2054,2031
2033,2050,2043,2040,2029,2068,2041,2027
2036,2047,2030,2035,2022,2064,2020,2023
2032,2037,2026,2028,2029,2061,2045,2020
2042,2045,2029,2036,2031,2038,2037,2032
2052,2056,2037,2043,2051,2014,2051,2044
2048,2056,2046,2050,2069,2012,2070,2051
2054,2065,2052,2052,2089,2033,2057,2054
2049,2069,2055,2045,2080,2048,2068,2056
2048,2068,2052,2043,2074,2052,2055,2058
2044,2059,2051,2036,2056,2057,2052,2064
2052,2065,2048,2034,2057,2068,2046,2066
2045,2062,2046,2038,2051,2072,2078,2072
2047,2059,2047,2045,2052,2071,2077,2077
2047,2054,2053,2045,2056,2066,2085,2084
2044,2051,2052,2040,2048,2048,2083,2094
2048,2050,2047,2043,2051,2044,2050,2097
2053,2051,2041,2045,2043,2041,2070,2102
2051,2039,2028,2037,2039,2035,2058,2094
2045,2036,2029,2034,2047,2031,2055,2092
2052,2049,2034,2041,2052,2051,2061,2088
2051,2050,2034,2044,2052,2051,2059,2084
2048,2053,2034,2046,2052,2046,2056,2074
2051,2048,2031,2050,2053,2053,2057,2068
2048,2047,2031,2046,2044,2042,2046,2064
2050,2048,2033,2039,2031,2028,2028,2057
2044,2041,2034,2041,2036,2026,2038,2053
2046,2041,2031,2040,2037,2035,2021,2051
2048,2045,2034,2037,2034,2046,2061,2046
2053,2040,2041,2039,2033,2057,2059,2043
2050,2043,2050,2038,2031,2052,2056,2028
2041,2041,2044,2041,2022,2038,2059,2029
2043,2040,2039,2037,2028,2039,2051,2030
2035,2036,2033,2030,2035,2035,2022,2022
2032,2023,2019,2025,2031,2029,2055,2018
2024,2019,2018,2031,2031,2020,2049,2025
2039,2039,2035,2043,2044,2026,2064,2040
2050,2052,2038,2049,2045,2040,2056,2044
2045,2040,2031,2044,2044,2046,2055,2034
2033,2032,2028,2037,2040,2048,2065,2037
2033,2027,2027,2037,2050,2048,2049,2029
2031,2042,2039,2050,2057,2061,2051,2041
2034,2054,2050,2057,2054,2065,2057,2036
2040,2053,2050,2040,2050,2060,2034,2040
2039,2041,2033,2021,2016,2053,2021,2045
2038,2035,2027,2009,2001,2042,2022,2057
2036,2041,2030,2015,2000,2054,2029,2071
2043,2040,2046,2018,2003,2066,2030,2080
2033,2041,2060,2024,2024,2082,2040,2071
2039,2050,2066,2049,2070,2106,2075,2087
2042,2058,2069,2064,2089,2095,2070,2091
2037,2047,2063,2059,2081,2088,2062,2089
2038,2061,2071,2065,2081,2098,2069,2094
2052,2078,2077,2069,2083,2100,2073,2096
2054,2072,2071,2064,2072,2099,2067,2091
2046,2067,2062,2067,2065,2086,2076,2080
2052,2064,2058,2060,2057,2073,2066,2072
2048,2061,2057,2051,2059,2064,2052,2067
2050,2069,2058,2050,2074,2060,2062,2070
2055,2072,2053,2050,2075,2041,2067,2056
2051,2071,2049,2043,2064,2030,2064,2043
2048,2066,2043,2030,2065,2033,2050,2039
2049,2060,2034,2024,2058,2030,2022,2037
2050,2063,2027,2024,2061,2054,2053,2036
2046,2059,2026,2016,2058,2094,2051,2040
2046,2058,2021,2019,2066,2123,2070,2035
2046,2049,2013,2019,2063,2157,2054,2032
2040,2037,2013,2020,2060,2180,2068,2032
2053,2041,2018,2033,2062,2197,2078,2036
2056,2054,2025,2041,2069,2166,2067,2034
2053,2053,2024,2041,2083,2049,2056,2024
2049,2056,2029,2029,2046,1921,2024,2024
2045,2047,2028,2032,1993,1928,2035,2026
2039,2033,2023,2027,1984,1964,2040,2033
2037,2025,2035,2037,2016,1995,2057,2041
2036,2026,2027,2040,2036,2014,2048,2042
2034,2029,2034,2050,2081,2021,2066,2053
2034,2028,2021,2044,2095,2017,2056,2058
2033,2027,2012,2050,2090,2016,2048,2066
2031,2031,2003,2044,2094,2011,2050,2068
2029,2031,1991,2041,2116,2020,2048,2068
2023,2035,1985,2043,2127,2006,2044,2073
2029,2040,1993,2042,2105,2000,2036,2073
2036,2036,1993,2037,2082,2004,2014,2075
2042,2036,1982,2023,2041,2003,2014,2083
2041,2039,1981,2010,1964,1992,2014,2081
2042,2036,1982,1983,1869,1991,2028,2074
2037,2039,1988,1967,1891,2010,2020,2064
2028,2032,1987,1949,1919,2050,2012,2056
2024,2039,1989,1960,1952,2085,2032,2052
2038,2054,2010,1990,2009,2089,2037,2055
2047,2063,2038,2001,2034,2077,2046,2051
2050,2065,2047,2010,2026,2069,2058,2052
2056,2082,2071,2022,2030,2068,2050,2048
2055,2090,2102,2034,2013,2062,2034,2046
2054,2097,2113,2041,1989,2053,2041,2046
2058,2089,2122,2048,1990,2051,2042,2052
2065,2085,2120,2053,1996,2040,2041,2047
2062,2074,2106,2035,1966,2010,2038,2036
2048,2054,2079,2015,1934,1988,2037,2016
2036,2045,2059,2006,1950,2011,2019,2015
2039,2046,2046,1999,1926,2018,2043,2018
2028,2039,2032,2002,1969,2042,2042,2021
2035,2038,2039,2022,2025,2069,2036,2021
2044,2047,2047,2042,2055,2050,2043,2035
2048,2068,2063,2062,2106,2043,2047,2053
2046,2064,2061,2071,2146,2066,2042,2057
2049,2059,2063,2062,2146,2087,2033,2057
2050,2064,2064,2055,2156,2115,2066,2059
2045,2062,2066,2064,2157,2140,2070,2072
2045,2059,2052,2062,2148,2132,2073,2074
2042,2042,2035,2047,2122,2107,2062,2082
2040,2035,2035,2032,2094,2078,2047,2084
2033,2027,2034,2031,2070,2050,2040,2083
2036,2030,2035,2042,2076,2038,2016,2080
2029,2027,2033,2037,2061,2027,2028,2077
2030,2032,2038,2041,2067,2029,2026,2079
2040,2046,2048,2042,2059,2025,2032,2071
2045,2038,2045,2033,2054,2024,2032,2079
2045,2045,2056,2038,2045,2032,2040,2074
2047,2052,2059,2047,2041,2036,2035,2075
2040,2053,2057,2051,2035,2046,2060,2063
2044,2047,2048,2051,2019,2069,2044,2060
2048,2034,2042,2044,2005,2077,2027,2061
2046,2029,2041,2055,1997,2072,2039,2048
2054,2040,2052,2063,1998,2074,2025,2047
2056,2053,2059,2067,1991,2058,2045,2040
2054,2054,2052,2069,1953,2027,2042,2051
2054,2038,2036,2050,1904,2013,2020,2035
2052,2031,2022,2036,1868,2035,2021,2021
2051,2041,2022,2038,1878,2030,1998,2015
2040,2038,2015,2046,1962,2000,2000,2018
2037,2033,2011,2066,2087,1998,2008,2023
2041,2043,2018,2081,2122,2012,2017,2034
2049,2052,2015,2085,2144,2037,2048,2051
2050,2055,2021,2086,2177,2064,2035,2057
2047,2050,2017,2064,2161,2072,2042,2053
2048,2052,2024,2036,2122,2068,2049,2060
2056,2057,2036,2028,2088,2056,2033,2058
2061,2054,2052,2021,2066,2042,2016,2061
2063,2056,2052,2015,2057,2046,2026,2062
2055,2053,2053,2008,2044,2039,2023,2062
2053,2043,2046,2003,2039,2027,2018,2077
2041,2036,2055,2006,2050,2031,2014,2074
2042,2046,2059,2012,2058,2036,2019,2072
2035,2052,2057,2013,2052,2037,2050,2080
2034,2047,2043,2005,2053,2041,2050,2077
2024,2027,2028,2010,2045,2034,2045,2072
2026,2029,2034,2022,2043,2041,2047,2068
2033,2051,2042,2027,2048,2035,2034,2067
2038,2044,2030,2026,2044,2036,2040,2066
2042,2037,2025,2023,2025,2045,2036,2076
2044,2036,2026,2022,2017,2052,2024,2067
2045,2039,2027,2029,2019,2058,2027,2058
2046,2050,2037,2034,2027,2067,2029,2051
2047,2054,2041,2027,2026,2076,2035,2060
2047,2051,2044,2040,2043,2083,2031,2055
2046,2049,2053,2051,2063,2101,2055,2048
2047,2057,2060,2061,2052,2091,2047,2043
2045,2056,2057,2063,2057,2039,2045,2048
2055,2061,2071,2075,2078,2014,2054,2045
2054,2060,2082,2071,2076,2031,2062,2035
2053,2052,2068,2057,2081,2047,2048,2029
2042,2039,2055,2054,2116,2067,2060,2030
2042,2033,2042,2063,2148,2077,2054,2037
2048,2036,2036,2063,2154,2074,2051,2019
2042,2030,2037,2056,2163,2072,2050,2019
2045,2038,2053,2060,2154,2036,2065,2033
2054,2047,2050,2059,2124,2014,2050,2051
2067,2058,2053,2066,2133,2015,2035,2062
2067,2059,2051,2078,2144,2021,2032,2061
2076,2058,2044,2067,2118,2034,2050,2062
2074,2052,2030,2039,2052,2033,2046,2042
2057,2043,2016,2030,2024,2034,2036,2043
2033,2033,2023,2025,1960,2049,2045,2048
2026,2030,2025,2048,1983,2070,2043,2053
2023,2025,2029,2046,1949,2083,2052,2064
2029,2025,2034,2061,1995,2100,2057,2069
2043,2038,2042,2078,2058,2119,2059,2068
2056,2034,2036,2070,2039,2105,2046,2060
2046,2027,2027,2053,1998,2092,2041,2074
2059,2040,2035,2060,2046,2106,2057,2087
2060,2037,2033,2075,2068,2112,2051,2082
2050,2039,2035,2066,2090,2101,2056,2071
2041,2047,2043,2063,2107,2090,2041,2064
2044,2070,2066,2059,2081,2066,2055,2053
2061,2091,2093,2051,2005,2042,2043,2048
2053,2083,2104,2047,1997,2027,2045,2041
2049,2070,2089,2038,2003,2013,2027,2029
2040,2058,2073,2036,2013,2010,2026,2031
2041,2056,2064,2046,2027,2025,2036,2029
2043,2050,2055,2046,2037,2028,2015,2030
2051,2055,2053,2054,2054,2038,2025,2028
2051,2044,2043,2045,2044,2044,2044,2024
2051,2044,2035,2036,2024,2037,2060,2025
2050,2041,2041,2028,2017,2031,2032,2019
2048,2041,2032,2035,1990,2014,2041,2031
2057,2052,2046,2041,1978,2017,2039,2038
2067,2055,2047,2029,1956,2006,2030,2032
2055,2044,2033,2015,1950,2015,2029,2040
2050,2045,2029,2015,1980,2040,2047,2035
2047,2044,2039,2025,2045,2070,2060,2030
2051,2059,2058,2040,2062,2075,2055,2037
2055,2060,2052,2034,2034,2057,2064,2044
2036,2044,2041,2026,2026,2053,2060,2044
2032,2040,2038,2025,2028,2058,2047,2061
2044,2042,2034,2031,2034,2064,2075,2066
2049,2045,2034,2028,2060,2062,2061,2078
2063,2046,2041,2034,2080,2062,2031,2088
2072,2047,2045,2045,2055,2063,2049,2088
2075,2044,2049,2045,2031,2051,2061,2077
2056,2039,2043,2041,1998,2030,2054,2080
2051,2032,2049,2038,1950,2012,2036,2087
2048,2021,2046,2027,1922,2010,2032,2080
2039,2014,2033,2033,1952,2039,2032,2083
2040,2026,2039,2064,2012,2057,2054,2072
2037,2038,2064,2075,2024,2061,2064,2069
2047,2043,2069,2040,1937,2054,2043,2051
2042,2041,2058,2015,1889,2041,2048,2046
2036,2045,2056,2042,2013,2038,2049,2047
2039,2048,2044,2070,2123,2033,2038,2045
2041,2047,2041,2083,2175,2027,2034,2031
2038,2042,2038,2080,2162,2021,2040,2016
2042,2043,2034,2069,2137,2023,2022,2012
2045,2049,2027,2065,2126,2044,2019,2014
2041,2039,2018,2056,2143,2077,2035,2013
2041,2030,2003,2048,2139,2087,2029,2008
2036,2024,1990,2030,2142,2090,2040,2007
2028,2012,1989,2033,2154,2083,2053,1999
2037,2014,2004,2039,2156,2041,2046,2019
2050,2037,2016,2043,2136,2040,2054,2019
2053,2038,2019,2035,2175,2070,2046,2019
2055,2035,2011,2021,2185,2088,2033,2025
2049,2037,2012,2018,2153,2094,2053,2030
2055,2043,2025,2030,2138,2087,2072,2054
2063,2049,2041,2034,2126,2064,2065,2064
2063,2052,2053,2033,2117,2051,2061,2071
2065,2046,2051,2040,2086,2034,2044,2064
2064,2054,2040,2029,1994,2030,2062,2060
2071,2043,2038,2025,1975,2002,2051,2049
2054,2034,2031,1998,1887,1968,2038,2045
2057,2035,2042,1973,1745,1965,2052,2063
2067,2042,2053,1996,1834,1984,2047,2077
2067,2038,2052,2030,1960,1992,2040,2086
2048,2016,2023,2029,2013,1983,2024,2069
2036,2024,2022,2027,2043,2005,2039,2073
2047,2042,2034,2026,2049,2036,2036,2064
2042,2036,2034,2038,2096,2065,2032,2050
2031,2047,2059,2055,2133,2090,2062,2045
2043,2068,2088,2051,2076,2080,2054,2060
2053,2073,2090,2041,2038,2093,2071,2061
2060,2076,2089,2053,2105,2147,2067,2051
2058,2072,2070,2049,2089,2145,2053,2040
2050,2058,2045,2014,2027,2108,2031,2023
2046,2043,2035,2017,1961,2096,2058,2024
2062,2061,2056,2069,2012,2116,2079,2031
2058,2063,2057,2082,2007,2124,2078,2031
2058,2051,2043,2049,1950,2065,2049,2010
2035,2038,2031,2020,1925,1973,2028,2005
2024,2037,2037,2019,1946,1972,2019,2002
2032,2027,2035,2007,1904,2026,2026,2007
2036,2040,2042,2019,1946,2028,2031,2004
2045,2050,2059,2033,1972,1992,2042,2010
2062,2058,2069,2051,2010,1996,2041,2018
2061,2059,2078,2071,2053,2016,2055,2030
2061,2068,2085,2085,2060,2041,2052,2044
2065,2074,2092,2079,2027,2058,2062,2043
2060,2065,2076,2060,2008,2067,2055,2039
2059,2053,2050,2045,2021,2058,2055,2041
2050,2044,2038,2049,2056,2054,2057,2043
2055,2032,2032,2061,2106,2061,2071,2060
2058,2036,2028,2070,2146,2063,2046,2062
2055,2043,2032,2066,2157,2040,2047,2051
2042,2036,2035,2057,2122,2015,2024,2037
2027,2036,2045,2053,2095,2001,2042,2047
2035,2043,2047,2063,2080,2009,2034,2053
2044,2037,2041,2060,2063,2017,2052,2069
2041,2037,2043,2041,2019,2031,2038,2062
2037,2044,2052,2039,1990,2052,2032,2053
2029,2045,2044,2049,1996,2056,2033,2046
2026,2043,2040,2052,2020,2067,2039,2038
2028,2050,2041,2076,2060,2041,2043,2040
2037,2060,2054,2093,2114,2029,2046,2047
2039,2063,2056,2090,2147,2064,2060,2042
2034,2058,2051,2091,2176,2096,2068,2039
2035,2054,2058,2096,2199,2129,2071,2037
2045,2040,2060,2093,2205,2133,2088,2040
2043,2042,2048,2088,2195,2125,2082,2033
2041,2032,2022,2064,2154,2126,2074,2023
2040,2027,2011,2036,2108,2120,2076,2028
2044,2028,2006,2031,2074,2103,2060,2026
2057,2024,2003,2021,2021,2082,2061,2023
2054,2014,1986,2012,1970,2038,2042,2020
2037,2010,1982,2002,1920,2005,2027,2015
2020,2011,1983,1999,1903,2013,2007,1998
2014,2013,1988,2004,1944,2021,2016,1975
2004,2036,2010,2013,1938,2023,2003,1967
2018,2055,2037,2027,1911,2004,2022,1979
2011,2050,2049,2028,1893,1954,2023,1998
2012,2053,2060,2060,1973,1956,2039,2018
2022,2052,2061,2088,2067,2025,2056,2032
2033,2043,2048,2083,2097,2072,2028,2036
2035,2031,2048,2072,2087,2086,2040,2056
2040,2040,2058,2059,2010,2030,2030,2078
2048,2044,2061,2055,2003,2011,2034,2076
2040,2046,2065,2059,2040,2022,2040,2074
2043,2053,2069,2060,2076,2051,2036,2080
2041,2055,2072,2059,2136,2073,2058,2067
2045,2064,2080,2052,2155,2058,2046,2076
2050,2072,2079,2054,2158,2054,2051,2080
2067,2075,2077,2056,2185,2071,2071,2087
2068,2079,2074,2056,2187,2072,2057,2074
2057,2056,2061,2055,2190,2069,2045,2059
2061,2038,2055,2070,2231,2083,2048,2042
2050,2036,2059,2089,2219,2117,2040,2044
2050,2032,2057,2092,2100,2123,2035,2039
2045,2038,2058,2093,1997,2104,2048,2026
2047,2041,2060,2099,1963,2085,2050,2031
2053,2052,2066,2108,2042,2053,2044,2039
2062,2066,2062,2117,2121,2066,2051,2040
2042,2066,2056,2119,2152,2082,2061,2031
2037,2057,2056,2112,2142,2077,2058,2032
2048,2052,2053,2094,2043,2048,2047,2021
2050,2042,2039,2067,2012,2025,2064,2011
2043,2041,2031,2066,2035,2021,2018,1995
2028,2027,2014,2051,1995,2044,2036,1979
2014,2017,1991,2031,1952,2064,2046,1999
2036,2020,1977,2048,2019,2091,2051,2009
2043,2012,1969,2050,2070,2094,2045,2016
2046,2012,1951,2054,2104,2051,2055,2025
2055,2020,1942,2058,2129,2012,2031,2024
2053,2012,1926,2068,2128,2029,2033,2018
2049,2004,1937,2082,2137,2051,2047,2021
2054,2012,1952,2083,2112,2057,2056,2021
2035,2013,1968,2055,2027,2023,2040,2036
2036,2016,1977,2011,1949,1987,2026,2052
2028,2027,1999,1964,1886,1978,2031,2060
2025,2042,2016,1946,1855,1985,2026,2076
2054,2049,2021,1952,1904,1975,2018,2086
2071,2061,2025,1965,1918,1974,2007,2088
2061,2042,2012,1976,1934,1983,2032,2083
2045,2033,2027,2002,1985,1998,2033,2072
2025,2034,2047,2020,2047,2033,2054,2061
2020,2056,2073,2036,2092,2067,2072,2058
2028,2078,2097,2057,2101,2078,2062,2063
2042,2090,2096,2057,2106,2077,2060,2068
2051,2084,2091,2062,2090,2073,2049,2063
2065,2077,2092,2048,2037,2051,2040,2063
2074,2067,2079,2038,1975,2021,2039,2041
2060,2046,2056,2019,1983,2012,2023,2022
2046,2037,2042,2019,2043,2022,2043,2018
2051,2036,2052,2041,2105,2051,2037,2016
2058,2032,2054,2051,2170,2076,2029,2009
2041,2021,2051,2057,2158,2066,2013,2010
2021,2021,2046,2055,2141,2057,2017,2015
2020,2040,2049,2075,2115,2064,2045,2025
2035,2066,2078,2088,2078,2073,2038,2028
2052,2064,2053,2071,2054,2057,2042,2016
2052,2066,2054,2064,2052,2058,2042,2015
2045,2077,2069,2048,2034,2059,2043,2009
2058,2089,2085,2042,2023,2056,2060,2011
2054,2087,2083,2037,2029,2058,2037,2005
2037,2072,2069,2033,2071,2066,2035,2012
2032,2059,2050,2010,2050,2076,2038,2017
2041,2062,2041,1988,2002,2078,2060,2038
2055,2065,2061,2037,2133,2090,2070,2056
2064,2064,2057,2079,2282,2098,2068,2052
2069,2062,2057,2096,2349,2096,2053,2043
2069,2070,2053,2076,2236,2052,2039,2027
2045,2037,2024,2030,2065,2005,2026,2025
2041,2022,2015,2013,1930,2005,2012,2037
2037,2026,2041,2042,1973,2044,2027,2067
2059,2043,2042,2060,2014,2059,2020,2063
2055,2030,2022,2026,1961,2023,1992,2063
2035,2013,2014,2014,1905,1995,1985,2058
2052,2014,2015,2037,1909,2018,1994,2051
2055,2026,2041,2070,1983,2030,2005,2033
2053,2038,2057,2102,2099,2042,2014,2033
2055,2053,2060,2098,2153,2051,2031,2037
2049,2036,2034,2059,2103,2042,2025,2040
2021,2012,1999,2020,2040,2039,2029,2042
2032,2014,2000,2014,1996,2043,2033,2031
2027,2039,2018,2027,1970,2015,2028,2028
2020,2040,2047,2040,1962,1994,2035,2035
2043,2058,2069,2057,1987,1985,2029,2040
2057,2073,2066,2075,2061,2013,2023,2025
2045,2072,2053,2065,2082,2049,2020,2016
2039,2062,2028,2049,2094,2066,2026,2018
2046,2057,2028,2062,2120,2069,2052,2016
2049,2052,2041,2077,2153,2070,2023,2016
2057,2059,2041,2107,2195,2065,2032,2018
2059,2061,2043,2112,2232,2066,2030,2023
2051,2062,2034,2113,2235,2075,2044,2016
2042,2056,2043,2112,2200,2077,2028,2009
2035,2054,2046,2090,2164,2053,2041,2006
2040,2061,2060,2077,2129,2044,2034,2018
2040,2063,2072,2076,2150,2064,2049,2021
2044,2084,2098,2085,2165,2088,2065,2042
2052,2080,2083,2078,2100,2075,2066,2062
2060,2078,2079,2035,1960,2056,2066,2082
2062,2065,2076,2025,1942,2060,2057,2089
2071,2051,2080,2054,2106,2072,2042,2097
2064,2034,2066,2074,2220,2091,2066,2095
2053,2050,2064,2076,2207,2090,2049,2060
2031,2057,2054,2034,1980,2049,2054,2075
2042,2046,2033,2010,1870,2021,2042,2098
2043,2036,2020,2006,1861,2008,2039,2084
2043,2066,2052,2034,1877,2026,2042,2073
2050,2083,2073,2057,1952,2027,2038,2074
2056,2090,2099,2074,2058,2023,2028,2061
2055,2096,2108,2057,1982,1983,2018,2045
2046,2082,2106,2036,1893,1970,2010,2031
2045,2070,2098,2062,1973,1983,2016,2032
2042,2072,2095,2105,2088,2020,2039,2030
2040,2068,2073,2122,2119,2030,2042,2030
2049,2060,2065,2125,2098,2033,2048,2029
2049,2060,2070,2125,2073,2047,2039,2031
2041,2053,2064,2121,2046,2058,2029,2022
2048,2053,2065,2113,2022,2074,2046,2021
2053,2062,2072,2105,2010,2081,2050,2014
2053,2054,2065,2089,2012,2084,2061,2020
2062,2045,2054,2083,2015,2077,2069,2032
2062,2043,2054,2078,2050,2046,2071,2019
2051,2047,2045,2079,2089,2023,2060,2013
2045,2049,2030,2066,2080,2022,2065,2001
2025,2038,2028,2048,2054,2013,2055,2002
2028,2045,2028,2038,2080,2030,2057,2018
2033,2053,2029,2023,2089,2040,2051,2023
2042,2073,2039,2021,2086,2037,2059,2035
2045,2073,2040,2011,2070,2029,2052,2030
2049,2065,2035,1994,2046,2036,2049,2046
2042,2064,2041,1999,2041,2043,2071,2048
2049,2068,2053,2028,2047,2044,2069,2051
2043,2058,2054,2048,2064,2050,2060,2057
2049,2055,2053,2064,2079,2056,2067,2060
2057,2052,2046,2047,2075,2054,2063,2074
2063,2053,2039,2026,2051,2049,2051,2080
2064,2045,2017,2013,2018,2037,2020,2075
2028,2004,1986,2007,2028,2038,2042,2062
2040,2021,2012,2023,2053,2035,2054,2058
2079,2055,2042,2050,2106,2022,2050,2045
2045,2069,2061,2068,2130,2038,2026,2042
2035,2076,2065,2066,2141,2070,2039,2054
2050,2061,2067,2056,2128,2089,2049,2043
2046,2044,2055,2038,2093,2066,2044,2041
2048,2043,2051,2015,2039,2040,2033,2037
2037,2057,2067,2027,2039,2051,2062,2031
2040,2073,2077,2045,2039,2062,2076,2027
2044,2060,2058,2047,2060,2064,2069,2026
2043,2053,2048,2064,2067,2067,2058,2024
2042,2046,2037,2071,2061,2046,2045,2026
2041,2044,2034,2068,2063,2037,2025,2027
2044,2040,2039,2070,2072,2030,2046,2017
2039,2040,2030,2062,2065,2029,2039,2010
2024,2023,2021,2059,2071,2033,2035,2004
2022,2025,2026,2064,2075,2037,2046,2004
2028,2034,2029,2057,2070,2023,2039,2010
2039,2037,2022,2043,2066,1993,2011,2007
2035,2036,2020,2037,2056,1989,2030,2018
2046,2056,2040,2038,2069,1998,2047,2029
2057,2060,2045,2035,2067,2003,2036,2038
2060,2064,2069,2041,2077,2026,2035,2043
2071,2074,2089,2047,2083,2035,2045,2048
2067,2068,2077,2052,2089,2047,2055,2050
2064,2060,2057,2044,2084,2051,2046,2054
2057,2041,2033,2039,2076,2061,2037,2054
2055,2047,2024,2041,2086,2080,2043,2070
2050,2040,2012,2042,2085,2070,2053,2062
2035,2022,2008,2038,2076,2054,2043,2056
2023,2029,2013,2037,2064,2056,2050,2046
2021,2035,2020,2032,2052,2065,2049,2063
2026,2036,2020,2026,2014,2069,2048,2079
2042,2047,2026,2011,1966,2064,2054,2066
2038,2038,2028,2003,1939,2042,2044,2067
2046,2044,2043,2000,1911,2014,2026,2059
2038,2045,2045,1991,1900,2007,2017,2045
2046,2058,2064,1998,1892,1994,2013,2041
2052,2080,2082,2023,1955,1983,2015,2043
2067,2096,2094,2062,2089,2015,2030,2059
2081,2093,2093,2098,2170,2053,2046,2057
2074,2080,2091,2101,2210,2082,2068,2055
2065,2075,2086,2095,2233,2086,2061,2048
2056,2063,2088,2084,2185,2067,2070,2033
2051,2054,2071,2046,2019,2034,2035,2023
2051,2050,2059,2032,1882,2016,2036,2024
2051,2043,2046,2043,1922,2022,2036,2004
2036,2033,2043,2062,2064,2046,2035,2006
2040,2040,2068,2102,2216,2104,2061,2010
2057,2053,2084,2128,2260,2124,2061,2019
2052,2054,2080,2132,2237,2129,2061,2015
2046,2048,2070,2130,2246,2150,2045,2026
2044,2044,2050,2105,2227,2158,2044,2008
2040,2034,2040,2055,2090,2118,2055,1999
2027,2024,2022,2032,2003,2088,2022,2006
2032,2037,2040,2055,2022,2042,2013,2038
2035,2050,2051,2090,2073,1994,2048,2066
2049,2060,2054,2106,2126,1975,2058,2083
2057,2051,2058,2097,2107,1997,2069,2085
2072,2052,2052,2088,2108,2029,2063,2090
2060,2043,2048,2087,2107,2042,2067,2083
2053,2047,2052,2046,2089,2035,2058,2072
2050,2035,2055,2015,2054,2013,2051,2061
2035,2020,2042,1975,1937,1976,2028,2063
2028,2016,2029,1974,1872,1954,2014,2075
2032,2032,2024,1979,1934,1961,2020,2078
2031,2037,2025,1988,1968,2003,2034,2068
2049,2063,2047,2013,2016,2038,2045,2052
2042,2065,2080,2056,2068,2069,2067,2042
2029,2060,2083,2064,2076,2078,2054,2033
2028,2053,2061,2045,2058,2070,2045,2034
2035,2043,2043,2029,2066,2059,2035,2025
2025,2034,2034,2032,2113,2048,2031,2018
2027,2034,2040,2038,2144,2007,2052,2013
2039,2060,2069,2057,2167,1998,2066,2025
2053,2078,2086,2080,2188,2021,2074,2036
2053,2069,2078,2081,2180,2046,2058,2024
2058,2063,2066,2072,2172,2049,2060,2020
2054,2060,2062,2072,2149,2042,2052,1999
2035,2046,2056,2067,2109,2053,2044,1994
2033,2036,2054,2069,2042,2087,2061,2007
2041,2049,2063,2067,1929,2092,2060,2010
2038,2053,2066,2072,1920,2090,2073,2019
2045,2053,2062,2076,1943,2086,2069,2025
2051,2043,2054,2065,1968,2074,2052,2029
2049,2042,2055,2063,1985,2080,2047,2021
2047,2044,2062,2073,1975,2098,2066,2039
2056,2067,2078,2083,1984,2092,2067,2063
2070,2081,2098,2085,1983,2046,2052,2068
2072,2066,2094,2066,1986,2044,2066,2072
2054,2039,2075,2060,2050,2044,2061,2069
2040,2028,2070,2070,2157,2049,2040,2058
2031,2020,2060,2084,2233,2060,2044,2059
2047,2033,2058,2091,2254,2084,2064,2056
2038,2034,2051,2117,2332,2104,2041,2046
2030,2018,2018,2104,2302,2091,2040,2048
2024,2016,2018,2086,2206,2070,2029,2061
2051,2044,2038,2081,2096,2051,2011,2056
2060,2061,2046,2088,2022,2064,2038,2074
2057,2057,2056,2076,1871,2040,2020,2047
2026,2050,2053,2064,1886,2019,2030,2049
2037,2060,2056,2066,1967,2021,2055,2049
2069,2068,2065,2074,2026,2037,2041,2046
2077,2069,2053,2085,2094,2052,2033,2038
2077,2059,2032,2082,2131,2061,2018,2030
2059,2059,2040,2084,2088,2055,2035,2040
2056,2058,2043,2064,2033,2030,2008,2039
2038,2057,2043,2045,2001,2017,2016,2014
2036,2062,2048,2035,2013,2029,2045,2031
2058,2062,2045,2036,2099,2043,2038,2030
2060,2058,2061,2053,2193,2059,2047,2016
2054,2056,2080,2064,2249,2064,2027,2016
2058,2063,2099,2047,2184,2069,2042,2030
2058,2075,2096,2039,2144,2079,2039,2029
2061,2068,2076,2029,2099,2070,2040,2024
2056,2049,2043,1986,1933,2036,2031,2010
2032,2017,2026,1945,1744,2032,2010,2002
2019,1996,2022,1993,1900,2074,2014,2001
2021,2010,2019,1998,1912,2071,2019,2008
2044,2018,2000,1974,1861,2047,2014,2034
2058,2023,2004,1991,1980,2017,2017,2045
2049,2050,2035,2032,2074,2007,2017,2060
2067,2065,2049,2031,2012,1994,2028,2064
2050,2047,2047,2023,1976,2005,2025,2066
2032,2039,2039,2028,2018,2040,2041,2070
2024,2039,2035,2038,2041,2039,2052,2060
2028,2052,2033,2040,2063,2027,2029,2049
2026,2031,2023,2035,2061,2014,2030,2063
2020,2011,2013,2040,2071,2019,2021,2060
2023,2024,2022,2071,2110,2042,2025,2066
2038,2054,2060,2108,2136,2060,2046,2078
2069,2083,2079,2117,2142,2072,2050,2072
2070,2081,2076,2108,2133,2068,2042,2063
2060,2074,2065,2092,2134,2068,2037,2048
2052,2059,2055,2095,2125,2066,2056,2034
2044,2048,2042,2092,2122,2073,2041,2050
2058,2038,2035,2094,2133,2074,2049,2048
2058,2032,2026,2084,2102,2065,2071,2046
2062,2031,2033,2105,2024,2049,2060,2040
2055,2032,2035,2118,2012,2040,2039,2021
2050,2050,2044,2128,2001,2028,2052,2018
2048,2044,2039,2122,2004,2040,2059,2014
2051,2043,2035,2110,2023,2043,2054,2010
2049,2037,2027,2095,2016,2037,2050,2022
2059,2040,2024,2087,1985,2057,2060,2032
2070,2045,2034,2089,2064,2078,2081,2029
2066,2042,2027,2085,2146,2073,2056,2016
2048,2030,2022,2072,2179,2052,2036,2013
2032,2021,2013,2051,2140,2030,2036,2007
2029,2031,2018,2024,2078,2038,2038,2015
2037,2035,2027,2007,2061,2044,2046,2035
2054,2050,2036,2021,2081,2049,2046,2034
2048,2039,2042,2029,2102,2053,2045,2049
2043,2044,2031,2013,2076,2049,2052,2058
2038,2037,2026,2014,2050,2042,2044,2061
2027,2034,2050,2029,2043,2035,2039,2061
2031,2048,2072,2054,2058,2034,2044,2068
2049,2061,2080,2056,2069,2038,2060,2072
2053,2053,2072,2047,2079,2045,2055,2074
2046,2054,2055,2034,2085,2052,2069,2075
2046,2059,2057,2041,2080,2058,2054,2083
2068,2064,2070,2044,2074,2064,2042,2080
2063,2064,2080,2046,2065,2054,2051,2071
2058,2052,2068,2039,2061,2049,2045,2068
2064,2047,2068,2036,2073,2051,2048,2062
2065,2038,2065,2038,2066,2038,2031,2057
2064,2031,2060,2021,2035,2037,2057,2056
2065,2024,2054,2020,2044,2049,2062,2059
2077,2040,2058,2023,2042,2048,2058,2050
2068,2045,2057,2024,2026,2046,2051,2027
2049,2050,2058,2032,2019,2008,2026,2011
2044,2050,2065,2036,2020,1985,2022,2015
2049,2055,2061,2038,2016,1997,2031,2019
2047,2045,2058,2046,2016,2037,2037,2006
2040,2032,2050,2052,2040,2056,2040,2012
2030,2026,2033,2042,2041,2060,2053,2020
2026,2031,2033,2047,2069,2060,2044,2015
2050,2057,2064,2076,2102,2032,2054,2034
2060,2074,2077,2089,2107,2038,2057,2032
2064,2082,2083,2095,2098,2060,2065,2035
2063,2072,2080,2089,2088,2076,2035,2038
2055,2058,2062,2087,2080,2083,2034,2033
2047,2050,2053,2073,2065,2085,2042,2036
2046,2047,2054,2075,2056,2082,2036,2044
2050,2042,2047,2070,2049,2063,2030,2047
2042,2038,2047,2059,2046,2026,2040,2056
2042,2035,2043,2061,2056,2007,2046,2069
2042,2045,2055,2071,2064,2025,2057,2080
2054,2058,2049,2067,2055,2043,2053,2076
2056,2053,2051,2066,2041,2054,2035,2084
2051,2049,2064,2063,2020,2044,2046,2084
2055,2042,2062,2064,2027,2053,2054,2084
2049,2035,2056,2078,2032,2046,2051,2080
2055,2034,2048,2083,2025,2023,2037,2079
2052,2032,2038,2078,1989,2008,2036,2079
2055,2032,2035,2075,1992,2025,2027,2056
2055,2031,2022,2073,2007,2046,2030,2035
2040,2021,2003,2079,2009,2034,2030,2025
2040,2025,2004,2097,2074,2025,2043,2035
2046,2033,2017,2115,2130,2063,2047,2032
2048,2035,2018,2107,2122,2090,2041,2019
2041,2026,2012,2091,2090,2093,2026,2015
2038,2012,2011,2060,2072,2064,2022,2014
2021,2008,2014,2047,2060,2050,2027,2025
2023,2023,2026,2033,2014,2036,2036,2021
2026,2038,2021,2008,1969,1995,2032,2037
2052,2058,2044,2022,1995,1956,2058,2054
2047,2062,2038,2032,1995,1979,2053,2049
2046,2058,2041,2004,1987,2022,2062,2047
2062,2072,2068,2020,2008,2053,2078,2055
2077,2088,2095,2048,2043,2069,2079,2069
2073,2080,2103,2052,2075,2080,2106,2073
2080,2079,2121,2073,2095,2086,2094,2072
2083,2089,2135,2073,2124,2068,2077,2070
2078,2092,2116,2069,2135,2066,2075,2070
2065,2085,2093,2064,2157,2067,2073,2071
2060,2073,2085,2060,2178,2071,2057,2069
2060,2069,2090,2065,2198,2073,2039,2083
2064,2081,2096,2065,2184,2087,2037,2102
2078,2088,2099,2068,2184,2112,2070,2099
2073,2083,2092,2058,2148,2124,2058,2084
2054,2069,2082,2033,1935,2093,2046,2080
2045,2054,2068,2024,1877,2015,2021,2070
2044,2052,2062,2043,1960,1968,2009,2070
2046,2052,2064,2050,2004,1988,2023,2074
2051,2050,2058,2042,2020,2017,2033,2071
2051,2043,2053,2042,2024,2029,2037,2089
2058,2044,2042,2038,2025,2021,2028,2078
2063,2049,2043,2033,2012,2011,2007,2056
2050,2051,2042,2042,2047,2041,2037,2044
2040,2052,2046,2058,2078,2068,2042,2047
2064,2057,2045,2059,2062,2075,2049,2055
2077,2052,2036,2048,2048,2073,2038,2045
2065,2048,2036,2054,2070,2111,2060,2035
2059,2045,2038,2076,2119,2158,2070,2027
2046,2048,2059,2084,2121,2131,2044,2027
2042,2032,2051,2078,2089,2045,2032,2031
2042,2019,2040,2070,2076,1970,2037,2032
2043,2025,2042,2075,2067,1974,2044,2029
2050,2031,2038,2070,2027,2000,2036,2027
2058,2035,2052,2069,2009,2006,2069,2025
2041,2046,2051,2075,2014,2011,2054,2016
2042,2052,2057,2081,2036,2020,2051,2016
2051,2062,2067,2091,2057,2027,2017,2020
2058,2054,2073,2083,2059,2026,2038,2021
2051,2053,2081,2078,2050,2025,2034,2030
2045,2052,2076,2066,2047,2014,2040,2041
2052,2053,2078,2065,2046,2027,2030,2048
2057,2047,2073,2060,2047,2030,2037,2056
2062,2046,2065,2049,2045,2036,2053,2050
2064,2048,2064,2045,2043,2044,2057,2058
2083,2058,2062,2038,2058,2055,2063,2058
2063,2049,2055,2040,2067,2065,2081,2078
2055,2055,2055,2050,2068,2073,2077,2085
2026,2051,2030,2038,2024,2066,2058,2081
2027,2036,2003,2020,2026,2046,2044,2084
2034,2035,1992,2021,2019,2037,2064,2093
2058,2053,2001,2025,2016,2031,2054,2093
2065,2045,2022,2042,2016,2017,2055,2075
2061,2050,2038,2046,2037,2005,2029,2053
2051,2044,2037,2067,2092,2032,2041,2055
2054,2046,2039,2080,2115,2030,2032,2058
2050,2047,2034,2079,2142,2036,2032,2052
2043,2051,2049,2093,2199,2068,2052,2043
2034,2043,2049,2085,2174,2070,2044,2034
2024,2022,2038,2052,2070,2061,2045,2030
2033,2036,2045,2015,1941,2056,2060,2039
2076,2068,2091,2023,1891,2053,2034,2031
2081,2064,2100,2015,1888,2039,2021,2030
2085,2065,2107,2022,1957,2010,2021,2033
2080,2068,2117,2058,2086,2016,2045,2026
2080,2066,2103,2074,2147,2052,2060,2021
2050,2035,2074,2057,2146,2059,2059,2014
2025,2028,2054,2047,2130,2066,2053,2026
2037,2038,2061,2038,2050,2045,2044,2025
2051,2051,2075,2032,2012,2044,2055,2023
2051,2059,2083,2043,2044,2052,2036,2026
2040,2064,2072,2049,2072,2058,2050,2026
2038,2072,2072,2055,2087,2067,2068,2039
2044,2072,2073,2054,2073,2079,2068,2047
2052,2062,2072,2054,2070,2081,2072,2059
2055,2057,2062,2041,2059,2088,2056,2066
2050,2049,2050,2034,2078,2094,2051,2076
2053,2051,2052,2036,1987,2091,2046,2066
2045,2040,2058,2048,1983,2075,2039,2058
2032,2030,2061,2060,2027,2088,2059,2065
2036,2044,2071,2075,2057,2103,2061,2064
2029,2041,2066,2066,2020,2073,2058,2060
2018,2032,2059,2056,1991,2039,2063,2073
2024,2044,2072,2076,2000,2003,2066,2090
2046,2057,2081,2079,1993,1970,2063,2082
2039,2054,2071,2065,2005,1954,2033,2059
2041,2050,2063,2069,2051,1962,2029,2056
2045,2038,2051,2065,2076,1983,2031,2058
2054,2036,2040,2060,2055,2017,2048,2042
2051,2038,2035,2054,2056,2061,2070,2031
2048,2036,2028,2044,2075,2079,2072,2028
2043,2030,2020,2047,2117,2083,2064,2019
2045,2026,2009,2063,2113,2058,2062,2019
2041,2023,2001,2054,2088,2050,2050,2001
2022,2033,2012,2063,2074,2067,2039,1993
2020,2043,2021,2062,2063,2075,2020,1988
2024,2038,2023,2062,2084,2078,2030,2007
2026,2032,2020,2060,2089,2077,2033,2008
2019,2024,2017,2047,2054,2062,2052,2016
2032,2024,2017,2024,1944,2063,2043,2016
2051,2030,2020,2003,1942,2062,2047,2033
2066,2042,2035,2012,1982,2063,2050,2029
2063,2051,2051,2023,1965,2070,2048,2019
2046,2054,2056,2025,1955,2073,2058,2019
2046,2053,2052,2024,1954,2035,2047,2041
2062,2045,2053,2026,1962,2017,2064,2060
2065,2054,2080,2034,1966,2032,2070,2072
2074,2077,2111,2045,1967,2048,2066,2075
2071,2074,2114,2039,1982,2071,2034,2068
2056,2063,2094,2025,1977,2061,2031,2043
2035,2050,2081,2019,2049,2079,2004,2046
2027,2046,2076,2018,2094,2105,2025,2057
2042,2055,2081,2028,2094,2113,2045,2062
2050,2069,2066,2009,2044,2060,2016,2064
2040,2047,2045,2005,2028,2029,2008,2057
2036,2038,2039,2024,2059,1974,2004,2065
2045,2051,2046,2067,2123,1941,2027,2072
2055,2059,2067,2104,2174,2005,2047,2063
2060,2052,2068,2126,2178,2058,2053,2063
2057,2045,2064,2110,2115,2078,2046,2049
2049,2047,2056,2104,2092,2074,2042,2047
2052,2047,2064,2113,2115,2072,2051,2047
2060,2067,2084,2123,2092,2062,2054,2041
2067,2073,2081,2122,2079,2048,2055,2042
2056,2063,2068,2120,2046,2041,2032,2028
2045,2058,2077,2113,2049,2045,2047,2027
2059,2063,2082,2085,2051,2044,2049,2023
2053,2062,2074,2060,2077,2044,2048,2022
2051,2056,2065,2041,2090,2042,2047,2020
2031,2049,2049,2031,2073,2038,2040,2015
2034,2042,2037,2024,2040,2055,2047,2016
2044,2051,2052,2018,2005,2064,2051,2021
2049,2045,2056,1987,1965,2065,2031,2026
2041,2043,2053,1977,1938,2058,2039,2030
2046,2049,2053,1972,1935,2018,2036,2043
2056,2047,2037,1995,2012,2016,2040,2040
2050,2046,2042,2047,2097,2041,2054,2032
2047,2029,2058,2088,2164,2029,2071,2051
2054,2030,2065,2119,2214,2060,2055,2063
2061,2034,2064,2133,2204,2073,2062,2053
2058,2034,2058,2137,2173,2067,2048,2054
2052,2033,2038,2126,2093,2052,2045,2055
2036,2026,2023,2121,2058,2056,2062,2059
2028,2032,2021,2112,2052,2061,2067,2069
2032,2034,2008,2096,2050,2054,2056,2061
2033,2035,2009,2084,2035,2051,2047,2073
2038,2030,2015,2070,2036,2044,2056,2074
2045,2030,1997,2048,2028,2047,2028,2073
2048,2029,1992,2022,1992,2041,2053,2070
2044,2020,1984,2006,2012,2041,2031,2061
2059,2042,2013,2016,2035,2041,2042,2056
2057,2049,2029,2007,2035,2029,2053,2054
2057,2046,2031,1998,2011,2024,2056,2058
2052,2042,2016,1985,1994,2023,2056,2050
2060,2044,1994,1964,1991,2019,2050,2045
2053,2039,2000,1973,1994,2018,2054,2041
2056,2044,2015,1988,1984,2017,2041,2026
2052,2047,2021,1990,1976,2017,2054,2027
2063,2056,2032,2010,2007,2021,2052,2036
2060,2052,2028,2024,2016,2006,2046,2034
2060,2036,2011,2009,2018,2003,2044,2037
2054,2033,2009,2020,2040,2035,2048,2013
2044,2021,2024,2028,2076,2063,2046,2010
2038,2028,2041,2032,2090,2083,2058,2025
2050,2041,2039,2018,2083,2083,2063,2035
2057,2039,2040,2000,2037,2073,2074,2044
2062,2049,2056,2009,2025,2065,2077,2048
2066,2055,2097,2024,2026,2063,2076,2048
2062,2060,2118,2040,2041,2062,2075,2048
2061,2059,2120,2041,2050,2057,2057,2056
2060,2050,2099,2034,2055,2052,2052,2052
2061,2035,2081,2049,2095,2080,2062,2077
2073,2052,2095,2066,2096,2086,2067,2079
2066,2062,2091,2061,2075,2085,2076,2080
2060,2051,2077,2049,2049,2068,2076,2085
2060,2043,2073,2050,2062,2067,2069,2100
2076,2055,2076,2058,2096,2073,2057,2091
2056,2053,2067,2065,2087,2054,2047,2084
2044,2056,2066,2083,2071,2048,2034,2094
2045,2053,2064,2088,2071,2053,2036,2094
2047,2054,2059,2080,2065,2038,2033,2083
2057,2064,2061,2068,2060,2032,2032,2091
2067,2067,2059,2067,2062,2041,2037,2083
2069,2066,2064,2069,2061,2044,2052,2064
2065,2077,2068,2064,2045,2037,2029,2054
2061,2063,2063,2046,2022,2021,2024,2060
2061,2054,2054,2052,2036,2020,2055,2049
2056,2052,2052,2057,2047,2033,2051,2050
2053,2043,2047,2052,2024,2035,2058,2056
2059,2044,2061,2056,2022,2028,2058,2042
2061,2062,2085,2073,2039,2036,2059,2029
2065,2072,2102,2091,2065,2053,2060,2026
2057,2067,2089,2086,2053,2070,2059,2024
2049,2053,2077,2073,2017,2068,2040,2021
2055,2048,2070,2071,2000,2055,2024,2028
2062,2048,2080,2077,1998,2041,2019,2034
2064,2054,2075,2090,2046,2014,2034,2037
2061,2050,2074,2119,2140,2031,2033,2022
2055,2046,2088,2136,2203,2078,2050,2029
2062,2041,2082,2138,2238,2113,2053,2041
2060,2030,2064,2127,2270,2145,2053,2044
2056,2030,2052,2118,2310,2142,2064,2047
2054,2037,2045,2113,2326,2142,2061,2054
2057,2037,2043,2096,2316,2155,2049,2057
2056,2040,2039,2080,2233,2140,2074,2064
2049,2040,2040,2074,2130,2100,2056,2071
2051,2041,2028,2064,1979,2013,2050,2074
2056,2036,2015,2050,1932,1958,2050,2076
2052,2036,2011,2028,1854,1948,2051,2078
2045,2028,1997,2010,1814,1946,2032,2065
2038,2028,1994,2009,1898,1963,2036,2071
2042,2040,2009,2008,1953,1998,2042,2075
2049,2045,2005,2003,2002,2035,2059,2080
2062,2050,1998,2002,2022,2059,2057,2087
2082,2051,1995,2005,2004,2080,2064,2081
2088,2058,1996,2009,2030,2084,2075,2069
2085,2055,2004,2002,2004,2084,2078,2055
2087,2062,2016,2019,2013,2063,2053,2050
2072,2052,2026,2036,2041,2065,2061,2047
2061,2049,2039,2045,2022,2064,2064,2045
2040,2047,2035,2008,1880,2014,2047,2025
2042,2048,2043,1991,1846,1979,2044,2032
2077,2053,2048,2003,1948,1983,2057,2045
2093,2052,2042,2015,2006,2005,2058,2042
2098,2051,2032,2019,2026,2017,2050,2021
2083,2027,2021,2010,2006,2004,2027,2004
2046,2004,2015,2009,1979,2007,2044,2002
2036,2022,2038,2026,1991,2026,2042,2009
2029,2054,2073,2052,2006,2038,2063,2013
2032,2077,2085,2067,2033,2064,2066,2035
2054,2080,2072,2065,2031,2071,2064,2036
2060,2068,2056,2044,2003,2080,2060,2035
2066,2059,2049,2034,2002,2077,2069,2031
2056,2061,2047,2044,2011,2036,2060,2050
2061,2052,2049,2042,2012,2004,2044,2053
2055,2052,2049,2044,2002,2001,2033,2048
2057,2044,2048,2034,1995,2029,2040,2052
2046,2039,2051,2029,1995,2062,2044,2045
2042,2039,2045,2026,2001,2064,2050,2061
2031,2045,2052,2031,2018,2012,2052,2086
2052,2051,2054,2056,2052,1960,2064,2098
2060,2047,2051,2050,2064,1970,2055,2090
2042,2023,2034,2039,2059,2015,2039,2076
2030,2020,2046,2051,2066,2053,2062,2058
2037,2039,2063,2061,2066,2071,2076,2071
2040,2034,2052,2051,2048,2068,2088,2072
2045,2040,2061,2048,2028,2068,2082,2082
2057,2052,2066,2045,2011,2055,2077,2075
2054,2049,2058,2042,2000,2038,2075,2074
2064,2034,2055,2044,1998,2041,2074,2068
2062,2040,2052,2045,2009,2048,2089,2057
2054,2040,2052,2037,1976,2048,2096,2052
2057,2035,2039,2032,1957,2041,2075,2039
2037,2019,2028,2023,1902,2041,2074,2026
2029,2026,2042,2039,1901,2052,2081,2037
2056,2047,2056,2054,1924,2061,2071,2044
2064,2053,2053,2057,1962,2065,2062,2029
2060,2026,2029,2042,1936,2076,2062,2014
2039,2010,2009,2007,1890,2070,2059,2019
2032,2007,2008,2023,1981,2089,2075,2024
2048,2022,2016,2058,2082,2084,2072,2007
2040,2027,2021,2057,2087,2017,2066,2009
2045,2040,2036,2052,2082,2008,2056,2012
2053,2043,2046,2066,2124,2032,2058,2021
2054,2043,2056,2079,2166,2032,2053,2025
2056,2046,2056,2089,2161,2005,2056,2036
2050,2048,2067,2081,2124,2004,2062,2040
2046,2051,2072,2082,2109,2029,2066,2058
2050,2058,2078,2081,2124,2070,2073,2074
2056,2059,2066,2067,2118,2095,2086,2078
2066,2052,2049,2056,2111,2112,2084,2086
2062,2051,2044,2041,2080,2112,2080,2081
2066,2043,2045,2035,2052,2076,2055,2078
2063,2042,2046,2047,2049,2013,2044,2088
2049,2041,2046,2050,2041,2010,2043,2084
2055,2047,2054,2051,2013,2033,2051,2089
2049,2042,2049,2049,2012,2033,2039,2091
2051,2041,2049,2060,2024,2037,2045,2083
2049,2046,2041,2059,2032,2042,2062,2081
2069,2052,2050,2061,2011,2058,2067,2093
2079,2065,2052,2058,2005,2052,2082,2070
2068,2068,2065,2071,2028,2048,2049,2055
2056,2062,2074,2074,2049,2030,2051,2062
2073,2060,2063,2052,2027,2002,2038,2046
2065,2055,2058,2062,2066,2026,2022,2022
2051,2063,2070,2091,2138,2076,2048,2025
2053,2056,2077,2105,2166,2080,2072,2037
2042,2041,2066,2066,2132,2057,2048,2036
2049,2045,2057,2030,2114,2037,2051,2024
2021,2021,2029,2005,2048,2030,2044,2012
2020,2021,2034,2029,2064,2055,2029,2021
2033,2037,2047,2066,2124,2084,2038,2026
2045,2045,2054,2084,2150,2098,2048,2031
2032,2049,2056,2081,2131,2111,2035,2030
2039,2050,2047,2064,2098,2107,2036,2032
2038,2049,2041,2053,2086,2104,2052,2031
2040,2045,2050,2062,2126,2102,2045,2034
2044,2052,2062,2073,2144,2071,2059,2050
2049,2059,2065,2077,2129,1994,2040,2065
2062,2070,2061,2066,2065,1988,2045,2074
2051,2065,2052,2042,1957,1985,2037,2069
2051,2058,2052,2047,2006,1999,2040,2074
2061,2060,2042,2056,2058,2007,2022,2077
2050,2055,2038,2055,2066,2003,2049,2063
2033,2042,2044,2057,2086,2006,2044,2055
2028,2024,2037,2053,2074,2005,2049,2057
2021,2020,2028,2049,2051,2021,2049,2064
2023,2022,2025,2047,2039,2053,2074,2070
2039,2026,2033,2056,1967,2080,2053,2073
2048,2034,2045,2074,2018,2122,2068,2082
2065,2038,2043,2096,2085,2129,2069,2088
2069,2031,2043,2100,2092,2102,2082,2069
2064,2040,2065,2109,2112,2093,2076,2034
2041,2047,2074,2121,2147,2098,2072,2013
2022,2048,2072,2115,2158,2085,2072,2018
2033,2035,2063,2094,2127,2056,2064,2028
2036,2035,2059,2062,1963,2023,2056,2028
2049,2041,2061,2052,1907,2026,2067,2033
2055,2060,2064,2066,1988,2044,2068,2031
2055,2052,2063,2072,2016,2043,2070,2040
2059,2043,2040,2076,2006,2045,2074,2035
2051,2025,2026,2072,2024,2038,2062,2024
2032,2013,2016,2069,2055,2061,2069,2018
2040,2024,2037,2082,2086,2092,2088,2033
2065,2043,2044,2065,2100,2099,2084,2046
2064,2046,2036,2061,2119,2105,2092,2044
2053,2047,2032,2064,2153,2113,2082,2050
2048,2051,2024,2056,2159,2115,2080,2050
2058,2064,2027,2048,2139,2100,2077,2051
2051,2057,2027,2034,2068,2050,2059,2049
2039,2040,2002,1992,1985,2022,2038,2032
2036,2026,1996,2001,2004,2051,2059,2044
2039,2020,1990,1986,1859,2038,2022,2039
2042,2015,2002,1968,1748,2032,2052,2046
2054,2036,2033,1972,1785,2044,2035,2060
2052,2042,2053,1986,1858,2059,2025,2069
2048,2052,2067,2011,1933,2046,2048,2071
2052,2055,2070,2032,1968,1981,2045,2084
2052,2056,2067,2039,1985,1959,2051,2104
2059,2073,2082,2054,1982,1992,2058,2111
2065,2076,2078,2049,1910,2029,2052,2102
2063,2066,2061,2017,1796,2035,2062,2084
2047,2049,2044,2005,1765,2028,2051,2066
2039,2037,2050,2018,1820,2042,2056,2061
2033,2032,2047,2008,1895,2048,2050,2052
2044,2048,2062,1996,1899,2022,2050,2059
2066,2052,2063,1998,1915,2024,2033,2054
2056,2042,2053,2011,1945,2025,2041,2034
2039,2031,2042,2028,2026,2027,2023,2017
2023,2013,2025,2031,2109,2043,2031,2016
2030,2008,2012,2049,2203,2068,2034,2025
2037,2010,2009,2061,2210,2054,2034,2014
2030,2038,2032,2081,2190,2040,2040,2019
2051,2052,2045,2087,2177,2032,2046,2041
2072,2047,2043,2079,2171,2023,2038,2029
2069,2046,2043,2072,2150,2012,2041,2017
2054,2042,2044,2070,2140,2016,2042,2020
2021,2029,2044,2068,2159,2028,2057,2019
1998,2033,2042,2052,2099,2036,2043,2030
2026,2051,2044,2052,2021,2053,2038,2039
2032,2056,2046,2057,2032,2080,2040,2048
2044,2053,2042,2064,2084,2075,2028,2048
2047,2036,2039,2055,2098,2070,2020,2060
2049,2037,2030,2040,2080,2075,2048,2069
2050,2037,2027,2028,2052,2066,2042,2059
2034,2033,2032,2030,2052,2057,2038,2054
2035,2052,2046,2039,2015,2037,2061,2064
2047,2062,2061,2043,2024,2012,2046,2072
2042,2064,2064,2053,2055,2019,2083,2086
2047,2064,2071,2083,2118,2027,2079,2108
2050,2061,2069,2089,2151,2044,2068,2119
2061,2064,2071,2085,2140,2060,2067,2133
2079,2070,2060,2062,2093,2077,2069,2135
2083,2056,2030,2019,2040,2063,2062,2113
2072,2042,2025,2003,2106,2059,2044,2087
2083,2048,2031,2018,2155,2063,2060,2078
2083,2054,2036,2024,2116,2053,2035,2065
2074,2039,2039,2036,2075,2040,2044,2047
2043,2036,2048,2044,2024,2051,2017,2007
1985,2036,2043,2046,1956,2029,2001,2005
1994,2040,2038,2014,1807,2003,2000,2006
2001,2029,2029,2005,1869,2007,1993,1995
2010,2041,2034,2019,1956,1994,2021,2012
2020,2039,2040,2035,1973,1997,2015,2027
2054,2047,2041,2055,2005,2026,2025,2038
2063,2061,2048,2076,2063,2037,2037,2040
2060,2059,2048,2071,2110,2041,2048,2031
2056,2057,2050,2088,2133,2049,2034,2034
2061,2060,2048,2091,2122,2061,2035,2033
2053,2059,2046,2085,2110,2086,2056,2043
2054,2056,2046,2077,2099,2112,2073,2052
2060,2070,2046,2080,2131,2133,2069,2056
2062,2066,2037,2062,2105,2127,2081,2044
2058,2053,2020,2037,2032,2115,2068,2041
2048,2046,2024,2054,2069,2108,2058,2045
2038,2053,2043,2057,2092,2089,2057,2054
2033,2063,2057,2061,2116,2043,2049,2060
2038,2070,2070,2067,2068,2013,2048,2074
2038,2065,2064,2060,2023,1983,2033,2073
2043,2052,2065,2054,2049,1956,2052,2094
2064,2063,2088,2065,2093,1988,2060,2104
2065,2072,2087,2067,2126,2025,2060,2090
2060,2058,2082,2069,2148,2040,2052,2076
2050,2055,2074,2054,2097,2044,2047,2066
2044,2053,2068,2040,2082,2068,2047,2071
2051,2047,2062,2057,2134,2085,2063,2070
2051,2049,2068,2085,2153,2097,2078,2065
2049,2060,2072,2088,2097,2098,2064,2066
2060,2076,2072,2076,2049,2081,2064,2059
2036,2066,2059,2040,1953,2042,2041,2045
2029,2054,2047,2004,1781,2001,2041,2036
2040,2050,2044,2032,1935,1996,2028,2034
2045,2050,2052,2055,2045,2019,2031,2040
2041,2052,2049,2056,2055,2045,2019,2038
2048,2044,2044,2050,2042,2039,2013,2035
2048,2044,2042,2032,2019,2022,2016,2034
2058,2050,2045,2032,2076,2035,2035,2027
2041,2050,2048,2043,2108,2032,2043,2005
2023,2046,2047,2043,2100,2031,2047,2016
2029,2039,2045,2038,2052,2020,2049,2030
2045,2048,2053,2033,2001,1996,2057,2037
2050,2047,2044,2031,2024,1992,2040,2038
2051,2042,2037,2038,2062,2008,2040,2042
2056,2051,2044,2041,2055,2022,2039,2039
2053,2061,2052,2052,2058,2044,2066,2046
2064,2067,2062,2055,1975,2072,2065,2036
2060,2063,2076,2061,1978,2097,2080,2033
2056,2059,2073,2080,2048,2109,2076,2042
2062,2062,2064,2073,2030,2088,2059,2057
2059,2058,2057,2046,1948,2061,2067,2068
2069,2044,2047,2038,1938,2083,2056,2082
2055,2047,2047,2054,1963,2088,2031,2077
2043,2034,2049,2055,2056,2054,2051,2076
2053,2050,2060,2067,2080,2006,2059,2083
2052,2029,2035,2045,2028,2005,2044,2077
2032,2021,2030,2007,1932,2008,2053,2063
2010,2035,2032,2004,1989,2015,2035,2036
2011,2031,2018,2013,2100,2011,2018,2025
2012,2019,2009,2024,2169,2008,2034,2035
2020,2025,2025,2050,2096,2008,2044,2050
2029,2034,2036,2061,1956,2004,2058,2040
2034,2048,2049,2058,1933,2020,2052,2032
2042,2062,2058,2079,1991,2047,2054,2023
2039,2056,2052,2077,2055,2045,2057,2013
2036,2047,2046,2069,2091,2057,2053,2010
2043,2045,2044,2061,2082,2068,2049,1991
2033,2041,2048,2064,2060,2074,2044,2006
2047,2022,2038,2058,2022,2072,2058,2009
2050,2027,2035,2039,2000,2057,2041,1999
2035,2025,2038,2030,2020,2008,2045,2007
2038,2023,2037,2042,2055,1992,2055,2025
2050,2032,2048,2053,2084,2016,2068,2034
2060,2048,2056,2063,2102,2050,2065,2014
2034,2047,2054,2057,2093,2054,2047,2011
2027,2036,2039,2043,2064,2042,2026,2018
2045,2036,2041,2032,2059,2034,2039,2006
2049,2035,2047,2038,2066,2032,2013,2006
2035,2035,2050,2050,2078,2049,2029,2012
2029,2041,2054,2060,2089,2072,2049,2032
2042,2047,2058,2061,2088,2085,2064,2043
2038,2052,2055,2061,2074,2082,2057,2054
2039,2064,2062,2065,2075,2080,2072,2071
2043,2085,2066,2071,2078,2077,2068,2075
2048,2081,2064,2071,2080,2081,2077,2070
2032,2062,2060,2075,2084,2079,2062,2065
2016,2040,2052,2074,2070,2085,2061,2054
2011,2025,2043,2057,2058,2071,2050,2052
2025,2029,2042,2051,2042,2069,2057,2084
2057,2046,2057,2053,2043,2059,2068,2085
2065,2043,2050,2052,2036,2034,2061,2077
2054,2054,2059,2055,2037,2020,2066,2071
2052,2059,2063,2066,2049,2036,2069,2061
2064,2065,2065,2060,2046,2035,2061,2064
2060,2055,2057,2053,2035,2016,2045,2040
2034,2040,2043,2044,2042,2020,2049,2025
2033,2046,2051,2056,2051,2038,2060,2023
2041,2052,2060,2066,2074,2061,2090,2044
2058,2057,2069,2071,2080,2064,2088,2037
2058,2056,2065,2065,2075,2047,2066,2029
2048,2060,2063,2059,2065,2029,2056,2021
2049,2052,2060,2061,2063,2015,2043,2025
2045,2057,2056,2063,2072,2049,2045,2017
2040,2043,2046,2055,2056,2105,2045,2009
2033,2031,2043,2053,2035,2157,2072,2008
2040,2040,2045,2062,2011,2181,2078,2019
2044,2041,2056,2058,2038,2120,2073,2023
2054,2043,2046,2062,2041,2041,2076,2033
2054,2047,2047,2054,2039,2038,2076,2038
2058,2052,2049,2053,2040,2044,2087,2048
2058,2049,2044,2055,2051,2033,2078,2038
2046,2047,2052,2059,2050,2035,2056,2037
2035,2039,2053,2064,2053,2029,2060,2040
2042,2041,2045,2058,2059,2029,2059,2047
2043,2034,2041,2057,2068,2025,2062,2055
2036,2034,2040,2058,2068,2012,2045,2056
2036,2032,2041,2057,2083,2020,2050,2057
2036,2037,2036,2058,2098,2024,2054,2059
2039,2033,2035,2056,2103,2023,2040,2070
2034,2021,2019,2054,2103,2019,2049,2079
2037,2020,2008,2038,2053,2023,2048,2079
2049,2029,2009,2034,1996,2028,2053,2081
2058,2038,2012,2037,2016,2050,2051,2076
2053,2041,2004,2030,2032,2098,2051,2053
2044,2034,2010,2031,2033,2128,2056,2046
2034,2030,2001,2022,2018,2128,2033,2046
2043,2030,2002,2018,2012,2103,2068,2039
2050,2032,2004,2029,2042,2075,2049,2035
2047,2032,2010,2040,2055,2018,2038,2041
2041,2037,2018,2042,2056,2001,2046,2043
2037,2042,2029,2045,2048,2002,2045,2043
2044,2059,2043,2038,1957,1984,2018,2041
2050,2064,2048,2035,1890,2005,2011,2032
2052,2052,2049,2042,1908,2053,2021,2017
2050,2042,2052,2050,1934,2072,2019,2008
2042,2041,2058,2055,1972,2059,2020,2010
2041,2048,2069,2053,2000,2041,2007,2006
2034,2051,2082,2053,2027,2042,2028,2008
2040,2054,2080,2047,2016,2024,2014,2020
2041,2051,2063,2041,2038,2007,2040,2029
2045,2049,2070,2044,2036,2005,2025,2044
2048,2049,2080,2045,2083,2021,2052,2032
2054,2049,2084,2058,2098,2059,2048,2030
2063,2052,2084,2057,2085,2080,2044,2029
2050,2042,2057,2055,2116,2078,2050,2025
2045,2038,2053,2048,2127,2048,2047,2037
2042,2043,2058,2045,2077,1989,2044,2055
2054,2040,2068,2057,2060,1982,2047,2065
2059,2040,2065,2050,1952,2015,2066,2069
2059,2034,2060,2050,1972,2060,2066,2063
2053,2029,2058,2061,2049,2078,2075,2057
2050,2024,2057,2065,2056,2069,2060,2052
2027,2028,2062,2069,2048,2062,2047,2052
2012,2043,2068,2073,2037,2073,2053,2065
2027,2056,2068,2058,2034,2075,2051,2065
2041,2052,2063,2061,2051,2060,2054,2057
2034,2050,2060,2064,2073,2053,2052,2041
2022,2038,2051,2051,2068,2062,2049,2034
2022,2037,2054,2053,2062,2074,2048,2032
2021,2042,2056,2048,2047,2078,2052,2031
2036,2057,2068,2059,2035,2077,2057,2029
2045,2065,2076,2055,2039,2057,2072,2037
2044,2064,2086,2061,2056,2032,2085,2047
2049,2068,2084,2060,2058,2022,2054,2038
2045,2062,2084,2056,2060,2032,2061,2042
2049,2069,2077,2059,2068,2051,2078,2040
2054,2060,2076,2069,2074,2061,2066,2039
2058,2062,2074,2062,2038,2076,2054,2032
2050,2050,2061,2054,2048,2098,2055,2027
2041,2048,2046,2052,2033,2137,2068,2030
2041,2047,2040,2059,2031,2144,2058,2032
2045,2050,2046,2047,2009,2108,2055,2029
2050,2042,2045,2042,2021,2096,2068,2033
2043,2046,2050,2030,2012,2118,2057,2032
2037,2048,2050,2017,1963,2126,2047,2039
2039,2057,2054,2010,2032,2116,2035,2047
2033,2054,2048,2025,2061,2078,2034,2059
2037,2053,2041,2030,2064,2030,2041,2070
2044,2052,2047,2040,2087,1997,2033,2074
2053,2051,2045,2040,2100,1995,2051,2094
2051,2050,2046,2050,2128,2018,2058,2098
2058,2052,2042,2052,2122,2046,2051,2091
2057,2049,2055,2055,2137,2048,2059,2084
2051,2041,2050,2033,1997,2026,2036,2074
2034,2032,2052,2012,1978,2033,2028,2067
2026,2040,2060,2011,2059,2053,2032,2062
2032,2046,2059,2027,2111,2060,2039,2061
2032,2040,2060,2036,2065,2037,2034,2061
2043,2045,2053,2029,2018,2018,2033,2070
2051,2051,2056,2034,2010,1992,2036,2053
2041,2048,2047,2028,2006,1966,2035,2046
2028,2034,2042,2034,2022,1975,2029,2036
2028,2036,2043,2043,2030,1989,2041,2033
2032,2033,2041,2037,2020,1998,2035,2041
2037,2033,2039,2038,2025,2013,2041,2047
2040,2037,2044,2041,2033,2022,2037,2037
2040,2037,2037,2050,2050,2024,2024,2029
2040,2028,2019,2063,2084,2048,2018,2029
2037,2023,2012,2065,2081,2065,2042,2030
2028,2016,2013,2073,2068,2082,2044,2015
2018,2008,2009,2070,2057,2080,2028,2015
2023,2005,2020,2072,2064,2074,2052,2024
2029,2011,2026,2078,2060,2082,2074,2027
2034,2022,2027,2079,2057,2069,2056,2031
2036,2024,2031,2079,2052,2069,2058,2032
2034,2033,2027,2078,2056,2061,2051,2020
2025,2042,2017,2080,2060,2046,2042,2028
2030,2039,2002,2073,2061,2048,2048,2045
2036,2025,1993,2066,2060,2060,2057,2051
2027,2016,1989,2061,2061,2058,2048,2048
2031,2027,1976,2044,2058,2051,2043,2059
2029,2037,1973,2018,2046,2044,2044,2066
2026,2024,1966,1987,2031,2024,2035,2063
2025,2027,1991,1981,2028,2026,2023,2070
2028,2038,2040,1989,2036,2028,2027,2071
2039,2061,2076,1993,2031,2021,2020,2072
2035,2053,2076,1994,2029,2032,2037,2083
2039,2054,2070,1998,2028,2049,2044,2092
2049,2061,2084,2005,2011,2041,2059,2089
2049,2062,2091,2010,1998,2033,2073,2089
2057,2068,2097,2016,1997,2031,2046,2090
2053,2066,2095,2006,2001,2028,2040,2071
2062,2059,2094,2019,2038,2052,2061,2061
2065,2067,2095,2050,2082,2072,2078,2056
2072,2073,2095,2059,2090,2065,2071,2044
2070,2071,2092,2052,2079,2060,2061,2040
2048,2054,2080,2043,2065,2053,2058,2047
2041,2056,2071,2034,2024,2050,2061,2032
2013,2045,2056,2027,1990,2031,2048,2028
2018,2048,2055,2016,1966,2021,2038,2033
2028,2050,2045,2005,1960,2019,2038,2028
2038,2054,2051,2026,2009,2013,2050,2037
2044,2052,2060,2044,2064,2027,2068,2036
2041,2057,2061,2051,2097,2054,2067,2034
2052,2064,2069,2062,2106,2065,2068,2026
2040,2061,2066,2058,2088,2060,2055,2017
2039,2060,2062,2049,2076,2049,2055,2027
2047,2052,2057,2051,2069,2040,2064,2039
2047,2048,2054,2050,2061,2042,2059,2047
2056,2050,2061,2050,2063,2050,2055,2047
2049,2051,2060,2044,2068,2068,2070,2052
2046,2049,2055,2040,2066,2086,2058,2060
2039,2045,2053,2042,2060,2095,2070,2061
2038,2038,2050,2042,2064,2092,2044,2073
2027,2038,2055,2039,2058,2084,2057,2076
2034,2040,2058,2042,2056,2081,2066,2086
2039,2044,2056,2042,2041,2087,2064,2082
2037,2045,2052,2040,2034,2089,2064,2070
2033,2031,2047,2036,2038,2044,2055,2071
2034,2033,2046,2033,2036,2042,2061,2080
2031,2046,2050,2043,2037,2048,2060,2069
2042,2043,2046,2044,2032,2048,2068,2060
2038,2044,2045,2033,2027,2055,2047,2056
2037,2041,2036,2032,2026,2064,2042,2046
2037,2036,2033,2031,2042,2055,2024,2040
2038,2038,2038,2037,2061,2052,2005,2041
2047,2045,2042,2046,2083,2089,2029,2038
2048,2045,2043,2047,2095,2110,2041,2026
2041,2043,2044,2052,2107,2042,2042,2028
2044,2043,2048,2055,2112,1969,2033,2027
2045,2041,2047,2051,2095,1986,2038,2027
2045,2033,2042,2051,2080,2024,2050,2029
2049,2041,2040,2054,2061,2026,2057,2028
2054,2056,2052,2050,1947,2009,2057,2019
2036,2038,2039,2026,1920,2009,2036,2014
2034,2028,2028,2024,1954,2035,2043,2018
2041,2027,2034,2041,1990,2053,2037,2019
2043,2038,2032,2034,1994,2054,2039,2019
2037,2028,2037,2034,2016,2030,2039,2020
2037,2033,2040,2047,2055,2012,2048,2027
2047,2034,2042,2056,2082,2035,2068,2033
2049,2038,2043,2058,2088,2059,2048,2045
2039,2031,2039,2052,2072,2080,2066,2044
2038,2027,2028,2048,2080,2099,2070,2052
2047,2033,2035,2052,2084,2089,2078,2058
2042,2046,2055,2056,2078,2086,2057,2055
2049,2057,2059,2055,2078,2076,2056,2060
2052,2054,2055,2052,2072,2067,2049,2067
2048,2048,2054,2051,2070,2056,2044,2070
2049,2044,2048,2044,2056,2061,2026,2071
2046,2036,2039,2043,2045,2043,2023,2068
2046,2035,2041,2039,2033,2039,2031,2070
2054,2054,2048,2047,2032,2045,2048,2063
2054,2053,2047,2047,2035,2042,2036,2056
2049,2057,2047,2046,2036,2030,2010,2051
2047,2054,2044,2046,2035,2037,2040,2054
2053,2056,2056,2047,2042,2049,2030,2055
2051,2055,2053,2050,2044,2044,2037,2046
2056,2054,2055,2049,2033,2034,2048,2042
2053,2045,2048,2045,2033,2031,2058,2040
2048,2047,2053,2049,2035,2034,2056,2034
2046,2046,2044,2045,2032,2025,2048,2029
2050,2041,2041,2043,2032,2019,2055,2033
2046,2046,2048,2037,2032,2018,2048,2025
2049,2042,2042,2036,2025,2027,2045,2018
2045,2042,2041,2043,2032,2026,2056,2016
2048,2041,2039,2037,2036,2034,2040,2014
2041,2033,2037,2037,2046,2039,2042,2020
2048,2043,2041,2044,2064,2037,2032,2009
2039,2042,2042,2044,2049,2055,2035,2004
2030,2032,2037,2030,2046,2079,2036,2008
2019,2029,2034,2034,2043,2075,2022,2014
2033,2032,2042,2038,2053,2076,2040,2024
2034,2034,2037,2037,2054,2083,2044,2031
2040,2034,2040,2043,2051,2066,2051,2043
2042,2033,2039,2039,2050,2024,2046,2044
2044,2037,2035,2036,2043,2027,2044,2051
2043,2038,2036,2033,2038,2045,2049,2052
2037,2039,2036,2030,2041,2031,2033,2069
2050,2039,2041,2045,2041,2016,2038,2086
2049,2033,2038,2045,2042,2018,2044,2094
2047,2025,2025,2037,2036,2044,2058,2092
2043,2020,2016,2028,2042,2069,2058,2093
2049,2021,2020,2029,2050,2081,2072,2086
2054,2034,2030,2040,2063,2101,2063,2086
2062,2041,2025,2044,2064,2090,2069,2086
2057,2028,2020,2037,2050,2074,2077,2084
2051,2032,2019,2038,2042,2057,2057,2073
2050,2035,2022,2044,2045,2039,2051,2061
2052,2031,2025,2040,2039,2018,2032,2040
2038,2032,2021,2040,2038,1988,2026,2040
2041,2031,2020,2040,2048,1993,2035,2037
2043,2031,2025,2045,2060,2007,2033,2031
2050,2038,2035,2053,2066,2021,2043,2029
2046,2033,2033,2060,2078,2054,2056,2040
2061,2045,2049,2068,2080,2068,2071,2041
2063,2057,2069,2076,2083,2066,2078,2037
2060,2054,2068,2073,2067,2050,2061,2018
2048,2044,2054,2053,2022,2032,2026,2008
2027,2022,2034,2015,1952,2005,2013,1991
2021,2015,2028,2016,1928,1993,2019,2002
2036,2033,2050,2028,1974,2004,2047,2007
2041,2049,2064,2036,2011,2009,2049,2012
2045,2046,2068,2046,2054,2020,2059,2011
2042,2050,2070,2052,2073,2044,2058,2007
2044,2050,2058,2040,2068,2085,2054,2007
2042,2042,2048,2029,2047,2094,2052,2014
2041,2048,2050,2027,2026,2092,2045,2024
2045,2050,2052,2033,2022,2083,2050,2036
2045,2049,2057,2036,2041,2084,2044,2046
2056,2053,2059,2043,2070,2115,2047,2052
2048,2048,2061,2053,2098,2152,2065,2062
2044,2048,2057,2050,2102,2171,2044,2065
2036,2044,2057,2049,2095,2198,2058,2070
2031,2047,2057,2050,2087,2208,2045,2078
2034,2049,2051,2046,2080,2194,2043,2084
2040,2049,2053,2048,2079,2177,2047,2091
2047,2060,2066,2060,2088,2095,2051,2093
2057,2066,2071,2056,2083,2000,2056,2088
2059,2065,2059,2053,2078,1984,2070,2084
2051,2056,2054,2046,2070,1977,2030,2077
2061,2059,2053,2042,2063,1979,2032,2068
2052,2053,2048,2042,2071,1995,2061,2061
2059,2053,2047,2043,2066,2007,2053,2059
2056,2056,2052,2046,2059,2025,2063,2051
2058,2056,2050,2046,2047,2035,2051,2043
2053,2050,2046,2037,2024,2031,2028,2037
2051,2053,2047,2034,2013,2005,2034,2030
2047,2045,2045,2031,2008,2010,2051,2028
2049,2044,2034,2026,1979,2010,2034,2016
2042,2042,2044,2023,1974,2003,2043,2015
2043,2043,2039,2025,1956,2008,2032,2010
2038,2034,2024,2002,1900,2000,2023,1999
2037,2027,2019,1992,1880,2003,2026,1995
2038,2033,2023,1989,1888,2014,1997,1993
2031,2033,2025,2014,1956,2005,2027,2007
2041,2042,2044,2059,2056,1993,2040,2019
2044,2042,2053,2064,2112,2032,2035,2036
2040,2040,2061,2084,2188,2078,2044,2049
2049,2052,2073,2111,2208,2110,2052,2048
2058,2053,2071,2104,2162,2116,2059,2042
2047,2033,2063,2083,2113,2134,2048,2036
2037,2022,2050,2080,2102,2141,2050,2032
2032,2029,2051,2092,2095,2124,2052,2042
2038,2042,2048,2093,2078,2107,2045,2057
2045,2045,2042,2090,2076,2107,2057,2057
2042,2042,2035,2086,2069,2104,2054,2052
2034,2033,2031,2080,2056,2063,2049,2065
2030,2037,2028,2090,2085,2025,2038,2068
2030,2029,2017,2088,2117,2055,2045,2076
2039,2023,2006,2076,2110,2079,2053,2074
2039,2033,2011,2070,2089,2085,2029,2069
2033,2035,2003,2056,2058,2071,2052,2061
2037,2031,1994,2033,2028,2052,2027,2047
2031,2024,1995,2004,2011,2022,2026,2042
2032,2032,2002,1994,2012,1987,2012,2041
2039,2041,2004,1981,1997,1967,2001,2046
2050,2030,1987,1962,1976,1966,2038,2046
2042,2025,1983,1953,1958,1965,2047,2037
2044,2023,1990,1948,1945,1975,2036,2031
2037,2029,2001,1947,1939,1994,2036,2023
2034,2035,2027,1966,1967,2028,2035,2023
2044,2055,2073,1997,2025,2068,2034,2020
2054,2072,2099,2026,2085,2090,2062,2024
2055,2074,2108,2041,2121,2099,2068,2031
2059,2065,2093,2034,2115,2117,2087,2032
2054,2050,2067,2027,2076,2124,2058,2021
2051,2053,2056,2023,2051,2155,2062,2015
2047,2056,2050,2015,2029,2124,2052,2017
2047,2056,2049,2014,2017,2010,2034,2015
2052,2061,2054,2009,2018,1953,2038,2031
2047,2062,2055,2011,2032,1972,2052,2037
2050,2064,2058,2034,2063,1986,2067,2056
2056,2061,2055,2041,2058,2003,2049,2052
2051,2054,2042,2018,2025,2015,2051,2047
2052,2060,2051,2019,2016,2032,2052,2057
2050,2056,2052,2014,2004,2038,2042,2062
2052,2056,2057,2010,1988,2036,2050,2071
2052,2072,2074,2021,1989,2032,2048,2068
2040,2078,2083,2024,1986,2047,2042,2064
2037,2066,2077,2021,2005,2064,2052,2065
2051,2070,2082,2041,2058,2081,2045,2074
2052,2065,2089,2054,2101,2088,2036,2078
2058,2065,2087,2060,2114,2081,2056,2075
2056,2065,2079,2060,2112,2070,2057,2070
2048,2051,2065,2049,2099,2060,2060,2067
2051,2052,2062,2043,2096,2062,2052,2064
2052,2058,2061,2055,2085,2056,2049,2056
2059,2063,2057,2047,2065,2053,2039,2055
2054,2059,2057,2038,2051,2046,2043,2049
2053,2056,2051,2036,2036,2045,2036,2046
2045,2044,2050,2026,2030,2043,2033,2039
2049,2040,2043,2018,2031,2040,2028,2039
2051,2042,2039,2020,2013,2038,2017,2032
2048,2042,2042,2022,2008,2040,2027,2024
2049,2052,2045,2029,2024,2049,2037,2026
2053,2058,2050,2028,2023,2041,2051,2025
2049,2055,2043,2017,2019,2035,2043,2014
2041,2044,2044,2022,2046,2054,2053,2018
2045,2042,2040,2029,2094,2081,2069,2032
2058,2056,2056,2051,2124,2101,2073,2037
2055,2056,2055,2046,2089,2091,2052,2036
2062,2051,2057,2044,2063,2084,2052,2042
2056,2046,2051,2042,2061,2073,2056,2040
2051,2045,2044,2034,2070,2070,2045,2030
2049,2043,2051,2029,2052,2059,2045,2037
2053,2047,2048,2031,2022,2052,2055,2035
2053,2050,2050,2031,2022,2074,2054,2031
2051,2043,2050,2031,2021,2085,2033,2039
2049,2045,2052,2032,2007,2071,2031,2042
2049,2044,2043,2025,1992,2055,2009,2043
2040,2035,2044,2022,1991,2025,2017,2057
2042,2037,2041,2033,2030,2002,2042,2068
2051,2045,2051,2059,2084,2018,2046,2074
2053,2042,2062,2071,2104,2038,2059,2071
2043,2028,2052,2069,2102,2049,2054,2073
2041,2028,2042,2066,2090,2042,2042,2075
2046,2032,2043,2070,2071,2037,2045,2073
2044,2032,2040,2074,2063,2053,2048,2071
2049,2039,2035,2079,2067,2064,2051,2069
2057,2036,2028,2083,2064,2068,2071,2064
2054,2034,2021,2075,2062,2060,2070,2051
2055,2032,2012,2068,2056,2054,2037,2041
2052,2032,1996,2064,2056,2054,2032,2039
2041,2028,1983,2058,2050,2052,2035,2035
2038,2019,1979,2047,2036,2069,2015,2020
2031,2015,1968,2035,2029,2071,2030,2011
2026,2014,1969,2026,2031,2092,2044,2015
2033,2022,1975,2029,2034,2080,2045,2011
2037,2026,1978,2027,2044,2029,2039,2014
2038,2024,1982,2028,2050,2024,2030,2007
2042,2020,1981,2012,2042,2040,2028,1996
2034,2014,2004,2003,2040,2075,1996,2001
2038,2028,2036,2001,2038,2064,2024,2015
2041,2036,2056,1998,2034,2034,2014,2017
2047,2041,2071,1995,2019,2030,2017,2023
2050,2043,2070,1991,2027,2040,2023,2021
2049,2051,2084,1999,2029,2043,2049,2029
2046,2065,2097,2006,2039,2052,2062,2035
2060,2080,2113,2024,2049,2062,2067,2041
2053,2074,2115,2034,2050,2069,2054,2040
2055,2069,2108,2035,2047,2058,2051,2043
2060,2067,2101,2031,2052,2041,2050,2054
2060,2053,2087,2032,2041,2034,2060,2062
2057,2064,2088,2044,2046,1991,2039,2076
2058,2066,2087,2046,2043,1987,2034,2080
2053,2058,2079,2043,2039,2001,2046,2087
2059,2048,2067,2038,2038,2023,2057,2088
2041,2031,2046,2022,2047,2050,2027,2080
2036,2016,2030,2024,2040,2066,2032,2069
2035,2024,2036,2020,2039,2065,2018,2066
2038,2027,2039,2027,2040,2058,2023,2053
2037,2040,2044,2028,2034,2057,2034,2055
2043,2038,2048,2034,2041,2061,2031,2057
2050,2044,2046,2027,2042,2060,2040,2048
2049,2038,2048,2029,2043,2057,2051,2037
2041,2032,2043,2034,2056,2054,2049,2032
2048,2026,2036,2030,2053,2032,2039,2025
2029,2021,2024,2027,2046,2030,2040,2026
2030,2022,2031,2037,2062,2043,2042,2022
2037,2050,2051,2047,2047,2046,2040,2029
2050,2050,2054,2043,2034,2033,2054,2019
2049,2049,2038,2032,2026,2029,2018,2020
2040,2040,2039,2024,2064,2031,2036,2012
2029,2024,2028,2015,2082,2034,2037,2015
2035,2031,2034,2019,2099,2050,2058,2021
2050,2055,2060,2038,2128,2056,2066,2036
2060,2059,2061,2046,2129,2052,2055,2042
2062,2059,2060,2042,2116,2059,2037,2043
2064,2062,2060,2032,2089,2057,2032,2036
2070,2065,2056,2025,2058,2068,2040,2030
2051,2057,2054,2018,1942,2065,2030,2029
2047,2053,2052,2002,1913,2065,2029,2031
2048,2050,2051,2008,1961,2067,2021,2055
2051,2053,2053,2028,1997,2073,2044,2056
2049,2049,2053,2031,2040,2072,2057,2068
2042,2047,2047,2030,2048,2068,2065,2075
2037,2042,2046,2030,2048,2067,2030,2077
2033,2036,2036,2020,2035,2058,2040,2082
2037,2033,2036,2026,2030,2055,2034,2083
2038,2017,2031,2017,2031,2050,2039,2090
2042,2016,2030,2023,2037,2054,2040,2085
2053,2032,2036,2022,2012,2046,2030,2084
2055,2039,2043,2008,1982,2043,2025,2069
2052,2040,2034,2011,1963,2035,2015,2058
2036,2040,2039,2010,1956,2063,2035,2050
2033,2037,2036,2009,1955,2076,2064,2044
2048,2045,2053,2039,2033,2070,2062,2053
2059,2059,2064,2064,2088,2066,2070,2056
2061,2067,2070,2075,2081,2062,2066,2050
2068,2070,2070,2074,2091,2061,2050,2055
2074,2074,2065,2069,2065,2026,2051,2048
2076,2071,2062,2060,2065,1986,2031,2040
2075,2063,2067,2058,2053,1980,2022,2033
2068,2061,2068,2054,2038,1986,2016,2036
2072,2064,2066,2057,2068,2014,2045,2032
2056,2054,2061,2065,2070,2033,2043,2023
2048,2058,2066,2077,2066,2038,2050,2032
2049,2051,2065,2073,2041,2022,2043,2028
2054,2043,2056,2067,2028,2019,2061,2022
2042,2039,2049,2064,2011,2044,2052,2010
2039,2035,2029,2036,1940,2072,2057,2012
2037,2021,2014,1999,1857,2078,2049,2020
2032,2024,2013,1982,1778,2054,2023,2026
2029,2020,2021,1973,1781,1984,1995,2034
2034,2038,2039,1987,1880,1900,2032,2058
2052,2061,2052,2023,2002,1907,2032,2074
2048,2056,2053,2047,2086,1988,2059,2087
2045,2048,2050,2041,2109,2069,2059,2084
2040,2041,2052,2040,2117,2074,2060,2088
2038,2040,2056,2028,2101,2042,2053,2082
2037,2033,2031,2014,2123,2027,2033,2081
2041,2022,2033,2014,2145,2045,2038,2083
2040,2030,2036,2021,2144,2066,2054,2079
2037,2032,2031,2018,2115,2093,2050,2074
2035,2030,2023,2005,2077,2113,2046,2059
2036,2023,2013,1992,2043,2098,2056,2061
2039,2034,2026,2006,2056,2073,2075,2073
2051,2045,2046,2018,2056,2086,2084,2066
2050,2047,2052,2026,2056,2108,2106,2054
2054,2046,2050,2026,2052,2113,2076,2050
2052,2040,2045,2015,2021,2106,2081,2039
2036,2033,2034,2017,2026,2110,2059,2028
2036,2032,2033,2024,2060,2116,2050,2028
2041,2039,2041,2040,2065,2100,2062,2033
2046,2054,2050,2048,2079,2062,2063,2047
2053,2051,2051,2059,2100,2079,2081,2043
2053,2047,2038,2050,2082,2089,2074,2042
2044,2042,2033,2034,2065,2089,2047,2026
2048,2043,2035,2035,2059,2088,2050,2036
2053,2047,2034,2032,2067,2082,2073,2044
2053,2040,2029,2037,2080,2065,2073,2045
2056,2040,2028,2038,2090,2071,2078,2048
2061,2033,2026,2042,2088,2077,2076,2055
2056,2035,2017,2038,2082,2055,2057,2048
2050,2029,2018,2041,2079,2009,2067,2056
2056,2035,2028,2047,2084,1999,2073,2065
2056,2039,2027,2044,2077,2003,2075,2065
2054,2038,2018,2047,2072,2021,2077,2060
2044,2034,2011,2039,2072,2041,2053,2071
2043,2028,2016,2038,2061,2052,2054,2080
2040,2025,2013,2034,2088,2059,2039,2090
2035,2023,2013,2037,2113,2034,2018,2089
2030,2021,2008,2023,2049,1987,2017,2083
2028,2025,2006,2022,2004,1989,2014,2074
2036,2025,2012,2037,2013,2011,2030,2077
2048,2037,2017,2040,2032,2027,2040,2075
2038,2037,2021,2038,2037,2036,2057,2072
2039,2038,2025,2032,2032,2054,2062,2064
2045,2034,2025,2020,2032,2073,2058,2073
2045,2035,2034,2011,2023,2083,2071,2064
2044,2037,2049,2024,2027,2093,2050,2053
2045,2039,2068,2029,2034,2150,2068,2050
2045,2056,2079,2033,2031,2195,2061,2047
2060,2066,2094,2035,2016,2142,2066,2046
2052,2067,2091,2031,2001,2007,2042,2043
2049,2057,2078,2018,1990,1927,2040,2053
2054,2060,2074,2032,2012,1945,2061,2058
2052,2075,2100,2042,2030,1993,2062,2040
2064,2089,2117,2050,2027,2006,2039,2028
2058,2091,2127,2055,1990,1997,2025,2015
2057,2090,2119,2056,1994,1994,2025,2025
2054,2074,2100,2057,2036,2020,2044,2032
2052,2063,2083,2058,2070,2048,2057,2046
2063,2064,2082,2062,2085,2063,2081,2048
2071,2072,2083,2061,2066,2061,2062,2045
2068,2069,2078,2055,2049,2054,2064,2048
2060,2063,2073,2048,2028,2056,2074,2060
2061,2069,2068,2041,2019,2063,2060,2064
2060,2066,2068,2040,2021,2064,2068,2063
2056,2070,2077,2035,2036,2066,2052,2064
2056,2076,2083,2054,2079,2070,2044,2068
2056,2079,2074,2054,2082,2072,2025,2065
2054,2070,2077,2064,2094,2049,2020,2079
2057,2074,2077,2064,2084,2029,2022,2080
2059,2067,2073,2045,2069,2017,2029,2083
2052,2060,2061,2043,2060,2023,2034,2080
2052,2059,2069,2048,2060,2040,2037,2084
2058,2059,2066,2048,2065,2051,2044,2075
2062,2065,2068,2058,2065,2056,2053,2076
2056,2064,2063,2060,2064,2058,2056,2071
2058,2061,2058,2054,2055,2057,2067,2061
2053,2056,2052,2051,2050,2073,2060,2056
2050,2050,2051,2055,2056,2083,2068,2052
2048,2050,2053,2056,2054,2084,2044,2043
2054,2053,2047,2060,2051,2093,2048,2040
2054,2054,2050,2059,2061,2098,2042,2042
2060,2053,2051,2060,2062,2073,2063,2041
2059,2056,2046,2064,2056,2014,2052,2035
2062,2056,2046,2062,2059,2008,2040,2032
2057,2056,2040,2049,2056,2008,2046,2027
2054,2041,2027,2034,2054,2006,2054,2020
2046,2031,2008,2026,2053,2012,2041,2030
2036,2034,2016,2027,2050,2016,2070,2033
2049,2045,2023,2026,2045,2012,2052,2028
2048,2041,2029,2035,2049,2030,2064,2036
2046,2039,2029,2039,2051,2053,2051,2034
2049,2037,2036,2037,2055,2052,2060,2039
2052,2048,2037,2043,2046,2052,2043,2041
2051,2044,2046,2044,2042,2056,2040,2050
2058,2046,2043,2044,2045,2064,2043,2047
2049,2038,2037,2035,2046,2067,2026,2055
2041,2027,2028,2033,2038,2054,2058,2057
2043,2023,2030,2036,2043,2053,2059,2063
2037,2021,2034,2035,2039,2049,2062,2067
2043,2028,2045,2035,2033,2054,2064,2077
2047,2043,2063,2046,2028,2053,2066,2082
2049,2038,2064,2045,2021,2041,2065,2080
2047,2032,2056,2042,2022,2038,2050,2078
2040,2030,2066,2046,2026,2039,2056,2087
2052,2042,2069,2048,2018,2040,2070,2085
2047,2043,2060,2044,2021,2042,2049,2073
2043,2039,2052,2035,2025,2041,2073,2066
2048,2043,2047,2026,2022,2040,2066,2066
2045,2046,2050,2021,2032,2040,2057,2064
2051,2049,2055,2028,2018,2040,2066,2064
2056,2060,2069,2049,2031,2047,2073,2064
2062,2069,2076,2050,2055,2051,2075,2068
2076,2068,2080,2054,2052,2058,2083,2060
2073,2063,2078,2060,2045,2065,2087,2059
2070,2057,2074,2058,2027,2066,2072,2055
2066,2059,2066,2062,2024,2062,2070,2043
2061,2057,2068,2066,2032,2068,2063,2042
2061,2055,2066,2061,2032,2059,2067,2030
2045,2045,2062,2042,2009,2049,2052,2016
2036,2044,2062,2042,2045,2058,2056,2031
2047,2056,2069,2061,2072,2059,2049,2031
2051,2053,2063,2055,2087,2038,2051,2031
2050,2050,2060,2056,2101,2017,2017,2028
2054,2051,2058,2052,2105,2005,2031,2027
2057,2049,2059,2047,2095,2003,2047,2033
2062,2059,2061,2040,2074,2009,2048,2044
2065,2054,2058,2041,2077,2016,2060,2049
2056,2047,2052,2029,2056,2030,2051,2044
2048,2043,2039,2014,2033,2049,2046,2046
2053,2047,2053,2032,1983,2059,2040,2063
2056,2056,2057,2036,1952,2062,2045,2071
2065,2052,2058,2032,1968,2067,2043,2073
2063,2057,2056,2039,1998,2073,2028,2075
2053,2041,2052,2038,2022,2070,2032,2072
2050,2036,2046,2028,2018,2047,2015,2068
2032,2022,2033,2010,1975,2038,2008,2064
2039,2020,2032,2007,1966,2041,2024,2069
2042,2027,2037,2014,1976,2048,2041,2067
2041,2029,2034,2014,1969,2026,2036,2060
2037,2031,2032,2020,1981,1991,2023,2064
2049,2039,2043,2038,2037,1989,2039,2071
2061,2054,2052,2054,2098,2025,2061,2064
2056,2056,2059,2065,2115,2064,2059,2054
2055,2052,2048,2064,2106,2086,2066,2046
2055,2049,2046,2057,2096,2090,2051,2044
2052,2045,2045,2049,2089,2085,2051,2039
2056,2038,2038,2037,2080,2080,2046,2031
2050,2035,2032,2042,2067,2079,2049,2016
2046,2035,2028,2039,2068,2069,2051,2009
2043,2033,2038,2044,2055,2064,2050,2010
2042,2035,2036,2044,2048,2060,2049,2005
2047,2030,2033,2037,2032,2051,2045,2008
2044,2023,2053,2051,2035,2038,2036,2012
2045,2037,2077,2060,2028,2035,2049,2016
2050,2052,2084,2063,2030,2027,2057,2018
2058,2054,2086,2066,2014,2022,2034,2027
2064,2055,2076,2059,1995,2028,2041,2034
2058,2054,2069,2055,1995,2033,2043,2032
2058,2045,2054,2052,2002,2035,2043,2029
2049,2032,2041,2047,2006,2049,2039,2029
2043,2020,2033,2048,2025,2056,2068,2039
2051,2036,2052,2076,2045,2046,2052,2063
2057,2042,2050,2075,2038,2036,2051,2064
2062,2038,2043,2067,2018,2016,2027,2062
2050,2035,2034,2057,2012,1997,2045,2072
2045,2020,2023,2047,2047,1991,2044,2067
2037,2020,2013,2053,2084,2003,2074,2075
2049,2029,2012,2050,2097,2023,2046,2082
2049,2020,2001,2023,2077,2034,2066,2077
2047,2023,2001,2009,2064,2026,2054,2081
2052,2033,2009,2012,2052,2025,2058,2081
2053,2034,2011,2009,2045,2032,2054,2093
2067,2044,2019,2008,2037,2055,2049,2089
2068,2055,2030,2008,2049,2090,2061,2082
2072,2055,2038,2024,2063,2116,2054,2081
2084,2068,2064,2042,2065,2105,2066,2065
2073,2074,2077,2053,2066,2075,2045,2041
2066,2073,2087,2052,2044,2063,2059,2034
2045,2064,2081,2057,2040,2058,2055,2038
2044,2054,2075,2061,2055,2067,2060,2036
2047,2052,2068,2070,2067,2062,2064,2032
2049,2057,2068,2064,2077,2051,2054,2039
2058,2061,2068,2057,2050,2029,2024,2043
2064,2063,2061,2046,1989,2008,2042,2031
2056,2045,2048,2033,1985,2014,2036,2013
2036,2020,2029,2022,2000,2018,2042,2013
2040,2018,2040,2034,2002,2040,2062,2032
2046,2041,2054,2043,2001,2057,2077,2042
2051,2047,2051,2058,2014,2066,2079,2046
2062,2051,2049,2054,2027,2060,2059,2046
2065,2048,2050,2050,2019,2047,2032,2041
2055,2048,2042,2034,1975,2035,2045,2035
2051,2041,2030,2023,1942,2032,2040,2028
2050,2042,2025,2018,1947,2045,2049,2036
2033,2043,2014,2017,1999,2049,2039,2048
2042,2035,2011,2012,2034,2049,2050,2060
2057,2040,2017,2019,2048,2060,2055,2070
2059,2049,2030,2027,2048,2050,2057,2081
2057,2054,2042,2042,2066,2051,2059,2087
2056,2057,2044,2047,2087,2057,2077,2094
2060,2058,2042,2032,2103,2063,2071,2081
2046,2038,2032,2025,2120,2051,2050,2071
2042,2041,2042,2027,2097,2035,2057,2072
2048,2056,2066,2021,2006,2037,2075,2083
2048,2057,2061,2025,1988,2047,2049,2078
2046,2050,2054,2043,2031,2057,2053,2068
2038,2041,2043,2044,2060,2057,2046,2065
2037,2040,2038,2044,2061,2062,2050,2062
2039,2044,2042,2035,2062,2064,2051,2059
2048,2040,2040,2047,2068,2063,2049,2053
2053,2039,2032,2047,2061,2068,2050,2054
2046,2036,2027,2049,2063,2070,2062,2055
2050,2031,2027,2041,2048,2067,2065,2055
2052,2030,2024,2033,2047,2054,2054,2055
2052,2032,2020,2034,2045,2045,2053,2045
2049,2028,2029,2032,2041,2050,2046,2040
2043,2029,2027,2033,2043,2054,2035,2024
2030,2022,2022,2026,2036,2052,2015,2009
2025,2013,2022,2024,2033,2056,2028,2015
2029,2017,2023,2029,2041,2075,2064,2027
2044,2025,2039,2048,2056,2090,2070,2029
2047,2031,2045,2051,2071,2094,2053,2029
2051,2036,2058,2059,2063,2072,2048,2028
2058,2040,2052,2055,2050,2051,2041,2032
2059,2044,2052,2047,2049,2046,2044,2039
2068,2055,2049,2050,2046,2047,2036,2041
2064,2050,2041,2046,2049,2057,2042,2042
2060,2042,2038,2044,2047,2057,2054,2050
2053,2036,2035,2043,2046,2069,2041,2056
2038,2032,2044,2047,2049,2087,2060,2058
2038,2043,2049,2055,2048,2104,2069,2067
2033,2039,2056,2049,2050,2124,2045,2070
2040,2041,2054,2052,2048,2111,2040,2070
2046,2041,2054,2045,2039,2032,2017,2072
2042,2036,2050,2040,2031,1947,1999,2069
2044,2041,2045,2047,2050,1969,2011,2082
2055,2057,2051,2056,2045,2025,2025,2089
2058,2054,2054,2056,2044,2048,2012,2083
2058,2056,2053,2053,2036,2074,2028,2083
2059,2055,2056,2055,2036,2086,2034,2085
2062,2064,2057,2051,2033,2077,2042,2075
2057,2064,2052,2050,2031,2020,2020,2058
2054,2057,2043,2048,2025,2004,2031,2055
2047,2054,2037,2045,2024,2019,2028,2049
2046,2043,2036,2036,2027,2045,2042,2048
2050,2046,2037,2039,2032,2050,2033,2053
2055,2053,2041,2038,2036,2053,2065,2050
2061,2057,2044,2035,2032,2057,2066,2050
2057,2054,2047,2038,2031,2051,2053,2046
2057,2052,2039,2029,2021,2038,2030,2039
2047,2047,2027,2024,2021,2032,2045,2030
2046,2032,2022,2023,2015,2032,2030,2028
2040,2043,2030,2036,2024,2037,2040,2036
2044,2054,2038,2041,2026,2036,2029,2036
2047,2064,2054,2052,2029,2043,2024,2029
2056,2070,2062,2057,2019,2058,2041,2031
2053,2064,2062,2051,2046,2070,2037,2038
2051,2061,2056,2044,2050,2064,2033,2037
2056,2060,2062,2040,2038,2080,2029,2041
2052,2052,2052,2040,2032,2100,2035,2047
2049,2048,2049,2044,2031,2104,2051,2062
2050,2056,2051,2044,2051,2102,2041,2072
2059,2058,2061,2058,2070,2060,2048,2092
2061,2059,2063,2057,2052,2032,2050,2082
2053,2054,2059,2046,2082,2035,2043,2083
2054,2052,2045,2053,2085,2021,2029,2082
2049,2050,2047,2053,2074,2009,2036,2079
2040,2039,2027,2051,2064,1992,2009,2079
2038,2041,2037,2054,2050,1996,2036,2082
2050,2051,2042,2047,2037,2004,2038,2078
2051,2056,2039,2040,2039,2019,2047,2080
2055,2060,2042,2052,2041,2029,2051,2075
2053,2058,2039,2056,2046,2046,2048,2067
2060,2058,2041,2052,2036,2044,2048,2062
2052,2058,2034,2049,2030,2040,2022,2053
2048,2050,2036,2051,2027,2035,2028,2041
2045,2052,2039,2055,2027,2032,2016,2032
2045,2056,2051,2061,2041,2031,2012,2031
2046,2062,2051,2066,2062,2036,2032,2032
2052,2069,2056,2063,2055,2035,2029,2030
2060,2068,2058,2060,2029,2033,2024,2032
2054,2065,2051,2052,2001,2031,2033,2034
2056,2066,2052,2052,1994,2028,2037,2025
2046,2062,2051,2044,1989,2021,2031,2018
2044,2052,2050,2035,1999,2028,2033,2015
2054,2059,2054,2043,2013,2036,2039,2025
2054,2059,2054,2046,2036,2047,2058,2040
2060,2058,2047,2049,2044,2044,2052,2040
2059,2055,2041,2048,2028,2050,2058,2039
2050,2057,2048,2048,2031,2061,2055,2035
2044,2051,2042,2042,2056,2061,2037,2035
2037,2046,2038,2046,2080,2054,2032,2041
2032,2042,2042,2053,2088,2059,2042,2054
2040,2040,2041,2051,2085,2061,2043,2072
2046,2043,2037,2050,2077,2056,2033,2075
2044,2043,2036,2046,2067,2059,2063,2081
