CH1,CH2,CH3,CH4,CH5,CH6,CH7,CH8
2050,2057,2036,2025,2007,2011,2027,2032
2053,2058,2034,2026,2010,2019,2025,2027
2050,2060,2040,2036,2030,2038,2039,2028
2049,2063,2051,2048,2064,2054,2050,2027
2055,2071,2063,2056,2094,2064,2060,2024
2055,2060,2068,2058,2102,2069,2050,2030
2054,2052,2070,2048,2078,2080,2047,2032
2058,2055,2068,2038,2040,2082,2061,2032
2065,2042,2055,2028,2008,2064,2056,2031
2052,2038,2042,2039,2006,2058,2051,2023
2042,2032,2035,2045,2010,2029,2048,2030
2042,2042,2034,2056,2029,1985,2031,2033
2048,2048,2041,2079,2088,1985,2049,2037
2042,2048,2048,2081,2094,2013,2041,2031
2034,2053,2044,2080,2104,2031,2034,2043
2051,2058,2036,2081,2114,2053,2044,2065
2069,2054,2037,2073,2099,2052,2060,2065
2063,2049,2038,2062,2047,2044,2056,2066
2050,2040,2037,2045,2002,2030,2037,2054
2041,2034,2039,2031,2014,2024,2042,2041
2038,2029,2027,2026,2025,2030,2031,2053
2030,2029,2025,2025,2025,2031,2033,2056
2029,2033,2029,2032,2043,2040,2035,2057
2032,2038,2033,2053,2064,2051,2055,2055
2041,2046,2043,2062,2068,2055,2057,2053
2043,2053,2057,2075,2061,2053,2045,2060
2052,2062,2081,2077,2055,2056,2055,2055
2060,2067,2080,2070,2058,2061,2043,2052
2063,2064,2077,2062,2072,2063,2049,2041
2060,2065,2068,2051,2075,2059,2019,2034
2054,2053,2061,2053,2061,2065,2047,2029
2055,2057,2070,2056,2065,2065,2029,2032
2057,2062,2074,2064,2073,2075,2057,2034
2061,2075,2071,2071,2080,2079,2049,2037
2061,2072,2069,2075,2087,2083,2058,2032
2063,2071,2056,2067,2097,2078,2078,2030
2062,2059,2037,2044,2096,2071,2053,2027
2058,2042,2025,2032,2077,2051,2039,2018
2036,2021,2013,2012,2064,2042,2036,2021
2035,2030,2031,2016,2074,2051,2030,2029
2052,2060,2063,2032,2072,2060,2041,2032
2056,2058,2051,2026,2100,2071,2040,2035
2052,2045,2039,2045,2118,2080,2048,2042
2053,2042,2050,2059,2141,2071,2040,2035
2054,2044,2049,2057,2137,2054,2038,2035
2044,2038,2045,2025,2007,2047,2044,2032
2037,2038,2047,2016,1938,2050,2043,2035
2041,2036,2058,2036,1966,2064,2047,2039
2043,2048,2062,2042,1984,2056,2036,2039
2039,2040,2062,2041,2022,2038,2041,2047
2038,2040,2060,2052,2058,2024,2035,2060
2036,2045,2051,2053,2086,2036,2039,2070
2043,2046,2051,2057,2098,2049,2047,2072
2042,2049,2048,2054,2090,2059,2041,2070
2041,2037,2039,2050,2053,2050,2022,2072
2041,2046,2036,2049,2080,2036,2028,2067
2053,2057,2045,2056,2106,2035,2031,2066
2054,2045,2045,2049,2111,2055,2039,2057
2058,2052,2042,2057,2107,2081,2054,2066
2083,2055,2049,2060,2118,2087,2054,2068
2085,2045,2036,2047,2101,2075,2046,2044
2066,2035,2036,2040,2074,2048,2032,2038
2040,2028,2034,2032,2035,2006,2026,2026
2018,2015,2035,2021,2019,2001,2023,2035
2035,2030,2039,2012,1978,2007,2025,2039
2061,2051,2051,2008,1959,2009,2048,2036
2071,2044,2038,2015,1956,2008,2040,2017
2069,2040,2047,2024,1969,2022,2035,2001
2062,2037,2044,2030,1970,2029,2026,1991
2036,2031,2038,2045,1991,2036,2039,1997
2014,2024,2033,2045,2026,2038,2035,2003
2017,2028,2027,2051,2073,2033,2032,2021
2039,2040,2039,2061,2087,2051,2061,2030
2049,2036,2028,2055,2061,2042,2065,2031
2048,2033,2017,2035,2039,2040,2064,2032
2053,2045,2018,2030,2041,2039,2055,2026
2041,2030,2008,2025,2050,2033,2045,2020
2031,2019,2013,2035,2078,2048,2056,2036
2056,2040,2030,2043,2082,2060,2064,2041
2065,2054,2044,2051,2074,2056,2056,2048
2073,2043,2044,2049,2059,2056,2062,2054
2059,2050,2042,2046,2060,2052,2065,2059
2045,2050,2055,2048,2060,2051,2072,2065
2052,2061,2074,2054,2059,2051,2072,2080
2055,2062,2078,2054,2053,2054,2065,2081
2055,2063,2072,2055,2030,2051,2061,2068
2037,2054,2067,2051,2025,2058,2047,2052
2020,2030,2044,2034,2019,2089,2031,2050
2031,2032,2042,2031,1990,2098,2042,2050
2044,2045,2042,2023,1968,2094,2046,2038
2043,2041,2040,2022,1960,2079,2028,2047
2046,2047,2049,2032,1982,2016,2041,2067
2062,2058,2072,2061,2028,1962,2075,2075
2066,2064,2080,2073,2070,2002,2068,2065
2073,2064,2077,2079,2094,2038,2058,2045
2064,2060,2070,2072,2082,2063,2043,2032
2054,2045,2061,2068,2067,2058,2060,2028
2058,2042,2056,2061,2050,2051,2054,2031
2055,2035,2055,2061,2027,2048,2052,2033
2058,2042,2062,2055,2008,2048,2049,2031
2058,2045,2062,2048,2009,2042,2059,2025
2046,2045,2050,2043,2026,2044,2053,2025
2051,2050,2051,2049,2036,2052,2033,2029
2047,2049,2037,2049,2017,2049,2029,2026
2046,2046,2034,2046,2042,2052,2063,2025
2058,2054,2028,2052,2086,2051,2040,2038
2069,2054,2016,2039,2078,2034,2056,2039
2067,2046,2007,2043,2070,2026,2047,2032
2060,2045,2022,2048,2076,2028,2041,2016
2040,2053,2013,2038,2065,2021,2035,2017
2042,2048,2007,2036,2052,2019,2053,2048
2052,2045,2008,2055,2035,2027,2061,2046
2040,2039,2010,2065,1967,2043,2062,2047
2035,2039,2018,2072,2003,2055,2067,2049
2029,2034,2030,2071,2062,2064,2072,2056
2032,2036,2042,2073,2079,2058,2063,2062
2040,2037,2051,2076,2075,2050,2068,2081
2044,2034,2059,2065,2059,2044,2046,2081
2046,2039,2067,2064,2040,2041,2042,2068
2041,2036,2052,2059,2033,2032,2024,2057
2024,2030,2053,2058,2041,2049,2041,2050
2024,2046,2089,2074,2064,2081,2051,2046
2024,2064,2110,2082,2073,2096,2060,2060
2043,2070,2101,2075,2058,2103,2062,2058
2056,2072,2082,2058,2059,2104,2062,2049
2045,2052,2054,2042,2073,2103,2051,2041
2041,2049,2061,2044,2075,2091,2035,2028
2040,2054,2068,2040,2053,2050,2020,2019
2036,2050,2057,2004,2014,2001,2013,2015
2031,2045,2045,1989,1998,1996,2010,2015
2034,2054,2050,2018,2030,2022,2030,2024
2038,2053,2045,2018,2025,2026,2014,2014
2035,2043,2034,2015,2037,2036,2011,2016
2040,2040,2038,2030,2046,2046,2013,2017
2045,2047,2057,2045,2029,2044,2031,2021
2047,2052,2072,2055,2029,2039,2016,2018
2040,2038,2058,2047,2024,2041,2017,2018
2031,2035,2058,2050,2014,2056,2033,2006
2035,2036,2063,2058,2011,2059,2032,2008
2031,2038,2076,2063,1994,2056,2027,2012
2040,2045,2090,2066,1975,2034,2019,2018
2044,2052,2086,2065,1957,1996,2036,2034
2047,2054,2078,2067,1958,1982,2036,2035
2042,2045,2064,2062,1980,1979,2026,2028
2041,2036,2047,2071,2042,2004,2016,2039
2036,2045,2057,2086,2106,2035,2029,2053
2046,2046,2052,2092,2126,2046,2036,2060
2046,2047,2033,2073,2132,2073,2036,2058
2044,2049,2028,2066,2130,2077,2046,2056
2040,2058,2028,2049,2097,2064,2036,2061
2041,2059,2012,2024,2070,2052,2031,2071
2040,2055,2019,2013,2070,2054,2040,2072
2040,2049,2013,2007,2066,2047,2030,2060
2039,2044,2007,2005,2058,2046,2037,2070
2041,2058,2033,2025,2061,2054,2036,2076
2057,2074,2053,2034,2059,2058,2045,2067
2061,2070,2041,2038,2067,2054,2039,2062
2055,2064,2029,2043,2069,2069,2043,2047
2049,2054,2029,2055,2084,2074,2051,2046
2049,2048,2034,2055,2088,2069,2044,2037
2047,2046,2034,2052,2082,2079,2036,2034
2047,2038,2028,2050,2074,2074,2051,2033
2045,2033,2023,2048,2058,2069,2042,2032
2043,2027,2017,2046,2042,2066,2041,2036
2047,2034,2022,2046,2036,2055,2043,2024
2043,2030,2015,2044,2034,2045,2039,2013
2034,2026,2013,2045,2028,2047,2042,2002
2029,2033,2023,2052,2026,2043,2046,2006
2036,2033,2013,2045,2028,2041,2028,2014
2038,2025,1998,2035,2020,2040,2026,2020
2038,2021,1996,2036,2027,2042,2047,2028
2052,2047,2026,2051,2028,2050,2049,2037
2063,2067,2053,2057,2033,2055,2053,2039
2071,2081,2068,2060,2032,2060,2043,2040
2065,2081,2063,2054,2027,2051,2044,2038
2055,2066,2059,2044,2030,2047,2052,2039
2051,2056,2056,2030,2041,2042,2053,2043
2048,2047,2067,2028,2049,2037,2044,2046
2040,2053,2080,2044,2063,2054,2050,2047
2052,2071,2118,2069,2084,2076,2058,2051
2049,2080,2143,2084,2078,2077,2059,2057
2049,2079,2134,2073,2051,2070,2049,2060
2045,2069,2115,2066,2047,2062,2059,2064
2047,2061,2096,2064,2065,2031,2049,2072
2049,2054,2084,2059,2063,2021,2037,2068
2046,2048,2066,2043,2016,2000,2039,2069
2039,2035,2055,2037,1995,1998,2023,2064
2043,2035,2033,2031,2036,2021,2043,2062
2041,2032,2018,2032,2102,2058,2060,2060
2037,2023,2013,2042,2124,2065,2045,2044
2039,2014,2005,2044,2122,2065,2039,2039
2040,2020,2006,2044,2140,2080,2053,2052
2057,2043,2018,2053,2140,2086,2063,2057
2067,2071,2028,2053,2135,2086,2055,2051
2056,2058,2015,2054,2124,2082,2049,2039
2059,2056,2011,2028,2010,2068,2051,2033
2053,2048,1992,2013,1920,2069,2057,2030
2048,2052,1991,2031,2006,2076,2053,2028
2049,2047,1995,2047,2051,2070,2041,2018
2039,2039,1981,2039,2025,2044,2030,2018
2036,2030,1984,2041,1985,2017,2023,2021
2051,2026,1986,2037,1979,2029,2028,2023
2051,2015,1986,2041,2009,2027,2038,2024
2046,2018,1996,2035,2029,2032,2034,2020
2047,2030,2020,2025,2001,2046,2042,2018
2050,2034,2039,2008,1965,2055,2029,2016
2054,2037,2052,2001,1952,2051,2029,2018
2045,2034,2053,1991,1937,2039,2028,2029
2048,2053,2081,1997,1930,2008,2037,2021
2049,2063,2082,1997,1967,1968,2023,2029
2055,2054,2073,2008,2021,2007,2035,2036
2066,2068,2081,2022,2041,2052,2046,2031
2063,2067,2086,2033,2059,2081,2059,2056
2062,2059,2083,2039,2057,2062,2056,2062
2036,2050,2072,2040,2073,2042,2054,2056
2010,2044,2063,2052,2084,2048,2057,2066
2024,2046,2064,2055,2085,2061,2068,2066
2039,2056,2062,2062,2089,2080,2066,2076
2051,2063,2074,2060,2094,2076,2066,2074
2042,2053,2071,2051,2076,2059,2062,2073
2045,2054,2063,2048,2070,2050,2056,2066
2054,2057,2063,2047,2058,2049,2041,2063
2049,2053,2055,2043,2055,2044,2037,2050
2045,2045,2048,2045,2047,2038,2042,2038
2041,2042,2047,2048,2056,2035,2047,2044
2045,2046,2053,2047,2065,2028,2047,2047
2052,2051,2055,2055,2065,2030,2051,2038
2051,2060,2061,2064,2071,2043,2053,2049
2061,2078,2074,2075,2078,2054,2061,2049
2066,2079,2070,2068,2078,2053,2065,2054
2070,2074,2063,2074,2071,2049,2056,2053
2068,2068,2060,2053,2055,2046,2039,2044
2054,2053,2044,2045,2043,2035,2035,2025
2045,2056,2046,2049,2047,2044,2043,2018
2052,2062,2061,2057,2054,2048,2050,2019
2053,2058,2060,2045,2033,2031,2043,2021
2051,2053,2056,2031,2007,2018,2032,2015
2035,2044,2043,2034,2011,2024,2043,2024
2043,2049,2044,2035,2017,2044,2038,2016
2037,2037,2028,2026,2017,2070,2033,2018
2041,2048,2028,2035,2033,2081,2027,2029
2046,2049,2034,2051,2076,2089,2030,2035
2051,2051,2026,2062,2084,2086,2050,2036
2049,2045,2026,2064,2086,2042,2045,2045
2054,2043,2021,2077,2098,2047,2065,2050
2053,2045,2023,2092,2105,2053,2058,2057
2051,2037,2013,2082,2110,2060,2055,2057
2043,2023,2010,2066,2075,2054,2043,2052
2041,2016,1999,2054,2071,2052,2046,2063
2041,2029,2002,2056,2084,2055,2048,2061
2048,2033,2007,2055,2047,2057,2046,2061
2051,2039,2029,2070,2108,2062,2050,2068
2038,2028,2034,2066,2112,2032,2041,2064
2032,2017,2029,2050,2049,2009,2029,2057
2026,2017,2043,2061,2034,2017,2043,2060
2035,2030,2066,2074,2044,2035,2039,2066
2049,2050,2084,2088,2058,2042,2037,2055
2056,2063,2100,2085,2049,2052,2036,2050
2047,2065,2089,2072,2021,2049,2040,2033
2042,2060,2075,2062,2019,2044,2058,2043
2056,2059,2069,2070,2048,2049,2059,2045
2070,2064,2059,2062,2073,2049,2046,2045
2081,2071,2055,2053,2089,2055,2048,2050
2090,2075,2058,2051,2098,2062,2045,2039
2068,2067,2064,2043,2103,2063,2052,2021
2044,2064,2076,2044,2099,2061,2057,2019
2044,2068,2088,2033,2077,2056,2067,2028
2056,2061,2062,2004,2053,2039,2044,2036
2064,2051,2032,1987,2029,2045,2049,2047
2055,2044,2004,1986,1934,2044,2034,2038
2059,2038,2018,2000,1900,2040,2029,2035
2065,2051,2047,2022,1931,2060,2052,2030
2056,2049,2049,2027,1967,2056,2043,2025
2036,2040,2039,2019,2004,2056,2027,2023
2024,2038,2042,2020,2047,2059,2035,2034
2028,2041,2049,2022,2036,2062,2029,2048
2041,2054,2052,2023,2028,2055,2042,2049
2041,2051,2057,2028,2025,2039,2036,2050
2038,2057,2062,2039,2025,2035,2042,2054
2046,2053,2060,2042,2028,2028,2018,2058
2044,2050,2065,2050,2036,2033,2022,2050
2041,2053,2065,2056,2038,2031,2040,2050
2025,2043,2058,2050,2044,2035,2038,2059
2035,2038,2053,2047,2033,2040,2038,2069
2041,2031,2044,2037,2023,2050,2024,2066
2043,2032,2047,2028,2024,2070,2021,2060
2031,2033,2060,2031,2061,2093,2030,2064
2034,2048,2076,2035,2064,2110,2047,2068
2037,2070,2084,2036,2049,2097,2044,2067
2043,2074,2077,2036,2026,2041,2037,2076
2043,2073,2066,2041,1985,1990,2011,2063
2041,2061,2056,2028,1928,1995,2019,2060
2054,2062,2045,2006,1883,1993,2006,2052
2047,2056,2037,1991,1882,1986,2036,2041
2042,2064,2051,2006,1957,2024,2055,2043
2051,2072,2065,2036,2037,2070,2065,2036
2058,2080,2067,2054,2073,2108,2068,2044
2066,2065,2061,2046,2076,2121,2065,2057
2060,2063,2058,2040,2039,2070,2046,2053
2059,2060,2057,2044,2010,2033,2058,2041
2049,2052,2046,2044,2040,2028,2057,2037
2058,2056,2042,2048,2120,2045,2058,2033
2052,2052,2045,2065,2167,2064,2054,2035
2042,2051,2045,2068,2129,2061,2042,2029
2043,2057,2058,2067,2115,2053,2049,2024
2035,2061,2055,2058,2120,2053,2055,2027
2034,2057,2054,2053,2126,2057,2057,2032
2037,2057,2052,2049,2129,2067,2054,2036
2037,2057,2044,2043,2099,2057,2058,2036
2044,2050,2038,2025,2070,2041,2050,2041
2032,2045,2034,2016,2047,2024,2048,2037
2037,2047,2026,2011,2028,2026,2056,2047
2035,2050,2025,2037,2064,2044,2052,2056
2038,2051,2021,2048,2083,2058,2050,2051
2034,2043,2016,2047,2096,2054,2044,2058
2028,2035,2018,2045,2089,2048,2034,2059
2023,2033,2016,2046,2090,2050,2057,2065
2029,2032,2015,2048,2073,2047,2057,2070
2026,2031,2015,2038,2070,2039,2052,2065
2019,2025,2011,2039,2071,2033,2055,2072
2026,2035,2012,2040,2064,2040,2036,2075
2032,2049,2026,2044,2063,2039,2028,2067
2032,2040,2019,2031,2062,2045,2029,2052
2031,2041,2018,2035,2095,2071,2064,2059
2040,2051,2030,2058,2127,2091,2056,2065
2050,2056,2036,2063,2125,2081,2043,2064
2044,2058,2040,2060,2093,2066,2061,2059
2060,2069,2052,2053,2072,2062,2070,2061
2058,2065,2048,2037,2048,2060,2054,2050
2046,2054,2033,2029,2018,2046,2050,2051
2041,2052,2036,2037,2031,2043,2054,2046
2050,2052,2050,2050,2035,2050,2071,2038
2056,2063,2058,2059,2064,2058,2057,2033
2057,2061,2050,2052,2063,2046,2047,2028
2048,2045,2042,2033,2046,2031,2037,2017
2040,2032,2029,2028,2041,2024,2039,2019
2029,2026,2023,2023,2038,2027,2021,2028
2039,2047,2036,2029,2051,2035,2045,2038
2050,2053,2042,2030,2051,2038,2044,2044
2044,2049,2041,2036,2045,2040,2060,2045
2040,2048,2048,2039,2049,2040,2055,2051
2051,2051,2050,2043,2051,2053,2070,2051
2061,2064,2052,2042,2061,2055,2066,2053
2056,2057,2050,2044,2061,2049,2060,2048
2043,2042,2043,2039,2055,2050,2054,2042
2036,2039,2047,2042,2062,2050,2054,2047
2027,2044,2052,2050,2062,2050,2050,2054
2028,2043,2056,2053,2065,2055,2059,2074
2041,2049,2053,2054,2064,2052,2034,2070
2043,2053,2061,2056,2061,2050,2050,2065
2047,2063,2067,2056,2054,2050,2047,2055
2033,2059,2065,2059,2049,2037,2044,2050
2031,2044,2049,2052,2041,2029,2049,2065
2053,2041,2053,2056,2046,2042,2057,2085
2060,2059,2061,2072,2054,2044,2035,2078
2056,2062,2065,2075,2058,2048,2040,2076
2058,2062,2061,2069,2052,2048,2054,2066
2058,2058,2056,2061,2048,2051,2035,2058
2059,2055,2057,2057,2042,2050,2051,2052
2057,2058,2049,2039,2047,2051,2049,2037
2054,2052,2039,2038,2053,2055,2058,2037
2051,2048,2026,2038,2057,2053,2053,2032
2050,2037,2001,2039,2062,2051,2049,2032
2048,2024,1986,2054,2057,2055,2057,2038
2045,2015,1972,2046,2048,2050,2050,2035
2052,2007,1949,2042,2053,2046,2057,2026
2051,2001,1932,2046,2056,2047,2044,2015
2051,1996,1924,2045,2052,2046,2057,2023
2051,1994,1918,2041,2046,2040,2044,2022
2036,2002,1918,2040,2055,2039,2045,2014
2034,2014,1940,2043,2052,2041,2041,2013
2044,2023,1973,2036,2041,2039,2027,2020
2045,2033,2002,2041,2035,2038,2042,2030
2051,2045,2037,2047,2042,2044,2032,2026
2043,2055,2059,2058,2058,2055,2047,2045
2040,2057,2057,2049,2061,2050,2053,2053
2033,2044,2050,2029,2049,2038,2059,2049
2027,2037,2051,2030,2049,2039,2058,2045
2038,2055,2079,2030,2054,2050,2069,2045
2045,2052,2092,2028,2031,2057,2059,2045
2041,2047,2095,2018,2008,2060,2065,2048
2043,2055,2112,2018,1989,2065,2071,2053
2014,2055,2107,2016,1978,2068,2040,2064
2004,2065,2108,2030,1986,2018,2029,2079
2027,2080,2108,2041,2010,1981,2039,2086
2050,2092,2113,2053,2056,1994,2048,2095
2074,2093,2114,2066,2085,2035,2062,2089
2073,2088,2089,2054,2084,2064,2072,2078
2059,2064,2065,2034,2081,2074,2059,2052
2054,2062,2054,2035,2073,2069,2061,2047
2050,2051,2054,2033,2057,2061,2049,2052
2050,2045,2048,2038,2053,2051,2027,2056
2052,2055,2062,2045,2065,2050,2054,2052
2057,2067,2073,2058,2071,2051,2041,2046
2057,2076,2071,2058,2082,2059,2061,2042
2058,2077,2074,2066,2080,2060,2066,2040
2050,2079,2073,2058,2066,2058,2056,2032
2049,2073,2068,2051,2057,2053,2054,2027
2046,2069,2054,2042,2052,2039,2046,2031
2039,2060,2056,2039,2042,2038,2061,2034
2046,2056,2056,2038,2033,2039,2062,2032
2045,2048,2048,2037,2042,2049,2061,2029
2048,2047,2055,2043,2050,2057,2065,2031
2051,2056,2060,2054,2063,2042,2056,2039
2052,2053,2058,2053,2065,2035,2053,2047
2043,2055,2059,2067,2062,2037,2036,2040
2036,2047,2060,2065,2071,2061,2070,2040
2040,2044,2058,2062,2070,2068,2070,2037
2047,2043,2040,2056,2075,2062,2045,2044
2048,2039,2038,2056,2068,2053,2063,2050
2049,2049,2044,2061,2069,2046,2040,2057
2041,2059,2046,2071,2069,2038,2054,2064
2043,2051,2054,2075,2065,2032,2057,2070
2047,2045,2043,2077,2066,2031,2062,2074
2052,2042,2043,2080,2068,2041,2064,2064
2053,2041,2037,2078,2062,2048,2063,2049
2030,2039,2029,2081,2055,2050,2045,2034
2012,2034,2025,2074,2056,2046,2054,2051
2019,2029,2020,2070,2052,2058,2065,2061
2034,2042,2034,2072,2050,2070,2056,2066
2052,2047,2046,2068,2052,2072,2054,2069
2061,2054,2060,2064,2049,2076,2056,2060
2052,2050,2064,2049,2045,2060,2054,2042
2040,2035,2041,2029,2031,2012,2042,2024
2038,2025,2026,2016,2026,2003,2042,2027
2033,2012,2024,2023,2023,2012,2034,2028
2024,2009,2029,2024,2034,2030,2042,2036
2039,2022,2040,2027,2040,2048,2041,2037
2045,2031,2060,2040,2044,2047,2037,2042
2045,2054,2078,2058,2037,2044,2052,2047
2061,2065,2073,2063,2020,2045,2056,2044
2059,2061,2059,2059,2003,2040,2051,2043
2057,2058,2049,2055,1988,2047,2058,2037
2054,2049,2039,2037,1980,2051,2053,2027
2047,2047,2048,2043,2005,2061,2051,2031
2049,2067,2070,2076,2038,2072,2054,2040
2053,2064,2073,2083,2055,2030,2068,2046
2068,2073,2069,2084,2082,2032,2050,2054
2070,2066,2068,2085,2096,2045,2038,2059
2071,2062,2060,2076,2093,2045,2053,2060
2065,2053,2048,2056,2081,2037,2065,2052
2054,2044,2033,2036,2038,2031,2074,2056
2044,2035,2018,2021,2002,2032,2073,2062
2029,2030,2024,2032,2016,2036,2041,2061
2035,2031,2035,2034,2029,2037,2058,2063
2045,2039,2038,2044,2077,2052,2048,2072
2062,2047,2045,2061,2128,2062,2052,2086
2065,2050,2054,2067,2150,2058,2051,2088
2066,2049,2057,2071,2187,2076,2041,2086
2061,2037,2034,2060,2203,2081,2058,2074
2052,2028,2021,2058,2177,2070,2033,2079
2051,2032,2006,2054,2135,2066,2056,2068
2042,2025,2001,2044,2101,2068,2061,2048
2027,2024,2000,2033,1990,2053,2055,2035
2013,2034,2016,2024,1897,2044,2059,2036
2025,2040,2029,2030,1932,2049,2056,2044
2041,2045,2015,2021,1960,2039,2042,2045
2049,2038,2002,2006,1959,2038,2026,2034
2051,2037,2010,2003,1969,2068,2054,2025
2050,2043,2020,2006,1957,2073,2040,2024
2050,2045,2022,2002,1937,2068,2039,2018
2036,2035,2014,2004,1931,2045,2039,2010
2043,2030,2016,2011,1958,1988,2050,2023
2039,2032,2022,2040,2038,1983,2045,2042
2049,2042,2033,2067,2097,2014,2054,2049
2067,2046,2039,2068,2113,2036,2049,2039
2057,2030,2036,2061,2122,2045,2037,2027
2050,2033,2049,2058,2107,2059,2062,2032
2059,2052,2066,2066,2092,2066,2066,2036
2048,2059,2078,2064,2081,2066,2066,2039
2048,2062,2080,2062,2080,2071,2066,2046
2049,2063,2089,2058,2067,2067,2068,2048
2051,2059,2084,2047,2046,2052,2064,2048
2043,2059,2072,2042,2037,2042,2061,2051
2044,2053,2064,2037,2034,2051,2055,2060
2048,2057,2076,2040,2031,2081,2052,2063
2055,2064,2084,2045,2026,2102,2052,2052
2045,2066,2074,2039,2010,2118,2046,2059
2044,2058,2070,2038,2009,2122,2058,2063
2041,2057,2072,2058,2042,2078,2046,2070
2046,2061,2076,2063,2051,2035,2065,2082
2051,2054,2072,2057,2025,2017,2059,2079
2050,2052,2060,2037,2014,2021,2057,2071
2044,2047,2054,2035,2059,2029,2054,2074
2056,2055,2060,2037,2083,2016,2062,2082
2052,2048,2058,2051,2109,2009,2058,2075
2056,2059,2062,2066,2115,2044,2072,2071
2052,2063,2064,2057,2074,2065,2073,2061
2056,2058,2060,2045,2002,2072,2048,2060
2058,2056,2055,2044,2005,2068,2062,2060
2059,2051,2056,2051,2018,2066,2066,2051
2063,2057,2060,2060,2037,2075,2055,2045
2052,2063,2062,2065,2019,2069,2058,2033
2049,2053,2056,2054,2009,2061,2041,2034
2060,2045,2050,2050,2000,2050,2044,2028
2058,2050,2052,2036,1948,2022,2038,2029
2061,2046,2044,2011,1911,2002,2033,2027
2060,2045,2039,2006,1973,2018,2035,2029
2046,2037,2037,2022,2051,2026,2019,2027
2045,2037,2044,2040,2066,2025,2026,2029
2056,2050,2051,2048,2033,2032,2024,2037
2057,2047,2047,2050,2030,2031,2042,2030
2052,2045,2049,2049,2053,2039,2046,2031
2057,2049,2046,2054,2077,2057,2045,2037
2055,2059,2056,2059,2117,2063,2062,2040
2064,2057,2057,2067,2169,2063,2059,2042
2058,2049,2050,2070,2159,2048,2062,2044
2051,2037,2048,2070,2104,2031,2053,2051
2046,2027,2036,2062,2062,2023,2052,2053
2039,2019,2032,2061,2049,2011,2045,2056
2055,2030,2045,2076,2062,2011,2053,2062
2057,2031,2052,2089,2063,2004,2045,2069
2050,2025,2041,2078,2051,2008,2050,2064
2041,2021,2040,2082,2073,2019,2046,2069
2041,2033,2046,2100,2107,2037,2027,2062
2038,2036,2048,2105,2101,2046,2056,2062
2044,2036,2040,2090,2081,2056,2047,2069
2058,2042,2035,2074,2032,2039,2052,2063
2047,2037,2029,2061,2023,2025,2036,2055
2034,2041,2023,2048,2035,2030,2047,2067
2042,2039,2018,2045,2038,2044,2052,2069
2045,2041,2015,2034,2038,2043,2058,2049
2048,2045,2015,2020,2040,2048,2066,2051
2054,2052,2032,2024,2044,2054,2056,2050
2049,2046,2036,2011,2046,2054,2062,2036
2045,2042,2024,2004,2042,2050,2045,2035
2047,2041,2019,2005,2047,2054,2062,2030
2050,2041,2034,2026,2058,2071,2067,2027
2036,2046,2045,2044,2058,2083,2074,2018
2043,2057,2037,2035,2051,2081,2057,2031
2053,2049,2024,2027,2046,2066,2056,2031
2043,2028,2001,2008,2034,2054,2049,2034
2044,2018,1997,2002,2037,2050,2062,2034
2052,2026,2021,2016,2040,2048,2060,2022
2050,2047,2062,2025,2041,2043,2048,2020
2038,2056,2078,2030,2040,2040,2044,2024
2042,2049,2080,2030,2039,2033,2048,2035
2048,2062,2099,2043,2048,2022,2040,2040
2065,2080,2103,2053,2052,2030,2054,2058
2072,2090,2095,2056,2049,2039,2040,2056
2071,2089,2098,2060,2056,2049,2059,2074
2078,2095,2099,2066,2058,2046,2066,2074
2068,2075,2081,2056,2058,2047,2059,2073
2060,2058,2068,2052,2055,2045,2043,2081
2053,2053,2058,2045,2046,2035,2045,2078
2023,2044,2041,2038,2027,2021,2022,2075
2023,2037,2024,2025,2017,2016,2033,2072
2021,2028,2001,2003,2001,2006,2033,2062
2034,2027,2002,1994,2007,2016,2029,2062
2031,2042,2020,2006,2040,2034,2044,2064
2044,2054,2029,2021,2061,2061,2045,2063
2054,2059,2037,2025,2056,2072,2047,2060
2053,2061,2035,2019,2034,2070,2049,2058
2038,2051,2032,2012,2024,2068,2030,2039
2032,2042,2029,2016,2006,2045,2020,2024
2030,2039,2034,2018,2010,2024,2047,2021
2028,2047,2041,2028,2048,2032,2046,2024
2038,2055,2048,2040,2073,2054,2061,2035
2055,2057,2048,2039,2071,2065,2056,2030
2048,2056,2045,2038,2074,2049,2042,2037
2060,2071,2055,2045,2061,2010,2027,2046
2056,2074,2053,2050,2064,2009,2045,2049
2058,2080,2041,2052,2065,2026,2059,2048
2058,2069,2038,2043,2073,2036,2060,2030
2045,2047,2021,2036,2074,2052,2031,2028
2047,2045,2022,2032,2082,2061,2047,2033
2052,2051,2022,2031,2075,2051,2035,2033
2050,2043,2026,2033,2073,2039,2043,2038
2045,2039,2036,2047,2073,2035,2058,2040
2043,2044,2043,2052,2080,2039,2036,2035
2046,2047,2051,2060,2086,2052,2031,2040
2042,2048,2054,2053,2069,2064,2023,2040
2038,2048,2054,2054,2064,2067,2046,2040
2040,2043,2056,2053,2035,2068,2064,2047
2047,2045,2059,2053,2021,2046,2054,2064
2055,2051,2064,2062,2031,2023,2046,2075
2052,2045,2069,2062,2033,2022,2036,2072
2058,2047,2063,2057,1992,2018,2044,2073
2056,2056,2058,2038,1950,2011,2044,2071
2058,2057,2050,2039,1943,2005,2034,2071
2046,2045,2039,2023,1943,2000,2031,2065
2038,2042,2033,2023,1985,2019,2040,2062
2052,2065,2046,2036,2030,2034,2059,2054
2047,2046,2040,2037,2068,2046,2045,2044
2040,2031,2023,2034,2088,2065,2058,2038
2042,2033,2038,2055,2118,2087,2063,2049
2061,2048,2057,2078,2135,2082,2059,2050
2072,2056,2060,2073,2098,2062,2045,2050
2060,2054,2063,2070,2043,2030,2035,2044
2057,2051,2053,2066,2025,2028,2058,2034
2056,2042,2040,2062,2013,2040,2036,2031
2048,2037,2028,2052,2012,2047,2047,2019
2047,2042,2033,2060,2015,2067,2051,2014
2046,2044,2035,2059,2048,2087,2050,2014
2050,2044,2024,2050,2039,2095,2045,2007
2044,2044,2028,2040,2033,2065,2024,2008
2034,2034,2021,2020,2020,2044,1997,1983
2024,2022,2000,1996,2018,2037,2002,1989
2028,2032,1996,1997,2063,1995,2033,2022
2042,2039,2004,2025,2159,1957,2053,2037
2045,2042,2029,2042,2204,2023,2058,2036
2044,2045,2047,2039,2120,2053,2070,2034
2050,2053,2053,2029,2031,2054,2057,2038
2055,2065,2045,2038,2031,2053,2073,2041
2057,2062,2043,2056,2054,2060,2069,2036
2052,2050,2032,2057,2070,2069,2063,2047
2042,2054,2029,2061,2075,2063,2060,2051
2044,2048,2030,2053,2071,2057,2055,2060
2046,2050,2025,2053,2070,2059,2060,2053
2051,2047,2023,2050,2066,2055,2060,2055
2047,2044,2031,2050,2055,2050,2051,2061
2056,2054,2037,2054,2041,2040,2054,2061
2052,2047,2035,2037,2007,2031,2042,2062
2053,2042,2035,2027,1994,2026,2051,2061
2054,2048,2043,2032,1992,2018,2042,2065
2054,2045,2050,2024,1974,1998,2043,2067
2060,2066,2072,2031,2005,2021,2051,2057
2060,2066,2078,2030,2025,2045,2048,2036
2042,2047,2059,2008,1986,2048,2049,2021
2035,2028,2052,1999,1977,2045,2036,2028
2041,2035,2065,2020,2009,2042,2048,2027
2048,2047,2083,2042,2043,2038,2046,2031
2074,2065,2099,2058,2104,2021,2045,2034
2079,2072,2097,2070,2147,2039,2033,2034
2070,2062,2074,2077,2147,2072,2038,2028
2047,2047,2052,2079,2142,2099,2041,2013
2033,2047,2050,2081,2137,2101,2042,2013
2037,2062,2051,2084,2066,2085,2044,2012
2044,2054,2031,2048,1959,2052,2018,1990
2020,2025,2002,2013,1878,2022,2017,1972
2011,2017,2002,2015,1894,1990,2034,1986
2023,2032,2024,2055,2006,1994,2034,2020
2056,2068,2064,2100,2053,1965,2036,2041
2072,2082,2081,2085,2058,1944,2032,2046
2077,2086,2073,2079,2008,1975,2038,2055
2074,2083,2080,2076,2003,2019,2056,2057
2065,2066,2058,2050,2040,2056,2052,2044
2053,2059,2052,2028,2071,2078,2059,2042
2062,2051,2043,2017,2097,2083,2071,2045
2065,2046,2047,2024,2092,2082,2064,2047
2065,2044,2042,2021,2084,2076,2062,2058
2057,2028,2044,2025,2088,2076,2036,2070
2063,2038,2066,2039,2106,2079,2058,2069
2075,2051,2078,2052,2110,2078,2059,2060
2064,2044,2066,2047,2089,2063,2037,2047
2034,2025,2044,2041,2055,2043,2014,2046
2026,2023,2038,2035,2057,2055,2027,2050
2033,2045,2053,2040,2066,2080,2060,2053
2049,2059,2061,2045,2049,2086,2070,2055
2059,2060,2050,2041,2027,2082,2059,2048
2048,2049,2037,2030,2000,2052,2062,2038
2058,2048,2040,2034,2002,2011,2039,2030
2058,2054,2039,2040,2032,2013,2051,2031
2059,2047,2046,2058,2063,2033,2068,2028
2052,2049,2048,2066,2067,2038,2035,2024
2046,2050,2048,2060,2047,2044,2016,2025
2048,2054,2054,2049,2004,2047,2013,2019
2038,2054,2043,2038,1973,2058,2016,2002
2031,2051,2039,2033,1980,2051,2052,2012
2043,2055,2047,2040,2002,2017,2052,2022
2049,2059,2050,2054,2051,2015,2047,2023
2048,2042,2043,2055,2088,2019,2032,2018
2038,2036,2042,2059,2100,2050,2065,2032
2049,2041,2036,2058,2092,2060,2051,2033
2050,2035,2030,2052,2087,2069,2055,2033
2053,2046,2034,2059,2067,2061,2058,2029
2064,2050,2041,2062,2070,2066,2052,2040
2062,2046,2037,2061,2072,2064,2065,2036
2053,2048,2039,2058,2071,2064,2069,2030
2050,2051,2053,2057,2063,2059,2059,2034
2050,2058,2057,2062,2062,2043,2056,2042
2051,2048,2053,2061,2054,2038,2049,2061
2048,2051,2044,2052,2053,2029,2041,2054
2041,2048,2050,2054,2057,2031,2044,2069
2045,2052,2064,2068,2066,2045,2055,2072
2046,2060,2066,2073,2076,2061,2058,2066
2050,2066,2063,2068,2060,2081,2044,2064
2043,2047,2049,2046,2018,2086,2047,2049
2040,2039,2041,2038,1987,2073,2032,2044
2037,2040,2040,2027,1960,2049,2029,2037
2042,2038,2035,2026,1947,2006,2024,2046
2044,2046,2046,2049,2004,1968,2034,2058
2049,2053,2057,2072,2079,2033,2060,2052
2060,2059,2062,2074,2094,2099,2070,2048
2060,2053,2053,2072,2109,2130,2068,2042
2057,2049,2043,2060,2085,2135,2052,2031
2041,2041,2045,2060,2060,2123,2051,2024
2040,2052,2048,2067,2065,2062,2048,2036
2050,2064,2060,2093,2107,2044,2055,2050
2051,2065,2063,2099,2115,2063,2059,2043
2047,2064,2059,2092,2116,2052,2056,2042
2056,2053,2050,2074,2107,2044,2050,2033
2051,2054,2045,2061,2055,2027,2052,2040
2044,2046,2036,2034,1955,2007,2037,2042
2048,2045,2034,2031,1940,2026,2042,2043
2057,2046,2037,2042,1966,2029,2046,2048
2051,2047,2045,2036,1983,2021,2051,2040
2046,2047,2046,2028,1965,2023,2061,2049
2051,2054,2051,2041,2008,2034,2066,2061
2057,2060,2054,2057,2030,2037,2039,2068
2064,2063,2068,2067,2053,2043,2032,2071
2065,2069,2063,2063,2081,2058,2045,2071
2057,2065,2059,2058,2100,2060,2059,2064
2056,2057,2049,2064,2091,2064,2055,2070
2055,2053,2045,2054,2072,2058,2045,2063
2055,2043,2040,2054,2075,2049,2028,2063
2044,2047,2044,2054,2091,2057,2046,2067
2039,2053,2050,2065,2109,2050,2033,2063
2040,2055,2050,2071,2084,2038,2042,2062
2036,2039,2038,2053,2033,1994,2016,2058
2033,2039,2028,2046,2033,1971,2020,2058
2043,2043,2034,2057,2032,1972,2012,2048
2039,2040,2040,2059,2020,1986,2011,2049
2038,2042,2036,2051,2014,1993,2004,2049
2039,2029,2025,2038,2009,2007,2005,2044
2037,2038,2028,2046,2029,2024,2011,2044
2043,2050,2042,2064,2042,2041,2017,2034
2049,2053,2050,2062,2070,2051,2034,2037
2046,2049,2046,2059,2090,2059,2036,2027
2046,2050,2055,2052,2087,2051,2041,2029
2052,2053,2055,2052,2057,2049,2043,2028
2054,2054,2055,2055,2048,2046,2046,2026
2051,2048,2050,2049,2047,2042,2038,2023
2053,2048,2053,2051,2051,2037,2028,2021
2042,2047,2047,2047,2054,2032,2026,2013
2043,2040,2032,2049,2048,2034,2025,2019
2040,2034,2032,2044,2077,2037,2033,2030
2051,2047,2044,2049,2128,2057,2043,2029
2051,2047,2047,2055,2154,2067,2027,2038
2054,2049,2052,2055,2189,2077,2021,2034
2054,2047,2054,2066,2226,2092,2014,2038
2048,2046,2052,2075,2225,2096,2010,2044
2055,2053,2053,2066,2179,2063,2015,2047
2042,2044,2044,2036,2064,2010,1979,2046
2046,2037,2037,2004,1898,1916,1959,2051
2043,2040,2039,1998,1734,1834,1976,2067
2043,2045,2037,2015,1778,1899,2011,2065
2047,2041,2036,2036,1870,1988,2031,2072
2043,2039,2042,2050,1961,2017,2024,2065
2040,2037,2039,2060,2050,2041,2051,2069
2037,2045,2051,2070,2091,2072,2068,2082
2040,2043,2049,2067,2072,2073,2058,2080
2040,2037,2046,2058,2013,2099,2052,2070
2042,2044,2045,2048,2009,2091,2064,2076
2045,2037,2037,2037,2016,2040,2080,2069
2042,2035,2032,2031,2002,1996,2066,2060
2034,2033,2027,2032,2020,1974,2072,2052
2042,2036,2042,2046,2068,1993,2062,2050
2051,2047,2050,2064,2074,2013,2063,2040
2048,2042,2047,2060,2041,2031,2056,2031
2049,2042,2044,2054,2009,2040,2050,2026
2046,2041,2039,2036,1989,2044,2064,2029
2041,2042,2040,2037,2028,2065,2093,2047
2047,2048,2049,2055,2104,2072,2106,2066
2065,2058,2064,2087,2150,2060,2103,2064
2066,2062,2058,2080,2126,2040,2107,2053
2055,2050,2045,2058,2101,2055,2086,2041
2046,2035,2027,2032,2049,2049,2060,2036
2032,2026,2024,2032,2038,2063,2065,2038
2042,2041,2036,2053,2052,2072,2083,2036
2040,2041,2036,2056,2076,2060,2101,2023
2035,2038,2044,2053,2074,2047,2104,2028
2031,2039,2045,2049,2046,2032,2060,2023
2020,2036,2042,2051,2030,2032,1980,2036
2026,2037,2048,2050,2025,2052,1924,2060
2032,2038,2049,2063,2037,2069,1926,2088
2038,2040,2046,2065,2057,2035,1884,2112
2038,2046,2042,2063,2045,2007,1963,2138
2048,2047,2044,2054,2047,2004,2035,2143
2043,2043,2041,2049,2058,1999,2115,2158
2042,2039,2031,2045,2065,2030,2165,2162
2038,2030,2027,2050,2080,2036,2190,2154
2034,2031,2027,2050,2096,2044,2219,2145
2027,2025,2023,2044,2095,2065,2247,2133
2020,2021,2020,2041,2090,2102,2274,2132
2016,2023,2022,2044,2088,2122,2312,2121
2037,2028,2024,2039,2067,2108,2292,2124
2060,2041,2029,2032,2028,2055,2213,2096
2051,2046,2030,2022,2018,2031,2009,2043
2031,2048,2042,2033,2019,2047,1875,1998
2025,2045,2049,2043,2015,2044,1764,1980
2034,2053,2055,2051,2029,2058,1797,1984
2036,2056,2054,2053,2045,2065,1926,2005
2045,2058,2062,2059,2057,2070,1998,2023
2056,2057,2055,2057,2045,2069,2032,2025
2064,2063,2053,2055,2029,2069,2031,2045
2067,2069,2059,2056,2025,2078,2040,2054
2070,2069,2064,2058,2024,2083,2038,2051
2064,2067,2058,2060,2033,2105,2040,2046
2069,2050,2055,2057,2039,2109,2036,2050
2056,2049,2050,2061,2062,2102,2055,2058
2059,2057,2057,2070,2081,2109,2033,2078
2071,2062,2064,2078,2107,2090,1999,2074
2071,2066,2058,2072,2108,2069,1996,2067
2073,2061,2052,2068,2081,2056,2005,2063
2078,2067,2064,2084,2103,2049,1986,2063
2083,2078,2072,2091,2140,2045,1989,2070
2090,2092,2082,2101,2212,2046,1993,2080
2080,2089,2081,2097,2204,2052,2005,2100
2078,2078,2066,2084,2153,2067,2013,2136
2092,2082,2072,2062,2114,2059,2010,2129
2076,2075,2061,2022,2075,2072,1989,2129
2076,2079,2061,2013,2134,2162,2116,2164
2083,2083,2064,1994,2009,2206,2240,2168
2086,2079,2057,1976,1837,2180,2292,2141
2080,2078,2052,1951,1730,2093,2211,2167
2082,2068,2045,1973,1823,2060,2226,2181
2074,2067,2044,1992,1908,2060,2316,2133
2061,2056,2033,1970,1913,2134,2381,2096
2042,2042,2027,1995,1998,2199,2333,2057
2032,2030,2025,2033,2016,2107,2221,2022
2024,2034,2036,2069,2072,1956,2052,2011
2026,2035,2044,2076,2092,1881,1990,2005
2022,2044,2038,2062,2073,1867,1848,1977
2027,2052,2052,2078,2094,1889,1786,1962
2035,2067,2059,2075,2077,1940,1803,1977
2034,2058,2055,2060,2052,1986,1792,1987
2025,2048,2051,2049,2049,1996,1843,1990
2014,2050,2047,2049,2046,1981,1970,2013
2021,2054,2048,2056,2048,1986,2008,2032
2026,2050,2046,2048,2043,2002,2045,2042
2036,2038,2045,2036,2030,2011,2079,2060
2032,2033,2039,2033,2023,2014,2070,2064
2034,2031,2041,2041,2041,2035,2081,2059
2043,2054,2049,2047,2051,2047,2086,2075
2071,2066,2051,2054,2066,2069,2087,2085
2078,2074,2054,2049,2068,2060,2045,2076
2064,2063,2054,2056,2063,2052,2018,2081
2044,2052,2050,2056,2063,2037,1953,2090
2044,2053,2047,2056,2062,2027,1974,2089
2029,2047,2044,2048,2060,2026,1994,2084
2016,2041,2040,2041,2053,2015,1967,2066
1994,2037,2043,2047,2043,2022,1942,2056
1996,2029,2037,2043,2038,2026,1947,2029
1994,2021,2028,2029,2027,2050,1955,2023
2000,2024,2037,2034,2040,2078,1977,2029
2004,2025,2037,2035,2043,2110,2011,2029
2014,2033,2037,2034,2045,2096,2016,2029
2028,2023,2031,2028,2035,2008,1990,2024
2042,2024,2029,2028,2030,1991,2000,2011
2035,2031,2038,2034,2040,2004,2013,2010
2024,2039,2044,2045,2059,2041,2050,2005
2026,2047,2041,2052,2054,2060,2054,1989
2016,2040,2045,2043,2050,2087,2035,1982
2022,2033,2042,2040,2043,2110,2041,1981
2015,2021,2028,2040,2058,2100,2061,1984
2020,2023,2030,2048,2057,2078,2058,2005
2036,2028,2040,2044,2044,2060,2066,2010
2040,2031,2041,2048,2040,2059,2060,2018
2049,2047,2045,2054,2028,2057,2070,2032
2062,2056,2052,2062,2019,2065,2081,2019
2061,2060,2058,2060,2014,2057,2080,2024
2051,2064,2057,2061,2010,2045,2081,2018
2054,2066,2054,2040,1965,2032,2090,2021
2040,2051,2040,2004,1876,2009,2065,2024
2033,2041,2032,1990,1900,2030,2090,2027
2043,2040,2034,1999,1952,2080,2135,2034
2043,2043,2034,2006,1962,2097,2109,2026
2039,2037,2037,2025,2012,2075,2088,1996
2027,2038,2043,2038,2070,2070,2091,1990
2023,2043,2042,2047,2114,2042,2106,2010
2040,2058,2056,2056,2141,2049,2140,2015
2051,2064,2058,2055,2156,2081,2164,2024
2050,2062,2059,2064,2156,2108,2160,2022
2047,2054,2052,2054,2128,2099,2108,2012
2028,2048,2046,2046,2100,2069,2025,2003
2019,2033,2046,2033,2055,2031,1964,1996
1999,2029,2031,2029,2040,2005,1960,1999
1995,2025,2037,2032,2031,1994,1983,2004
2000,2031,2034,2034,2037,1997,1979,2007
2003,2019,2034,2032,2032,1999,1998,2014
2013,2028,2030,2030,2021,2010,2022,2027
2039,2045,2042,2038,2010,2023,2030,2033
2042,2045,2036,2026,1989,2019,2043,2033
2037,2039,2037,2027,2019,2041,2059,2027
2037,2047,2044,2043,2059,2065,2072,2033
2014,2042,2039,2054,2086,2082,2081,2036
2014,2046,2047,2063,2102,2104,2081,2039
2028,2052,2052,2069,2099,2116,2071,2032
2039,2068,2057,2068,2086,2127,2069,2023
2045,2070,2065,2069,2080,2146,2080,2013
2039,2070,2058,2063,2068,2134,2061,2005
2040,2059,2051,2053,2054,2059,2051,1985
2033,2047,2045,2043,2032,1975,2018,1982
2024,2033,2038,2040,2034,1977,2037,1979
2023,2032,2038,2043,2048,2023,2040,1992
2018,2024,2034,2045,2046,2046,2067,1998
2030,2021,2033,2039,2042,2044,2045,2007
2031,2033,2041,2045,2051,2045,2041,2011
2036,2029,2043,2046,2056,2046,2044,2003
2031,2034,2040,2049,2055,2048,2053,2007
2024,2034,2048,2057,2060,2052,2047,2013
2029,2038,2051,2054,2063,2052,2053,2016
2032,2034,2043,2051,2061,2045,2064,2013
2028,2029,2046,2051,2061,2040,2060,2016
2022,2025,2043,2055,2069,2044,2056,2015
2023,2028,2043,2051,2065,2028,2040,2016
2011,2022,2040,2050,2066,2020,2007,2012
2012,2014,2042,2049,2053,2019,1983,2019
2013,2034,2052,2048,2055,2037,2011,2016
2019,2039,2058,2054,2066,2062,2030,2010
2023,2044,2057,2050,2050,2086,2035,2003
2017,2032,2041,2029,2008,2093,2030,2008
2013,2032,2042,2020,1984,2092,2035,2021
2025,2043,2056,2024,1988,2071,2029,2016
2027,2052,2066,2040,2019,2019,2023,2007
2037,2061,2069,2057,2059,2002,2020,1999
2034,2057,2069,2071,2095,2020,2024,2001
2032,2051,2069,2073,2101,2047,2031,1997
2034,2056,2065,2071,2086,2089,2044,1998
2036,2049,2053,2056,2051,2099,2041,2001
2033,2048,2057,2048,2015,2070,2037,2009
2038,2047,2049,2040,1995,2017,2040,2020
2045,2046,2050,2034,1985,1975,2024,2043
2048,2047,2054,2046,2023,1964,2046,2060
2058,2052,2056,2063,2088,1991,2057,2065
2064,2045,2056,2056,2105,2019,2054,2044
2062,2043,2043,2047,2089,2023,2039,2028
2052,2035,2040,2038,2072,2032,2032,2021
2049,2047,2045,2041,2060,2038,2038,2017
2062,2061,2057,2044,2057,2056,2052,2018
2056,2062,2064,2060,2064,2055,2036,2028
2058,2063,2061,2060,2069,2058,2044,2020
2058,2057,2060,2058,2079,2078,2039,2014
2055,2065,2062,2061,2074,2080,2045,2004
2043,2056,2061,2057,2070,2079,2040,2006
2037,2047,2060,2057,2061,2045,2032,2015
2034,2040,2054,2054,2056,2015,2019,2025
2042,2034,2053,2050,2058,1991,2013,2034
2046,2037,2055,2044,2052,1983,2004,2031
2029,2037,2043,2048,2053,2004,2012,2044
2031,2034,2036,2042,2049,2030,2021,2041
2026,2034,2041,2040,2040,2017,2025,2051
2037,2039,2046,2041,2038,2024,2032,2057
2035,2035,2044,2039,2029,2030,2034,2051
2035,2032,2042,2040,2029,2048,1999,2039
2025,2039,2046,2043,2030,2064,2022,2039
2034,2036,2038,2038,2038,2083,2032,2037
2039,2042,2052,2043,2045,2095,2050,2026
2045,2052,2050,2047,2052,2088,2047,2010
2028,2040,2049,2046,2048,2044,2057,2012
2037,2039,2051,2042,2047,2013,2053,2013
2038,2049,2056,2046,2037,2002,2053,2013
2041,2052,2059,2050,2046,2024,2057,2011
2048,2054,2055,2048,2045,2048,2063,2014
2042,2052,2052,2054,2054,2056,2070,2003
2037,2048,2052,2050,2054,2041,2062,2005
2041,2045,2045,2050,2050,2046,2065,2003
2043,2039,2041,2045,2045,2057,2036,2004
2049,2040,2044,2044,2039,2042,2025,2012
2053,2040,2041,2040,2020,2040,2035,2009
2049,2038,2041,2042,2038,2039,1984,2002
2041,2040,2048,2055,2058,2051,2033,1997
2039,2043,2057,2058,2043,2059,2030,1999
2038,2047,2056,2047,2016,2081,2013,1999
2042,2041,2042,2036,2014,2102,2032,2001
2038,2034,2031,2029,2007,2053,2042,1993
2036,2043,2042,2036,2042,2035,2046,2004
2042,2051,2052,2060,2073,2071,2065,2020
2040,2047,2059,2062,2069,2077,2050,2026
2037,2046,2063,2064,2069,2069,2051,2031
2029,2046,2055,2053,2058,2079,2055,2034
2033,2038,2056,2049,2060,2090,2049,2042
2038,2036,2045,2046,2066,2083,2031,2057
2029,2029,2049,2047,2073,2064,2015,2067
2030,2035,2044,2043,2072,2031,2009,2064
2027,2031,2044,2044,2060,2041,2005,2053
2026,2034,2041,2034,2053,2037,2009,2056
2043,2045,2052,2045,2040,2045,2006,2048
2050,2051,2048,2044,2039,2074,2017,2046
2051,2057,2053,2052,2038,2051,2001,2041
2050,2060,2052,2058,2044,2034,1993,2012
2052,2058,2055,2053,2044,2037,1996,1992
2047,2050,2052,2047,2046,2056,2008,1976
2042,2051,2046,2048,2059,2075,2030,1974
2034,2053,2047,2048,2059,2076,2044,1980
2039,2055,2050,2050,2072,2066,2065,1990
2037,2054,2056,2047,2070,2058,2069,1987
2034,2049,2053,2047,2055,2043,2029,1988
2030,2042,2047,2039,2044,2035,2036,1987
2022,2038,2041,2041,2040,2041,2038,1989
2028,2033,2039,2034,2042,2052,2043,1997
2035,2039,2037,2033,2040,2048,2048,1999
2026,2026,2039,2034,2035,2045,2046,2002
2022,2027,2046,2039,2036,2050,2055,2006
2035,2038,2041,2038,2031,2048,2053,2005
2035,2035,2045,2043,2038,2058,2055,2013
2039,2043,2050,2038,2039,2057,2059,2012
2038,2042,2052,2042,2044,2057,2054,2016
2043,2037,2050,2046,2042,2054,2048,2018
2041,2037,2051,2045,2046,2054,2048,2027
2044,2045,2055,2047,2047,2056,2044,2034
2044,2047,2056,2046,2042,2037,2043,2040
2053,2054,2052,2045,2044,2032,2039,2048
2045,2052,2056,2045,2049,2037,2042,2048
2044,2052,2053,2046,2059,2050,2054,2061
2040,2046,2057,2042,2050,2056,2052,2071
2037,2046,2056,2047,2041,2042,2049,2064
2037,2048,2052,2043,2031,2034,2040,2052
2036,2030,2041,2039,2028,2028,2026,2044
2028,2029,2042,2039,2024,2050,2012,2049
2040,2044,2056,2049,2027,2074,2030,2051
2041,2048,2061,2054,2060,2074,2025,2047
2046,2052,2061,2053,2041,2064,2050,2047
2056,2057,2061,2055,2016,2063,2057,2038
2052,2048,2053,2054,1987,2062,2040,2041
2051,2050,2055,2055,1996,2049,2026,2025
2050,2048,2056,2053,2044,2066,2040,2010
2042,2046,2060,2039,2054,2089,2039,2007
2044,2050,2055,2020,2049,2112,2041,1998
2044,2040,2049,2026,2083,2130,2042,1993
2042,2048,2048,2044,2110,2116,2041,2003
2050,2056,2060,2060,2149,2034,2049,2018
2056,2049,2064,2070,2178,2015,2034,2018
2054,2049,2057,2064,2124,2013,2020,1995
2039,2033,2041,2040,1975,2006,2017,1999
2035,2035,2045,2037,1985,2021,2030,2008
2047,2046,2055,2057,2030,2030,2034,2008
2051,2044,2056,2046,2033,2038,2028,2006
2040,2042,2046,2026,1967,2028,2020,2003
2022,2034,2040,1997,1907,2019,2014,1986
2022,2028,2030,1969,1778,2001,2005,1993
2024,2021,2026,1932,1683,1959,2001,2000
2022,2029,2038,1987,1846,1960,2027,2017
2037,2032,2048,2032,2033,2040,2039,2025
2030,2038,2048,2058,2114,2094,2050,2025
2024,2036,2055,2079,2178,2135,2058,2038
2032,2033,2052,2094,2273,2167,2080,2042
2027,2025,2042,2078,2263,2159,2058,2048
2023,2019,2035,2057,2171,2140,2047,2047
2030,2027,2043,2059,2081,2082,2022,2045
2030,2023,2047,2046,2029,1960,2005,2041
2032,2027,2046,2037,2029,1944,2010,2044
2031,2028,2043,2038,2049,2005,2012,2023
2026,2029,2042,2038,2053,2039,2006,2019
2029,2024,2033,2040,2064,2052,2015,2018
2033,2028,2043,2045,2062,2051,2043,2023
2042,2038,2048,2040,2056,2047,2037,2019
2044,2041,2050,2039,2040,2061,2026,2018
2043,2042,2047,2041,2035,2102,2034,2014
2050,2041,2053,2050,2048,2098,2043,2010
2042,2038,2049,2047,2056,2089,2038,2013
2038,2036,2046,2049,2071,2074,2024,2006
2033,2035,2049,2046,2058,2045,2013,1999
2034,2036,2052,2042,2068,2049,2017,1989
2026,2034,2050,2042,2061,2049,2018,2000
2032,2038,2053,2052,2085,2047,2019,1995
2028,2031,2047,2050,2108,2047,2039,1999
2031,2037,2055,2045,2098,2058,2047,2004
2040,2044,2052,2041,2025,2051,2044,2009
2045,2044,2055,2038,2015,2057,2041,2022
2051,2044,2060,2046,2052,2071,2054,2030
2052,2047,2061,2056,2087,2075,2050,2028
2043,2045,2053,2059,2114,2080,2051,2030
2042,2043,2054,2058,2125,2098,2063,2031
2034,2032,2054,2050,2107,2134,2058,2039
2033,2030,2046,2042,2099,2135,2060,2038
2036,2032,2041,2046,2104,2128,2054,2031
2039,2034,2045,2046,2104,2122,2054,2030
2027,2027,2035,2052,2112,2120,2053,2025
2020,2028,2043,2038,2081,2109,2069,2025
2029,2031,2040,2028,1997,2078,2050,2027
2024,2030,2036,2017,1952,2077,2042,2018
2014,2025,2036,2015,1968,2051,2032,2033
2018,2030,2036,2030,2030,2008,2041,2050
2043,2040,2042,2049,2076,1991,2043,2052
2052,2044,2054,2043,1992,1935,2035,2043
2052,2038,2041,2014,1889,1904,1995,2026
2045,2033,2038,2022,1972,1951,2007,2025
2051,2042,2046,2037,2043,1997,1991,2016
2045,2039,2046,2048,2076,2037,2023,2002
2035,2038,2050,2051,2084,2060,2036,2002
2035,2039,2053,2051,2073,2084,2040,2004
2046,2036,2046,2044,2054,2096,2045,2016
2032,2025,2039,2036,2032,2081,2045,2009
2037,2023,2040,2036,2018,2056,2037,2009
2047,2040,2053,2038,2010,2033,2027,2012
2054,2043,2056,2041,2024,2039,2047,2019
2059,2055,2061,2042,2027,2042,2043,2004
2047,2044,2059,2037,2022,2037,2021,1986
2029,2038,2054,2031,2024,2045,2019,1989
2034,2053,2065,2048,2041,2053,2008,1992
2025,2053,2062,2037,2025,2025,2017,1998
2023,2053,2054,2037,2023,2012,2025,2009
2030,2050,2054,2032,2012,2013,2005,2015
2038,2044,2050,2031,2013,2010,2021,2018
2036,2046,2052,2032,2018,2019,2012,2017
2037,2045,2054,2034,2007,2023,2015,2028
2034,2048,2054,2043,2007,2031,2030,2034
2036,2042,2057,2041,2027,2048,2038,2035
2040,2046,2048,2049,2034,2068,2049,2029
2047,2046,2050,2054,2058,2072,2036,2034
2042,2040,2045,2042,2027,2059,2044,2035
2028,2030,2038,2029,2006,2056,2060,2035
2030,2030,2036,2013,1968,2037,2050,2029
2020,2021,2021,1976,1898,1989,2036,2015
2022,2013,2015,1972,1930,1985,2033,2030
2024,2021,2026,1989,1972,1997,2052,2041
2022,2025,2031,1998,1995,1993,2058,2052
2025,2035,2040,2018,2084,2020,2071,2058
2040,2047,2059,2040,2140,2063,2076,2057
2049,2056,2060,2055,2194,2115,2090,2048
2046,2054,2059,2055,2216,2099,2082,2050
2052,2054,2067,2065,2180,2084,2072,2053
2053,2055,2060,2053,2039,2055,2082,2054
2060,2055,2059,2045,1973,2021,2077,2036
2050,2049,2056,2028,1966,2019,2093,2018
2042,2034,2050,2030,1979,2027,2055,1998
2038,2039,2045,2024,2002,2037,2021,2000
2045,2046,2053,2033,2018,2060,2025,2002
2043,2051,2053,2040,2009,2057,2006,2002
2036,2044,2050,2023,1992,2056,1989,1985
2020,2024,2034,2012,1987,2039,1999,1993
2029,2030,2030,2027,2018,2001,2019,2018
2046,2051,2048,2060,2095,2028,2020,2025
2046,2048,2051,2063,2126,2063,2034,2009
2048,2052,2057,2061,2125,2101,2040,2018
2049,2053,2050,2054,2101,2110,2058,2018
2049,2048,2044,2050,2088,2113,2072,2025
2043,2048,2041,2044,2077,2106,2079,2029
2035,2043,2044,2045,2058,2092,2068,2030
2027,2046,2044,2044,2053,2071,2059,2036
2032,2044,2043,2042,2050,2055,2060,2039
2036,2038,2040,2044,2041,2051,2050,2045
2029,2035,2039,2041,2039,2048,2065,2041
2022,2031,2040,2043,2047,2048,2049,2048
2023,2038,2041,2038,2038,2046,2048,2046
2023,2034,2046,2034,2027,2060,2043,2057
2025,2027,2034,2021,1989,2072,2028,2049
2016,2024,2033,2011,1981,2085,2034,2049
2028,2032,2040,2023,2013,2107,2025,2042
2028,2032,2039,2029,2033,2099,2012,2050
2037,2034,2041,2032,2027,2063,2027,2053
2043,2034,2047,2037,2043,2043,2032,2050
2041,2039,2045,2027,2033,2064,2022,2032
2042,2035,2052,2024,2030,2073,2014,2026
2034,2035,2045,2024,2050,2075,2030,2031
2036,2037,2050,2053,2117,2059,2058,2033
2045,2050,2056,2070,2140,2070,2076,2036
2045,2040,2052,2058,2096,2069,2080,2036
2044,2039,2050,2052,2062,2063,2065,2024
2043,2041,2041,2040,2044,2053,2068,2021
2047,2041,2042,2040,2039,2033,2041,2020
2045,2037,2048,2036,2031,2037,2036,2022
2036,2036,2038,2046,2055,2055,2044,2033
2034,2031,2040,2042,2034,2055,2050,2038
2037,2041,2043,2051,2047,2072,2075,2040
2047,2051,2052,2065,2072,2078,2078,2039
2052,2054,2062,2076,2111,2073,2047,2044
2057,2062,2066,2081,2130,2077,2069,2047
2060,2060,2051,2061,2138,2072,2064,2042
2048,2051,2043,2020,2074,2028,2039,2021
2033,2033,2031,2001,2001,1987,2016,2018
2031,2023,2031,2013,1982,1988,2008,2025
2035,2031,2040,2032,2050,1998,2000,2031
2039,2034,2042,2044,2103,2020,1988,2035
2041,2035,2040,2048,2107,2046,2023,2048
2038,2042,2045,2054,2105,2055,2032,2058
2039,2034,2043,2054,2103,2042,2020,2056
2039,2036,2042,2048,2102,2037,2029,2064
2043,2039,2044,2054,2115,2056,2024,2057
2043,2035,2044,2048,2117,2068,2032,2058
2027,2029,2041,2027,2006,2060,2034,2051
2032,2036,2049,2007,1930,2056,2046,2053
2033,2051,2055,2013,1934,2079,2073,2057
2037,2050,2051,2022,1994,2085,2077,2059
2045,2048,2052,2026,2038,2069,2056,2070
2054,2053,2051,2033,2038,2049,2060,2065
2056,2058,2049,2030,2027,2027,2039,2055
2050,2058,2044,2028,2008,2006,2040,2040
2045,2049,2043,2028,1997,2001,2046,2027
2044,2041,2045,2032,1990,1999,2042,2019
2028,2031,2041,2028,1998,2006,2045,2013
2036,2029,2038,2025,1991,2026,2031,2014
2030,2032,2031,2023,1997,2054,2045,2017
2032,2034,2041,2032,2035,2077,2039,2020
2032,2045,2044,2045,2055,2075,2047,2030
2041,2042,2041,2040,2065,2078,2051,2034
2036,2035,2031,2032,2070,2073,2022,2020
2034,2033,2038,2032,2069,2073,2036,2020
2046,2048,2047,2041,2067,2101,2060,2018
2048,2052,2048,2045,2054,2106,2057,2024
2048,2053,2054,2043,2021,2092,2039,2017
2047,2053,2053,2044,2016,2067,2027,2023
2044,2052,2049,2040,1981,2003,2041,2035
2048,2054,2056,2050,1971,1999,2052,2044
2045,2049,2050,2038,1987,1996,2040,2039
2037,2044,2044,2033,1993,2011,2046,2035
2048,2047,2045,2033,1977,2011,2039,2048
2039,2046,2051,2030,1966,1988,2038,2050
2044,2053,2051,2042,2026,1989,2027,2062
2046,2062,2055,2056,2104,2003,2038,2069
2052,2061,2060,2057,2137,2014,2045,2082
2058,2057,2056,2056,2135,2016,2034,2087
2051,2058,2055,2057,2133,2019,2040,2085
2043,2048,2042,2050,2111,2009,2009,2085
2048,2048,2045,2046,2075,1996,2026,2091
2056,2062,2053,2043,2044,1982,2037,2086
2048,2061,2053,2039,2030,1999,2063,2082
2041,2047,2046,2043,2026,2035,2060,2073
2039,2045,2046,2050,2027,2028,2057,2066
2033,2050,2050,2064,2027,2059,2062,2050
2039,2055,2049,2064,2067,2105,2046,2042
2038,2056,2052,2063,2074,2129,2044,2032
2036,2056,2054,2067,2090,2125,2063,2027
2046,2057,2049,2076,2114,2124,2047,2033
2072,2056,2048,2070,2105,2118,2037,2028
2083,2052,2048,2065,2141,2136,2039,2024
2056,2050,2042,2040,2081,2130,2061,2027
2051,2044,2035,2013,1998,2128,2068,2036
2052,2044,2038,2014,2040,2094,2070,2041
2042,2043,2043,2027,2103,2056,2046,2034
2043,2030,2031,2035,2082,2058,2041,2040
2032,2019,2032,2048,2067,2085,2053,2044
2036,2033,2036,2051,2050,2104,2069,2042
2029,2031,2034,2034,1997,2101,2070,2035
2029,2028,2027,2017,1937,2061,2060,2037
2020,2022,2032,2002,1931,2036,2053,2039
2036,2029,2030,2011,1971,2041,2051,2041
2053,2048,2046,2035,2038,2032,2066,2054
2067,2052,2056,2066,2111,2040,2071,2055
2064,2051,2058,2073,2151,2064,2059,2059
2053,2043,2051,2064,2153,2078,2044,2058
2047,2039,2040,2055,2132,2083,2043,2057
2044,2034,2043,2046,2085,2018,2034,2050
2035,2030,2044,2042,2046,1958,2025,2054
2031,2029,2054,2041,2038,1971,2028,2059
2039,2033,2043,2038,2013,1989,2018,2061
2044,2030,2042,2028,2009,1987,2034,2064
2034,2026,2036,2029,2027,2019,2045,2064
2028,2026,2039,2033,2030,2040,2038,2064
2046,2040,2048,2035,2041,2042,2046,2060
2041,2041,2047,2035,2037,2065,2050,2061
2042,2043,2042,2038,2037,2085,2058,2059
2050,2042,2043,2039,2030,2100,2071,2054
2053,2041,2046,2036,2025,2129,2080,2041
2050,2047,2044,2044,2027,2142,2079,2041
2048,2049,2047,2037,2023,2100,2080,2037
2052,2045,2054,2041,2011,1997,2061,2037
2048,2042,2051,2039,2007,1961,2056,2046
2052,2043,2057,2043,2003,1989,2062,2046
2053,2055,2063,2050,2014,2023,2074,2039
2061,2057,2068,2047,2013,2045,2064,2037
2064,2062,2066,2051,2025,2040,2067,2041
2065,2061,2062,2052,2036,2021,2056,2039
2055,2046,2051,2036,2016,2030,2045,2025
2042,2036,2042,2022,1952,2031,2045,2028
2042,2035,2040,2011,1912,2046,2064,2024
2040,2031,2031,1997,1892,2038,2065,2025
2040,2026,2023,1984,1885,2002,2057,2030
2034,2026,2024,2000,1967,2005,2062,2037
2044,2040,2042,2047,2081,2048,2088,2053
2052,2050,2056,2078,2156,2086,2084,2056
2052,2049,2062,2078,2174,2091,2084,2057
2051,2049,2062,2070,2146,2082,2080,2061
2045,2048,2063,2064,2109,2086,2052,2065
2049,2056,2059,2058,2081,2090,2048,2059
2048,2050,2058,2050,2066,2069,2049,2064
2044,2044,2049,2049,2050,2031,2047,2062
2038,2041,2053,2045,2052,2029,2071,2068
2036,2040,2051,2045,2038,2040,2063,2070
2042,2037,2051,2043,2034,2041,2042,2078
2042,2034,2043,2031,2014,2032,2049,2073
2037,2031,2037,2029,2002,2040,2076,2073
2046,2041,2041,2031,2002,2045,2064,2072
2044,2041,2042,2030,2017,2047,2085,2073
2047,2038,2038,2035,2068,2069,2073,2069
2043,2036,2041,2041,2078,2083,2084,2066
2042,2038,2035,2039,2052,2074,2088,2060
2044,2046,2041,2030,2032,2061,2075,2066
2057,2052,2049,2034,2038,2053,2074,2065
2059,2056,2054,2038,2092,2046,2048,2052
2062,2062,2063,2042,2131,2033,2055,2050
2058,2065,2057,2045,2117,2025,2048,2040
2056,2060,2062,2039,2089,2015,2041,2037
2061,2057,2062,2039,2079,1997,2042,2040
2057,2051,2058,2032,2041,1978,2028,2031
2044,2033,2039,2010,1995,1986,2034,2027
2037,2024,2034,2020,1938,2001,2044,2029
2028,2009,2026,2026,1924,2016,2055,2022
2034,2021,2041,2036,1970,2042,2076,2041
2047,2047,2061,2051,1999,2056,2088,2057
2055,2051,2061,2038,1994,2073,2091,2059
2039,2043,2052,2028,1977,2095,2065,2042
2025,2039,2044,2014,1959,2109,2063,2038
2026,2035,2042,2014,2014,2144,2084,2048
2038,2037,2050,2032,2132,2189,2086,2062
2048,2046,2051,2055,2152,2140,2070,2063
2056,2052,2060,2053,2096,2028,2035,2062
2051,2046,2062,2049,2056,1960,2014,2061
2042,2048,2060,2047,2061,2001,2020,2054
2037,2039,2043,2039,2060,2061,2027,2049
2031,2042,2045,2036,2071,2077,2028,2058
2038,2052,2050,2048,2078,2073,2033,2077
2039,2044,2052,2042,2060,2075,2045,2092
2051,2047,2042,2034,2048,2060,2052,2083
2041,2041,2036,2026,2042,2054,2039,2080
2034,2043,2041,2035,2049,2065,2080,2079
2036,2054,2052,2040,2041,2061,2080,2076
2032,2057,2053,2042,2039,2054,2076,2079
2045,2052,2049,2035,2029,2050,2082,2070
2045,2043,2048,2032,2027,2054,2084,2072
2050,2037,2042,2030,2025,2049,2061,2060
2044,2041,2047,2036,2025,2049,2046,2050
2052,2051,2060,2049,2033,2059,2060,2048
2054,2058,2062,2049,2044,2065,2046,2045
2046,2049,2054,2040,2048,2061,2050,2038
2037,2042,2045,2030,2053,2040,2048,2034
2037,2039,2052,2041,2063,2050,2040,2038
2049,2055,2061,2052,2074,2058,2039,2037
2044,2053,2058,2052,2064,2057,2044,2039
2050,2051,2054,2050,2053,2050,2055,2042
2043,2036,2037,2032,2027,2027,2033,2035
2030,2028,2034,2024,2026,2022,2035,2033
2044,2044,2049,2040,2053,2043,2049,2035
2051,2053,2043,2044,2046,2076,2038,2031
2039,2047,2042,2039,2031,2094,2049,2039
2041,2044,2047,2038,2032,2097,2050,2042
2045,2056,2050,2041,2033,2082,2041,2052
2048,2057,2051,2044,2045,2024,2027,2063
2051,2057,2053,2063,2072,2005,2033,2069
2054,2055,2047,2057,2064,2039,2053,2066
2051,2049,2044,2037,2012,2057,2061,2068
2051,2044,2034,2022,1963,2052,2047,2066
2037,2041,2035,2021,1952,2033,2041,2068
2035,2041,2032,2022,1948,1988,2045,2082
2044,2043,2037,2037,2005,1946,2047,2095
2046,2051,2045,2054,2081,1987,2057,2095
2052,2048,2040,2071,2111,2020,2058,2097
2048,2035,2035,2061,2121,2051,2056,2096
2052,2031,2034,2059,2139,2057,2051,2097
2073,2030,2041,2069,2160,2051,2062,2099
2073,2032,2041,2085,2153,2081,2064,2091
2074,2044,2044,2096,2175,2088,2075,2084
2085,2049,2051,2101,2197,2089,2066,2065
2083,2047,2057,2110,2196,2097,2088,2069
2065,2051,2058,2103,2165,2122,2096,2066
2055,2055,2063,2084,2159,2130,2073,2044
2023,2058,2062,2040,2051,2112,2084,2041
2025,2064,2059,1992,1855,2115,2080,2044
2049,2064,2050,1976,1940,2122,2068,2041
2055,2065,2050,1977,1947,2129,2055,2053
2062,2055,2049,1993,1951,2095,2035,2042
2055,2052,2044,2017,1998,2034,2037,2035
2052,2053,2045,2032,2050,2020,2037,2045
2061,2052,2049,2040,2038,2021,2042,2042
2059,2043,2042,2043,2055,2055,2057,2047
2047,2033,2041,2056,2070,2099,2084,2041
2034,2041,2051,2054,2052,2099,2088,2040
2030,2044,2053,2041,2035,2081,2075,2041
2028,2040,2042,2026,2017,2050,2078,2045
2040,2042,2042,2023,2025,2066,2061,2051
2045,2059,2049,2028,2007,2050,2056,2053
2048,2061,2052,2029,1982,2012,2046,2056
2051,2063,2056,2031,1976,2014,2030,2046
2042,2051,2044,2029,1979,2009,2039,2051
2032,2049,2042,2031,2005,1993,2058,2058
2037,2042,2050,2041,2054,1999,2050,2071
2045,2045,2050,2053,2078,2018,2055,2080
2046,2051,2055,2057,2090,2027,2058,2081
2047,2051,2051,2048,2094,2056,2067,2086
2041,2047,2053,2052,2076,2057,2056,2086
2036,2049,2054,2050,2061,2054,2066,2082
2036,2041,2050,2044,2053,2056,2054,2077
2034,2048,2054,2047,2054,2064,2066,2079
2044,2057,2063,2046,2033,2065,2046,2079
2053,2063,2061,2049,2029,2054,2052,2076
2058,2063,2064,2052,2032,2037,2052,2078
2056,2060,2058,2047,2031,2024,2057,2076
2060,2058,2058,2048,2038,2013,2055,2064
2063,2058,2055,2046,2038,2024,2049,2050
2056,2059,2057,2048,2043,2035,2048,2047
2060,2058,2056,2052,2048,2035,2061,2050
2066,2062,2060,2049,2051,2040,2069,2054
2063,2059,2056,2046,2041,2035,2070,2052
2060,2052,2046,2042,2039,2033,2061,2044
2061,2052,2045,2044,2040,2031,2038,2044
2061,2050,2055,2052,2042,2033,2059,2041
2054,2056,2053,2047,2043,2052,2067,2037
2054,2048,2046,2044,2035,2064,2057,2034
2046,2044,2045,2038,2037,2072,2055,2040
2053,2050,2047,2042,2035,2064,2060,2041
2054,2051,2049,2043,2026,2030,2053,2043
2054,2053,2049,2048,2043,1994,2050,2044
2060,2057,2057,2062,2060,2006,2049,2046
2063,2062,2057,2067,2069,2042,2054,2041
2056,2056,2056,2055,2058,2065,2057,2052
2044,2048,2049,2051,2048,2058,2053,2060
2054,2051,2051,2052,2049,2038,2060,2065
2055,2050,2047,2050,2041,2025,2054,2064
2045,2049,2047,2046,2036,2011,2051,2064
2051,2051,2048,2048,2045,2012,2061,2068
2048,2050,2051,2053,2048,2012,2060,2073
2049,2045,2045,2055,2043,2014,2048,2079
2049,2042,2046,2055,2045,2024,2043,2087
2050,2043,2039,2052,2044,2038,2064,2078
2038,2030,2036,2037,2044,2065,2045,2075
2043,2028,2040,2043,2042,2102,2064,2070
2050,2041,2045,2048,2050,2097,2058,2064
2045,2040,2045,2043,2041,2072,2060,2065
2044,2038,2049,2042,2039,2058,2051,2065
2052,2037,2045,2036,2041,2049,2056,2057
2053,2039,2042,2036,2045,2051,2040,2068
2059,2037,2036,2036,2044,2054,2046,2064
2062,2034,2040,2039,2046,2046,2039,2059
2060,2041,2044,2046,2042,2051,2058,2052
2064,2051,2054,2051,2046,2050,2076,2051
2067,2046,2048,2046,2051,2060,2059,2051
2059,2029,2043,2045,2043,2060,2042,2045
2055,2028,2043,2038,2024,2050,2064,2039
2056,2032,2038,2038,1993,2051,2042,2034
2054,2036,2039,2037,1996,2060,2054,2032
2034,2033,2036,2027,1999,2064,2045,2016
2020,2035,2029,2022,2011,2079,2036,2013
2029,2033,2039,2039,2060,2132,2065,2035
2049,2053,2047,2056,2087,2153,2091,2038
2054,2045,2046,2058,2052,2121,2084,2034
2062,2050,2046,2052,2007,2051,2038,2046
2057,2049,2044,2037,1954,1979,2044,2045
2044,2050,2041,2036,1972,1923,2045,2056
2053,2049,2041,2043,2015,1938,2054,2044
2045,2051,2052,2054,2054,2014,2069,2056
2056,2065,2063,2067,2093,2071,2064,2075
2060,2066,2065,2069,2117,2098,2078,2076
2064,2057,2062,2065,2095,2091,2066,2075
2058,2053,2052,2054,2046,2085,2056,2069
2051,2050,2046,2038,2032,2074,2052,2068
2054,2054,2052,2041,2039,2061,2053,2070
2051,2050,2047,2044,2051,2035,2032,2071
2054,2049,2045,2040,2076,2008,2022,2056
2038,2040,2051,2042,2137,2019,2016,2067
2038,2048,2056,2058,2168,2037,2049,2088
2054,2056,2061,2062,2151,2044,2052,2087
2067,2061,2061,2053,2118,2039,2064,2079
2068,2063,2055,2051,2084,2036,2040,2076
2059,2062,2055,2052,2050,2034,2028,2071
2060,2053,2050,2048,1967,2012,2023,2063
2049,2048,2044,2031,1887,2008,2016,2053
2047,2054,2054,2036,1947,2031,2058,2060
2064,2057,2067,2057,2008,2047,2070,2058
2069,2069,2070,2059,2033,2056,2077,2057
2067,2073,2069,2058,2038,2054,2073,2053
2061,2071,2065,2056,2044,2049,2062,2041
2056,2065,2065,2050,2038,2043,2063,2038
2059,2064,2059,2044,2034,2036,2048,2039
2058,2059,2056,2042,2034,2035,2049,2026
2052,2042,2041,2036,2026,2019,2022,2024
2044,2036,2039,2034,2032,2011,2036,2031
2054,2052,2048,2042,2069,2040,2052,2040
2067,2057,2055,2050,2080,2045,2059,2045
2064,2052,2057,2053,2076,2046,2073,2049
2060,2050,2057,2046,2068,2042,2079,2055
2060,2058,2056,2048,2052,2037,2068,2050
2055,2050,2045,2045,2044,2037,2052,2063
2048,2043,2043,2039,2043,2033,2060,2067
2051,2050,2049,2042,2048,2033,2046,2069
2047,2049,2048,2043,2050,2036,2050,2067
2046,2049,2050,2047,2047,2035,2054,2074
2047,2038,2039,2035,2036,2036,2038,2072
2039,2024,2032,2038,2029,2040,2052,2078
2037,2023,2030,2036,2028,2041,2046,2079
2037,2031,2043,2035,2033,2043,2055,2082
2044,2042,2045,2035,2036,2043,2051,2073
2033,2044,2041,2038,2045,2044,2049,2072
2045,2040,2033,2033,2041,2044,2027,2080
2050,2040,2035,2033,2043,2045,2056,2076
2047,2041,2036,2031,2041,2039,2050,2069
2052,2044,2043,2046,2048,2042,2058,2076
2051,2050,2041,2052,2048,2039,2031,2069
2053,2057,2046,2044,2045,2038,2044,2065
2072,2063,2053,2046,2048,2042,2047,2058
2074,2064,2052,2051,2050,2048,2049,2048
2059,2056,2051,2048,2050,2047,2052,2047
2064,2047,2054,2045,2038,2038,2054,2054
2055,2045,2051,2039,2034,2028,2052,2049
2058,2045,2044,2031,2032,2034,2052,2043
2051,2046,2042,2037,2038,2041,2052,2054
2060,2042,2046,2040,2046,2041,2047,2052
2058,2048,2052,2046,2049,2032,2040,2050
2062,2052,2058,2049,2043,2023,2052,2051
2060,2046,2045,2042,2041,2012,2041,2053
2058,2036,2044,2039,2042,2014,2027,2050
2058,2046,2046,2041,2044,2015,2040,2054
2059,2052,2055,2044,2053,2036,2046,2061
2064,2050,2053,2042,2058,2044,2044,2069
2056,2046,2054,2040,2064,2037,2046,2062
2057,2052,2053,2039,2070,2058,2078,2074
2058,2057,2061,2047,2068,2064,2047,2082
2062,2056,2055,2043,2066,2071,2063,2082
2071,2051,2051,2039,2054,2076,2071,2082
2065,2049,2053,2032,2041,2093,2085,2081
2057,2052,2051,2035,2048,2098,2096,2083
2050,2062,2059,2045,2054,2085,2074,2095
2054,2066,2059,2042,2046,2063,2095,2099
2053,2063,2055,2045,2049,2048,2075,2097
2054,2061,2054,2040,2028,2035,2058,2099
2048,2048,2048,2036,2006,2022,2078,2092
2045,2047,2039,2036,2018,2023,2059,2091
2045,2056,2051,2042,2014,2037,2067,2091
2049,2056,2055,2044,2002,2033,2074,2084
2056,2060,2048,2041,1996,2036,2074,2083
2055,2065,2057,2041,2022,2046,2080,2082
2056,2066,2053,2042,2026,2051,2075,2082
2061,2053,2056,2031,2011,2043,2060,2069
2060,2056,2052,2027,2037,2036,2058,2058
2056,2050,2053,2032,2033,2036,2070,2060
2064,2050,2046,2036,2050,2047,2066,2058
2055,2052,2042,2031,2050,2059,2078,2054
2056,2043,2040,2030,2050,2051,2082,2053
2054,2047,2044,2038,2056,2040,2059,2053
2064,2046,2040,2036,2054,2019,2056,2058
2068,2042,2036,2029,2041,2026,2063,2066
2080,2049,2038,2026,2059,2045,2062,2066
2071,2049,2042,2043,2100,2052,2060,2049
2067,2050,2046,2050,2098,2053,2067,2046
2075,2046,2044,2048,2086,2057,2072,2046
2060,2043,2043,2045,2089,2063,2061,2042
2050,2039,2044,2039,2052,2054,2072,2049
2036,2045,2050,2036,1979,2048,2056,2043
2010,2039,2047,2032,2009,2036,2056,2056
2021,2046,2049,2039,2036,2036,2067,2081
2042,2050,2054,2046,2046,2032,2065,2082
2051,2059,2053,2042,2041,2009,2053,2083
2058,2061,2059,2041,2024,1997,2046,2086
2058,2047,2053,2039,2012,1993,2037,2087
2059,2039,2043,2033,1999,1994,2035,2091
2045,2025,2032,2019,2005,2008,2040,2077
2043,2031,2038,2036,2044,2035,2064,2080
2048,2042,2055,2062,2076,2055,2075,2093
2054,2051,2060,2061,2066,2056,2063,2084
2044,2047,2055,2051,2068,2051,2065,2092
2043,2048,2047,2047,2066,2068,2074,2087
2050,2059,2052,2046,2059,2064,2074,2089
2049,2059,2048,2041,2044,2062,2072,2087
2049,2057,2051,2036,2053,2071,2083,2083
2057,2055,2050,2047,2054,2078,2070,2077
2052,2059,2054,2053,2062,2088,2070,2073
2054,2056,2051,2052,2061,2100,2084,2065
2055,2056,2046,2052,2047,2095,2073,2057
2059,2051,2057,2048,2036,2052,2071,2055
2056,2054,2054,2045,2013,2005,2066,2059
2052,2062,2062,2045,2018,2013,2081,2064
2056,2067,2062,2058,2016,2026,2087,2064
2062,2067,2064,2057,2026,2031,2078,2059
2060,2065,2064,2053,2036,2016,2070,2056
2058,2065,2065,2050,2033,2014,2072,2052
2054,2062,2061,2043,2054,2015,2050,2050
2044,2049,2050,2040,2073,2019,2057,2038
2039,2047,2055,2052,2103,2049,2065,2054
2043,2054,2062,2051,2131,2081,2084,2060
2050,2062,2058,2038,2103,2081,2085,2066
2052,2050,2052,2038,2078,2096,2080,2067
2050,2044,2047,2017,2005,2123,2089,2074
2057,2056,2053,2030,2021,2121,2074,2063
2057,2055,2049,2035,2059,2045,2042,2062
2047,2049,2039,2035,2049,1973,2055,2062
2041,2033,2043,2031,2024,2006,2067,2067
2044,2035,2042,2028,1999,2054,2073,2065
2036,2031,2045,2030,2011,2069,2066,2069
2036,2031,2047,2034,2039,2073,2052,2066
2029,2036,2048,2037,2081,2082,2050,2069
2029,2046,2047,2038,2111,2070,2025,2078
2032,2047,2045,2031,2072,2044,2029,2083
2033,2032,2037,2021,2022,2010,2023,2085
2036,2031,2038,2036,2025,1976,2038,2094
2054,2049,2052,2055,2081,1982,2057,2094
2056,2044,2050,2051,2076,1999,2066,2084
2045,2040,2036,2037,2050,2009,2057,2071
2041,2034,2041,2034,2034,2031,2047,2069
2047,2045,2051,2034,2032,2035,2049,2075
2050,2050,2062,2040,2023,2042,2055,2078
2060,2059,2065,2041,2022,2053,2059,2069
2067,2059,2065,2034,2030,2050,2077,2066
2069,2063,2062,2038,2034,2024,2061,2062
2065,2060,2056,2036,2055,2020,2076,2058
2056,2061,2056,2039,2063,2045,2080,2062
2056,2054,2058,2040,2065,2052,2068,2051
2050,2057,2051,2037,2047,2049,2074,2052
2057,2059,2050,2036,2041,2038,2072,2058
2061,2064,2056,2031,2043,2032,2046,2040
2047,2051,2053,2033,2039,2033,2040,2036
2038,2047,2054,2042,2042,2035,2054,2050
2047,2058,2061,2050,2049,2041,2057,2053
2057,2059,2060,2052,2047,2043,2057,2056
2058,2058,2064,2052,2039,2042,2049,2058
2057,2058,2062,2047,2051,2031,2050,2056
2046,2066,2064,2048,2085,2035,2057,2057
2051,2062,2060,2042,2065,2048,2068,2060
2046,2054,2060,2033,2025,2058,2074,2066
2040,2046,2051,2029,2030,2066,2069,2072
2050,2054,2053,2027,2033,2074,2059,2082
2059,2059,2059,2029,2042,2044,2061,2093
2066,2065,2068,2045,2053,2007,2070,2116
2067,2070,2072,2050,2047,2005,2055,2109
2064,2069,2070,2045,2073,2008,2033,2098
2061,2057,2065,2050,2104,2027,2024,2093
2050,2058,2059,2047,2113,2038,2015,2079
2036,2046,2042,2035,2080,2028,2004,2067
2040,2043,2037,2038,2064,2035,2030,2079
2046,2045,2057,2044,2070,2042,2047,2084
2056,2053,2055,2047,2061,2031,2044,2081
2063,2052,2052,2036,2019,1998,2008,2072
2057,2049,2051,2027,2010,1977,2014,2071
2056,2047,2054,2027,1992,1986,2017,2071
2063,2058,2060,2026,1965,1986,2020,2070
2068,2058,2052,2016,1947,1984,2017,2060
2057,2050,2045,2012,1963,2000,2014,2058
2052,2055,2044,2025,2038,2017,2028,2050
2051,2061,2057,2037,2085,2030,2050,2062
2060,2055,2062,2052,2120,2054,2074,2076
2065,2055,2066,2058,2172,2062,2066,2074
2056,2060,2062,2054,2163,2072,2056,2065
2064,2053,2057,2046,2128,2081,2067,2076
2058,2045,2051,2043,2040,2090,2055,2060
2049,2041,2053,2039,1957,2109,2044,2052
2046,2044,2059,2028,1871,2134,2050,2051
2049,2056,2060,2030,1881,2098,2041,2042
2048,2057,2060,2037,1908,2053,2020,2045
2043,2065,2062,2050,1990,2030,2038,2043
2041,2070,2061,2057,2046,2033,2028,2050
2040,2061,2052,2029,1989,2017,2004,2057
2033,2055,2045,2003,1935,2016,2010,2056
2040,2060,2050,2014,1972,2043,2021,2064
2050,2057,2051,2019,1981,2049,2028,2062
2048,2053,2046,2024,1973,2004,2006,2069
2041,2054,2062,2044,2039,1969,2024,2089
2052,2068,2071,2069,2119,2014,2049,2104
2057,2066,2067,2067,2128,2053,2044,2096
2054,2057,2061,2061,2109,2078,2059,2097
2053,2058,2059,2049,2091,2061,2050,2095
2045,2039,2043,2029,2060,2036,2046,2090
2044,2035,2039,2032,2088,2031,2045,2101
2056,2048,2045,2050,2098,2035,2054,2082
2043,2047,2052,2048,2086,2032,2064,2064
2044,2050,2049,2045,2063,2021,2041,2057
2035,2050,2049,2041,2054,2019,2043,2050
2035,2053,2055,2048,2056,2028,2040,2056
2042,2060,2054,2046,2065,2038,2051,2064
2056,2056,2054,2046,2073,2046,2048,2063
2055,2057,2055,2046,2082,2051,2057,2067
2056,2055,2050,2045,2078,2051,2048,2064
2054,2047,2041,2039,2060,2033,2040,2065
2054,2045,2031,2034,2063,2028,2018,2062
2063,2061,2045,2041,2060,2031,2006,2059
2069,2061,2055,2048,2059,2033,2032,2056
2065,2060,2057,2048,2072,2044,2026,2048
2048,2050,2057,2050,2064,2046,2040,2049
2034,2038,2048,2049,2060,2041,2033,2047
2034,2039,2040,2048,2057,2039,2036,2051
2041,2043,2049,2047,2058,2034,2036,2046
2042,2044,2045,2043,2054,2030,2032,2045
2040,2039,2044,2041,2051,2029,2045,2043
2047,2047,2043,2038,2040,2032,2048,2045
2049,2047,2044,2042,2051,2045,2063,2056
2050,2045,2046,2042,2059,2056,2073,2060
2052,2045,2049,2042,2063,2057,2072,2063
2046,2038,2040,2043,2060,2061,2071,2068
2053,2042,2048,2044,2061,2062,2080,2077
2061,2053,2066,2053,2064,2069,2083,2079
2068,2063,2067,2060,2072,2059,2067,2082
2065,2060,2066,2058,2068,2042,2059,2085
2058,2059,2055,2045,2063,2030,2057,2085
2063,2045,2054,2044,2060,2039,2053,2078
2046,2042,2047,2039,2052,2040,2046,2067
2038,2034,2038,2032,2052,2050,2044,2071
2036,2032,2042,2034,2052,2064,2052,2073
2045,2044,2042,2043,2055,2066,2054,2077
2050,2041,2044,2040,2053,2071,2054,2068
2049,2047,2047,2041,2055,2073,2066,2072
2053,2047,2053,2045,2055,2075,2088,2076
2055,2049,2054,2048,2052,2063,2059,2063
2063,2052,2054,2053,2054,2028,2065,2058
2061,2057,2053,2056,2057,2024,2042,2052
2060,2050,2050,2048,2059,2026,2062,2049
2068,2038,2046,2042,2047,2027,2056,2043
2057,2031,2039,2040,2039,2036,2051,2041
2060,2026,2038,2038,2037,2031,2052,2049
2061,2024,2034,2040,2039,2023,2039,2062
2067,2036,2039,2049,2068,2038,2057,2073
2079,2035,2034,2043,2061,2029,2034,2067
2076,2025,2018,2033,2047,2007,2020,2043
2061,2024,2028,2039,2051,2007,2033,2026
2059,2045,2058,2059,2084,2033,2052,2020
2068,2055,2070,2061,2078,2059,2048,2023
2056,2044,2052,2050,2047,2062,2025,2026
2046,2038,2050,2042,1997,2058,2041,2031
2032,2032,2046,2035,2002,2047,2018,2031
2022,2035,2037,2029,2011,2021,2028,2039
2022,2038,2040,2029,1999,1988,2043,2057
2035,2053,2046,2047,2056,2021,2058,2068
2056,2066,2058,2054,2082,2059,2052,2078
2059,2062,2053,2049,2052,2095,2066,2083
2056,2054,2052,2043,2050,2084,2058,2085
2060,2053,2050,2042,2056,2080,2059,2088
2052,2055,2050,2041,2068,2088,2064,2090
2063,2055,2053,2053,2066,2081,2069,2091
2059,2057,2050,2057,2068,2057,2052,2080
2045,2037,2042,2046,2058,2025,2050,2081
2043,2036,2034,2038,2040,2023,2046,2086
2046,2047,2045,2044,2043,2028,2044,2079
2053,2047,2046,2039,2036,2022,2046,2072
2058,2047,2045,2043,2041,2028,2050,2065
2056,2047,2049,2046,2052,2043,2054,2055
2050,2044,2046,2045,2054,2042,2041,2049
2055,2046,2041,2049,2045,2041,2043,2049
2055,2044,2041,2044,2040,2036,2050,2043
2057,2041,2040,2042,2033,2042,2050,2044
2053,2044,2043,2042,2044,2044,2049,2044
2057,2048,2047,2054,2060,2056,2036,2038
2060,2049,2048,2059,2067,2054,2040,2034
2057,2051,2052,2054,2068,2057,2042,2032
2051,2051,2056,2047,2057,2077,2050,2031
2052,2043,2045,2043,2052,2069,2052,2030
2047,2045,2044,2044,2053,2043,2024,2031
2043,2030,2036,2041,2042,2036,2021,2029
2046,2040,2043,2045,2054,2052,2045,2037
2048,2052,2050,2057,2065,2053,2056,2041
2056,2055,2052,2053,2059,2057,2066,2051
2053,2054,2050,2053,2056,2061,2055,2052
2059,2054,2050,2056,2061,2056,2061,2052
2061,2051,2051,2059,2062,2057,2053,2057
2059,2055,2049,2059,2056,2061,2044,2059
2053,2051,2052,2060,2064,2052,2042,2057
2052,2051,2051,2054,2053,2048,2050,2060
2054,2049,2052,2054,2051,2052,2039,2069
2057,2051,2051,2053,2044,2051,2041,2072
2050,2045,2048,2054,2049,2051,2037,2071
2047,2046,2049,2056,2046,2045,2028,2078
2053,2049,2047,2049,2036,2042,2047,2088
2053,2046,2045,2050,2040,2038,2047,2089
2052,2042,2041,2045,2039,2033,2030,2075
2042,2028,2038,2041,2040,2034,2037,2072
2043,2030,2039,2048,2048,2036,2048,2076
2047,2038,2046,2043,2043,2051,2047,2072
2052,2043,2037,2045,2051,2070,2048,2069
2048,2042,2039,2029,2053,2064,2049,2062
2047,2041,2034,2034,2050,2064,2065,2056
2042,2041,2028,2034,2050,2064,2052,2047
2047,2041,2036,2032,2020,2070,2067,2049
2050,2047,2038,2039,2011,2075,2053,2053
2059,2050,2043,2042,2026,2090,2076,2056
2062,2053,2049,2054,2086,2124,2083,2061
2070,2052,2050,2069,2173,2147,2090,2066
2082,2055,2051,2076,2195,2141,2097,2076
2076,2050,2041,2071,2157,2105,2063,2063
2067,2043,2040,2068,2148,2089,2065,2042
2066,2046,2042,2072,2147,2097,2066,2020
2049,2045,2045,2064,2146,2061,2031,2013
2052,2039,2037,2048,2100,2004,2021,2023
2063,2036,2043,2017,1979,1959,1986,2021
2042,2030,2026,1964,1741,1907,1991,2017
2036,2024,2019,1960,1735,1923,1982,2022
2034,2027,2034,2013,1903,1982,1997,2030
2029,2034,2037,2048,2030,2016,2036,2038
2025,2045,2049,2063,2061,2020,2050,2055
2053,2058,2057,2062,2057,2023,2039,2055
2058,2062,2059,2063,2059,2038,2051,2068
2069,2066,2066,2070,2075,2056,2072,2076
2055,2059,2064,2066,2077,2051,2071,2079
2054,2050,2061,2052,2047,2038,2057,2079
2053,2041,2050,2048,1993,2018,2051,2079
2049,2042,2043,2043,2006,2015,2035,2093
2051,2046,2041,2042,1998,2010,2041,2090
2048,2050,2043,2028,1975,2017,2016,2074
2044,2038,2037,2029,1989,2042,2042,2072
2042,2044,2046,2058,2045,2061,2056,2078
2056,2060,2060,2074,2079,2066,2049,2081
2059,2052,2053,2058,2065,2054,2029,2080
2056,2048,2042,2042,2070,2043,2021,2066
2053,2048,2044,2043,2079,2047,2023,2064
2047,2048,2045,2044,2065,2045,2058,2057
2059,2059,2056,2049,2049,2053,2023,2050
2065,2063,2055,2054,2040,2053,2029,2044
2065,2057,2048,2053,2052,2056,2044,2046
2058,2046,2042,2051,2043,2050,2047,2047
2052,2042,2046,2052,2051,2050,2048,2053
2049,2044,2043,2049,2052,2055,2053,2048
2062,2047,2048,2058,2052,2045,2047,2041
2059,2043,2048,2051,2062,2044,2034,2037
2049,2041,2045,2058,2059,2046,2033,2042
2050,2034,2042,2050,2053,2040,2019,2037
2046,2030,2033,2047,2052,2041,2029,2034
2040,2032,2038,2046,2058,2047,2050,2046
2047,2045,2040,2055,2056,2059,2065,2050
2051,2052,2044,2063,2092,2051,2054,2051
2055,2052,2042,2062,2123,2055,2056,2057
2058,2058,2041,2060,2132,2048,2052,2062
2062,2078,2056,2070,2149,2063,2061,2054
2066,2084,2069,2070,2148,2060,2071,2060
2061,2075,2057,2064,2133,2053,2040,2060
2064,2071,2049,2059,2099,2054,2052,2067
2066,2065,2052,2052,2054,2038,2057,2068
2061,2054,2050,2038,1927,2027,2053,2069
2057,2051,2042,2033,1927,2036,2045,2074
2050,2052,2040,2040,1973,2036,2054,2080
2050,2051,2039,2041,2000,2030,2037,2073
2047,2054,2034,2037,2013,2030,2030,2079
2046,2049,2033,2034,2016,2036,2028,2073
2047,2042,2032,2038,2036,2044,2046,2080
2045,2050,2040,2050,2052,2056,2054,2079
2052,2058,2041,2048,2058,2066,2064,2067
2052,2055,2039,2052,2051,2062,2059,2060
2050,2052,2043,2053,2041,2052,2057,2064
2060,2048,2037,2047,2040,2059,2047,2061
2056,2049,2036,2048,2032,2056,2032,2049
2058,2050,2039,2054,2037,2060,2038,2045
2056,2050,2044,2051,2038,2057,2047,2045
2057,2047,2039,2051,2036,2059,2046,2044
2062,2048,2040,2057,2047,2057,2049,2037
2050,2043,2041,2058,2052,2055,2045,2036
2047,2047,2045,2059,2064,2062,2046,2034
2047,2047,2042,2058,2058,2063,2043,2032
2051,2049,2047,2063,2055,2052,2042,2032
2053,2044,2053,2062,2060,2046,2021,2032
2049,2045,2045,2057,2061,2043,2036,2028
2054,2042,2040,2054,2049,2044,2050,2031
2056,2046,2042,2058,2049,2052,2058,2035
2061,2040,2038,2050,2038,2044,2046,2039
2048,2040,2031,2044,2033,2041,2032,2037
2042,2031,2028,2048,2038,2049,2052,2035
2042,2035,2035,2049,2052,2045,2053,2043
2044,2042,2044,2058,2047,2036,2049,2045
2049,2051,2044,2055,2040,2056,2051,2047
2044,2048,2036,2044,2012,2056,2042,2041
2040,2043,2034,2036,1985,2045,2049,2047
2039,2049,2040,2039,1979,2036,2050,2057
2048,2050,2039,2041,1984,2021,2058,2066
2041,2047,2040,2040,2001,1993,2038,2076
2051,2049,2039,2057,2045,2000,2037,2082
2055,2057,2049,2076,2091,2021,2041,2084
2054,2057,2052,2080,2110,2049,2050,2081
2044,2053,2044,2062,2101,2062,2041,2076
2045,2047,2041,2056,2075,2049,2048,2080
2062,2062,2050,2060,2048,2030,2019,2074
2056,2063,2050,2056,2044,2022,2034,2075
2056,2060,2055,2057,2041,2005,2031,2069
2051,2055,2048,2047,2029,1994,2047,2055
2053,2052,2041,2051,2022,2007,2033,2053
2049,2049,2045,2048,2013,2017,2043,2048
2054,2051,2040,2040,2008,2034,2054,2031
2047,2045,2033,2034,2002,2059,2041,2016
2040,2037,2031,2035,2023,2072,2052,2019
2045,2043,2043,2046,2054,2060,2041,2033
2061,2053,2051,2056,2069,2035,2037,2034
2060,2058,2049,2059,2082,2017,2037,2033
2053,2052,2047,2070,2090,2034,2065,2040
2056,2058,2053,2071,2091,2045,2078,2042
2060,2058,2050,2066,2082,2050,2062,2023
2064,2047,2039,2057,2079,2051,2046,2016
2046,2042,2038,2057,2069,2050,2015,2005
2045,2055,2049,2053,2051,2052,2042,2016
2039,2056,2050,2049,2039,2068,2039,2024
2040,2050,2046,2047,2037,2088,2040,2030
2046,2055,2043,2048,2032,2107,2051,2044
2056,2051,2046,2058,2054,2057,2041,2049
2062,2060,2057,2064,2074,2041,2054,2063
2068,2058,2059,2071,2077,2056,2060,2066
2066,2055,2064,2069,2063,2052,2070,2068
2068,2054,2060,2066,2042,2046,2071,2071
2067,2050,2056,2059,2040,2046,2053,2067
2058,2057,2052,2060,2065,2059,2076,2076
2052,2056,2042,2054,2064,2062,2035,2076
2058,2052,2045,2057,2047,2058,2030,2079
2057,2044,2040,2050,2032,2048,2028,2066
2050,2037,2029,2040,2011,2026,2044,2065
2043,2032,2024,2036,2005,2032,2043,2073
2050,2037,2033,2046,2047,2048,2047,2078
2062,2047,2038,2067,2066,2043,2038,2079
2055,2050,2039,2071,2087,2050,2049,2062
2057,2048,2040,2074,2097,2054,2027,2056
2052,2058,2045,2080,2105,2072,2036,2050
2051,2055,2039,2079,2090,2068,2047,2044
2051,2053,2039,2070,2098,2081,2052,2037
2046,2051,2042,2069,2084,2077,2064,2038
2054,2043,2038,2054,2023,2062,2054,2031
2049,2041,2030,2030,1978,2037,2054,2019
2044,2034,2025,2016,1951,2018,2056,2018
2042,2035,2032,2031,1994,2043,2047,2027
2048,2047,2040,2049,2012,2064,2054,2039
2054,2051,2045,2059,2026,2044,2048,2052
2060,2059,2051,2059,2026,2015,2037,2043
2063,2050,2042,2056,2036,2010,2026,2042
2060,2053,2044,2060,2048,2022,2020,2042
2062,2052,2045,2069,2062,2046,2039,2035
2055,2048,2042,2053,2070,2066,2044,2033
2052,2048,2039,2050,2082,2077,2046,2038
2053,2052,2042,2047,2066,2082,2064,2043
2054,2048,2049,2048,2051,2066,2076,2044
2057,2060,2061,2060,2064,2066,2060,2059
2057,2063,2058,2064,2066,2064,2053,2064
2058,2062,2060,2072,2060,2056,2063,2076
2071,2069,2064,2072,2058,2059,2052,2072
2064,2064,2054,2067,2059,2054,2054,2067
2054,2052,2040,2059,2073,2048,2067,2065
2049,2041,2034,2052,2094,2044,2049,2068
2053,2041,2034,2063,2093,2037,2035,2072
2046,2046,2040,2059,2095,2040,2043,2074
2053,2045,2047,2070,2102,2043,2033,2066
2043,2038,2038,2070,2095,2051,2036,2058
2035,2030,2027,2064,2056,2063,2040,2068
2041,2041,2037,2068,2044,2033,2037,2058
2042,2040,2032,2064,2052,2030,2037,2057
2043,2042,2033,2064,2035,2038,2043,2052
2047,2042,2038,2058,1979,2039,2053,2054
2052,2052,2039,2055,1988,2043,2050,2050
2061,2057,2045,2054,1980,2046,2059,2050
2057,2056,2049,2067,2000,2057,2058,2049
2060,2057,2048,2066,2003,2045,2052,2044
2060,2064,2050,2058,2014,2035,2042,2037
2064,2062,2044,2052,2033,2033,2044,2037
2060,2060,2045,2045,2024,2043,2071,2041
2064,2057,2049,2044,2056,2067,2062,2050
2063,2061,2051,2056,2076,2074,2062,2047
2063,2062,2054,2055,2043,2059,2059,2037
2061,2057,2049,2054,2047,2066,2049,2032
2057,2056,2046,2055,2086,2084,2037,2035
2056,2057,2047,2054,2098,2109,2060,2036
2067,2061,2055,2054,2079,2112,2038,2029
2061,2063,2046,2055,2071,2089,2030,2029
2059,2055,2051,2063,2075,2042,2020,2034
2054,2051,2051,2068,2058,2022,2034,2039
2055,2049,2049,2067,2054,2042,2049,2054
2057,2052,2046,2061,2041,2045,2040,2053
2050,2048,2043,2052,2017,2037,2037,2054
2052,2052,2041,2048,2015,2042,2045,2052
2049,2044,2042,2047,2030,2050,2047,2053
2057,2039,2034,2051,2025,2048,2042,2059
2049,2041,2041,2055,2027,2056,2027,2066
2039,2035,2032,2058,2046,2059,2049,2073
2041,2027,2033,2060,2058,2068,2063,2074
2049,2034,2036,2063,2070,2063,2046,2067
2042,2028,2025,2055,2063,2044,2029,2054
2025,2009,2008,2037,2050,2029,2023,2046
2018,2009,2012,2049,2041,2042,2038,2050
2021,2024,2028,2063,2044,2058,2061,2061
2033,2040,2050,2076,2055,2066,2050,2066
2051,2064,2058,2079,2066,2063,2065,2054
2045,2055,2048,2069,2055,2056,2051,2050
2047,2045,2041,2054,2027,2047,2042,2050
2047,2042,2038,2050,2020,2043,2040,2048
2054,2044,2039,2052,2035,2047,2037,2040
2054,2053,2045,2056,2071,2054,2038,2042
2052,2052,2043,2065,2083,2055,2045,2041
2048,2056,2051,2063,2085,2067,2053,2038
2048,2049,2055,2058,2069,2069,2061,2043
2052,2049,2051,2057,2040,2070,2050,2037
2046,2044,2044,2048,2038,2064,2052,2031
2038,2038,2037,2050,2050,2058,2042,2032
2025,2025,2029,2044,2031,2039,2030,2023
2026,2022,2026,2040,2028,2043,2034,2025
2038,2048,2052,2062,2057,2057,2044,2036
2053,2064,2062,2072,2067,2063,2062,2044
2060,2065,2061,2076,2080,2063,2060,2045
2053,2062,2056,2071,2091,2062,2053,2052
2064,2060,2058,2073,2086,2060,2067,2058
2061,2056,2059,2076,2081,2063,2062,2053
2066,2054,2052,2071,2079,2059,2057,2051
2071,2047,2052,2072,2072,2063,2044,2061
2064,2041,2049,2063,2064,2057,2059,2048
2058,2036,2038,2050,2039,2049,2046,2057
2045,2041,2040,2035,2012,2048,2050,2065
2034,2040,2040,2040,2024,2053,2037,2070
2020,2052,2047,2051,2064,2061,2025,2071
2030,2061,2053,2059,2109,2061,2057,2084
2041,2063,2053,2063,2120,2061,2049,2080
2045,2052,2042,2058,2127,2054,2046,2078
2043,2045,2035,2053,2128,2053,2050,2077
2046,2050,2048,2057,2116,2065,2059,2074
2036,2052,2043,2062,2098,2068,2068,2077
2045,2052,2049,2060,2035,2061,2067,2062
2047,2053,2043,2052,1914,2052,2038,2057
2044,2056,2049,2042,1921,2048,2044,2060
2055,2059,2047,2045,1964,2054,2049,2054
2051,2049,2041,2050,1996,2065,2049,2052
2045,2043,2037,2047,2015,2054,2053,2045
2042,2038,2038,2051,2025,2067,2051,2032
2040,2045,2047,2055,2030,2068,2049,2035
2045,2049,2051,2055,2034,2070,2049,2039
2054,2051,2047,2051,2028,2064,2046,2043
2052,2050,2047,2050,2027,2059,2060,2040
2051,2048,2042,2046,2020,2050,2057,2039
2047,2045,2045,2044,2009,2042,2051,2034
2046,2029,2028,2037,2009,2039,2046,2030
2035,2028,2028,2045,2018,2044,2065,2038
2051,2036,2042,2050,2025,2049,2047,2036
2048,2041,2047,2050,2020,2039,2051,2040
2048,2047,2047,2054,2020,2024,2048,2037
2055,2046,2051,2054,2019,2026,2059,2037
2050,2050,2049,2055,2030,2034,2043,2031
2048,2056,2047,2060,2047,2045,2054,2030
2043,2051,2039,2056,2054,2057,2061,2047
2044,2048,2050,2054,2030,2068,2074,2053
2046,2049,2049,2059,2014,2067,2056,2068
2052,2041,2050,2054,2005,2062,2054,2075
2054,2030,2038,2051,2023,2061,2057,2074
2042,2019,2031,2049,2040,2045,2042,2067
2047,2020,2032,2046,2057,2041,2048,2061
2045,2028,2043,2053,2075,2043,2046,2064
2040,2033,2036,2055,2080,2040,2043,2056
2030,2023,2031,2047,2076,2048,2033,2058
2034,2025,2036,2051,2085,2064,2051,2063
2024,2033,2038,2060,2117,2067,2049,2057
2038,2039,2045,2062,2115,2057,2051,2052
2044,2052,2039,2054,2063,2051,2041,2044
2039,2046,2043,2044,2024,2054,2040,2034
2038,2046,2041,2030,1949,2054,2033,2030
2037,2047,2042,2014,1898,2052,2043,2031
2046,2046,2033,2016,1946,2037,2037,2031
2048,2047,2043,2033,2002,2016,2045,2033
2046,2049,2041,2048,2049,2024,2063,2034
2054,2047,2045,2056,2064,2043,2057,2040
2050,2053,2046,2060,2070,2057,2047,2035
2046,2048,2049,2058,2062,2060,2050,2026
2044,2053,2051,2053,2052,2057,2054,2027
2044,2056,2050,2046,2052,2051,2068,2032
2036,2040,2037,2042,2051,2044,2041,2021
2037,2042,2037,2049,2050,2038,2048,2028
2041,2051,2052,2057,2057,2046,2054,2039
2046,2050,2047,2054,2055,2045,2060,2043
2053,2053,2049,2054,2056,2049,2051,2046
2059,2051,2052,2054,2054,2049,2039,2051
2060,2052,2054,2047,2051,2057,2042,2060
2064,2055,2052,2056,2057,2062,2058,2059
2060,2047,2051,2050,2056,2058,2056,2056
2042,2036,2042,2047,2056,2057,2051,2051
2033,2037,2041,2047,2047,2049,2047,2055
2027,2031,2039,2047,2049,2053,2051,2062
2026,2034,2034,2049,2052,2054,2057,2075
2039,2041,2042,2047,2055,2054,2049,2076
2050,2043,2039,2047,2058,2062,2055,2073
2056,2046,2039,2048,2060,2077,2050,2084
2047,2045,2039,2049,2054,2084,2065,2065
2030,2033,2030,2043,2047,2073,2040,2069
2024,2038,2038,2043,2048,2064,2056,2068
2036,2052,2044,2052,2037,2044,2045,2068
2038,2050,2039,2045,2020,2006,2041,2060
2031,2048,2037,2039,1999,1958,2035,2050
2028,2041,2031,2021,1967,1951,2027,2044
2020,2038,2025,2019,1958,1963,2025,2037
2032,2036,2028,2026,1990,1990,2026,2040
2033,2038,2033,2028,2009,2030,2050,2029
2042,2051,2042,2046,2052,2072,2054,2037
2056,2052,2050,2061,2086,2084,2070,2038
2046,2054,2051,2062,2106,2067,2068,2033
2039,2050,2045,2065,2114,2077,2053,2037
2043,2047,2045,2065,2110,2076,2044,2035
2041,2040,2039,2060,2081,2066,2041,2024
2033,2048,2043,2052,2072,2059,2051,2035
2043,2058,2049,2049,2050,2060,2041,2034
2042,2045,2044,2051,2047,2055,2050,2035
2047,2049,2044,2053,2057,2054,2028,2040
2056,2060,2053,2056,2060,2055,2054,2042
2056,2063,2061,2053,2067,2061,2069,2048
2058,2063,2057,2056,2073,2068,2056,2052
2057,2063,2058,2053,2062,2059,2072,2061
2070,2056,2048,2046,2028,2046,2064,2076
2076,2055,2044,2045,2014,2038,2067,2074
2060,2048,2039,2036,2001,2015,2053,2074
2050,2040,2032,2036,1996,2006,2043,2064
2047,2040,2046,2049,1987,1999,2040,2066
2063,2054,2060,2064,2010,2015,2049,2078
2062,2053,2054,2074,2034,1988,2022,2066
2040,2054,2053,2065,2009,1970,2028,2070
2036,2061,2058,2065,2008,2004,2016,2080
2043,2069,2063,2077,2065,2072,2040,2080
2045,2064,2052,2060,2090,2117,2032,2062
2038,2047,2045,2037,2086,2133,2048,2062
2042,2052,2043,2027,2072,2109,2066,2068
2043,2053,2049,2041,2114,2103,2064,2063
2042,2052,2051,2049,2112,2096,2051,2057
2043,2052,2050,2046,2075,2094,2046,2046
2052,2044,2049,2040,2055,2097,2034,2037
2050,2046,2047,2040,2035,2082,2056,2031
2041,2043,2038,2033,2017,2057,2036,2028
2039,2041,2042,2039,2027,2012,2028,2024
2043,2039,2040,2048,2040,2013,2034,2021
2041,2046,2048,2052,2058,2040,2035,2021
2043,2045,2046,2052,2063,2059,2048,2022
2041,2048,2047,2045,2047,2052,2036,2021
2045,2038,2040,2040,2045,2020,2037,2036
2051,2040,2041,2049,2059,2004,2038,2037
2057,2049,2040,2050,2070,2009,2031,2028
2044,2039,2040,2047,2064,2014,2033,2025
2052,2044,2044,2047,2059,2018,2041,2031
2052,2053,2056,2052,2058,2028,2036,2029
2051,2050,2048,2049,2059,2034,2053,2029
2054,2052,2044,2047,2060,2036,2043,2041
2055,2054,2051,2048,2056,2038,2044,2038
2055,2057,2049,2050,2047,2048,2047,2040
2055,2053,2053,2048,2054,2066,2050,2049
2056,2059,2056,2051,2056,2073,2061,2054
2059,2050,2054,2052,2057,2079,2068,2062
2058,2055,2050,2046,2057,2070,2062,2062
2058,2049,2050,2047,2057,2063,2065,2076
2056,2049,2048,2049,2066,2060,2070,2074
2054,2050,2049,2049,2061,2056,2067,2069
2051,2051,2050,2041,2055,2056,2066,2072
2055,2051,2047,2044,2058,2045,2050,2071
2050,2049,2045,2036,2046,2034,2043,2064
2028,2026,2031,2028,2024,2039,2040,2054
2021,2021,2032,2024,1996,2053,2041,2064
2031,2039,2036,2027,1988,2044,2046,2062
2037,2046,2040,2034,1982,2037,2046,2057
2045,2050,2047,2037,1989,2017,2013,2054
2047,2054,2056,2050,2020,2026,2022,2053
2052,2058,2052,2056,2069,2059,2040,2057
2053,2060,2054,2053,2088,2060,2040,2050
2050,2053,2054,2047,2074,2056,2044,2042
2052,2047,2050,2047,2067,2063,2037,2040
2048,2041,2051,2042,2060,2068,2052,2034
2048,2041,2045,2038,2058,2082,2047,2025
2039,2035,2041,2035,2044,2077,2059,2027
2036,2036,2042,2036,2039,2069,2041,2025
2044,2044,2044,2030,2038,2060,2033,2023
2038,2039,2041,2041,2042,2034,2039,2032
2036,2031,2038,2038,2050,2011,2046,2027
2028,2021,2036,2032,2050,2024,2053,2023
2027,2029,2044,2049,2061,2060,2075,2032
2043,2044,2051,2050,2072,2082,2059,2050
2052,2050,2055,2056,2073,2083,2063,2052
2054,2040,2049,2052,2080,2074,2057,2043
2046,2044,2044,2045,2070,2074,2077,2040
2051,2043,2043,2050,2074,2072,2071,2041
2044,2042,2049,2047,2064,2068,2065,2055
2048,2041,2046,2041,2037,2059,2066,2059
2052,2040,2044,2043,2044,2062,2067,2053
2044,2030,2040,2044,2037,2064,2047,2055
2046,2026,2036,2037,2004,2049,2055,2057
2050,2034,2047,2036,1996,2036,2042,2070
2052,2040,2042,2040,1998,2036,2039,2066
2054,2044,2043,2042,2014,2024,2034,2077
2058,2045,2051,2049,2013,2016,2029,2073
2043,2040,2042,2044,2017,2006,2020,2066
2033,2024,2034,2039,2031,2016,2018,2068
2042,2037,2046,2043,2036,2029,2013,2072
2048,2038,2050,2035,2039,2032,2027,2068
2046,2036,2049,2041,2065,2045,2044,2064
2055,2041,2049,2043,2080,2046,2060,2063
2059,2045,2049,2041,2066,2042,2048,2054
2061,2051,2053,2036,2040,2038,2062,2055
2062,2056,2054,2035,2032,2037,2044,2049
2059,2059,2060,2047,2033,2042,2049,2051
2064,2068,2064,2055,2038,2034,2051,2052
2065,2067,2067,2053,2046,2050,2038,2054
2069,2066,2057,2053,2048,2056,2046,2047
2064,2060,2066,2048,2041,2062,2034,2034
2053,2053,2064,2044,2034,2075,2049,2027
2054,2053,2057,2039,2022,2081,2036,2030
2053,2047,2056,2035,2023,2063,2030,2025
2040,2033,2046,2033,2021,2046,2039,2018
2040,2036,2049,2042,2044,2017,2037,2029
2049,2053,2065,2068,2074,1990,2031,2034
2054,2058,2071,2069,2077,2018,2026,2044
2051,2056,2062,2065,2068,2038,2038,2048
2050,2058,2066,2062,2063,2049,2049,2046
2050,2062,2065,2068,2113,2054,2050,2046
2058,2060,2057,2063,2151,2051,2054,2044
2053,2056,2054,2062,2159,2048,2046,2050
2047,2052,2054,2066,2164,2051,2055,2045
2049,2048,2058,2063,2161,2061,2063,2059
2050,2054,2060,2066,2144,2064,2056,2063
2051,2059,2064,2064,2108,2058,2053,2067
2052,2056,2058,2062,2038,2049,2041,2068
2044,2049,2048,2044,1916,2027,2040,2066
2049,2048,2049,2041,1931,2035,2032,2064
2052,2043,2044,2040,1971,2037,2029,2062
2042,2032,2047,2037,1994,2039,2040,2066
2049,2034,2044,2043,2005,2051,2050,2076
2056,2046,2048,2045,2001,2059,2061,2070
2049,2044,2040,2033,1988,2070,2042,2055
2043,2047,2054,2050,2017,2078,2059,2056
2049,2050,2058,2072,2057,2089,2068,2058
2066,2053,2053,2071,2074,2077,2059,2045
2065,2050,2054,2069,2062,2071,2061,2037
2057,2053,2060,2062,2034,2066,2051,2032
2045,2052,2052,2051,2015,2054,2027,2027
2053,2039,2037,2049,2007,2048,2012,2026
2039,2039,2032,2038,2004,2033,2026,2016
2045,2040,2034,2035,1994,2019,2018,2010
2048,2040,2045,2037,2033,2045,2031,2023
2049,2044,2044,2048,2098,2066,2040,2019
2052,2041,2042,2054,2090,2061,2037,2018
2044,2044,2046,2055,2075,2068,2041,2028
2051,2045,2045,2050,2072,2068,2062,2028
2048,2052,2047,2059,2064,2067,2060,2033
2042,2036,2046,2052,2079,2068,2034,2034
2041,2041,2042,2056,2086,2078,2057,2035
2050,2043,2040,2052,2082,2069,2062,2038
2048,2042,2038,2047,2064,2056,2042,2036
2053,2038,2043,2046,2031,2036,2036,2039
2055,2045,2049,2042,1991,2023,2028,2037
2052,2047,2050,2037,1962,2018,2017,2049
2057,2053,2054,2050,1987,2021,2046,2055
2049,2045,2057,2057,2006,2044,2028,2064
2051,2038,2048,2038,1973,2053,2038,2072
2053,2031,2037,2037,2007,2082,2062,2067
2049,2028,2041,2046,2051,2088,2040,2066
2055,2036,2042,2049,2074,2072,2047,2064
2046,2038,2043,2050,2101,2058,2021,2047
2028,2040,2054,2061,2112,2060,2018,2058
2034,2053,2066,2072,2093,2076,2032,2062
2046,2059,2066,2064,2045,2080,2041,2070
2058,2060,2068,2064,2052,2071,2064,2066
2061,2060,2059,2057,2032,2062,2046,2058
2055,2053,2058,2060,2045,2066,2025,2053
2057,2047,2047,2057,2028,2048,2037,2045
2053,2040,2043,2050,2001,2039,2039,2025
2046,2037,2041,2041,1994,2030,2040,2010
2034,2042,2043,2015,1955,2007,2025,2001
2036,2038,2036,2011,1977,2013,2032,1999
2041,2044,2045,2030,2009,2012,2020,2014
2047,2047,2052,2052,2052,2023,2034,2027
2053,2061,2063,2069,2082,2045,2050,2032
2058,2067,2066,2069,2081,2054,2064,2036
2063,2059,2059,2061,2073,2057,2055,2025
2049,2038,2040,2044,2049,2045,2056,2024
2042,2034,2045,2049,2046,2041,2067,2033
2052,2047,2055,2054,2057,2039,2064,2040
2056,2054,2058,2060,2064,2036,2057,2042
2056,2055,2052,2061,2053,2022,2062,2045
2049,2057,2053,2052,2057,2020,2051,2040
2053,2056,2047,2049,2063,2018,2051,2042
2051,2049,2047,2050,2063,2018,2039,2043
2038,2049,2048,2044,2050,2009,2040,2049
2041,2045,2047,2047,2067,2015,2030,2060
2043,2046,2049,2059,2117,2034,2041,2063
2053,2049,2043,2066,2133,2047,2061,2070
2053,2056,2054,2066,2153,2051,2055,2081
2062,2050,2050,2062,2169,2046,2059,2090
2067,2060,2048,2069,2179,2044,2062,2093
2080,2054,2047,2068,2173,2051,2052,2081
2065,2038,2036,2055,2146,2056,2048,2074
2052,2032,2038,2045,2056,2047,2050,2064
2050,2043,2047,2030,1943,2030,2055,2058
2035,2056,2054,2023,1913,2016,2031,2054
2016,2057,2051,2013,1910,2002,2018,2055
2028,2052,2034,2006,1893,2034,2028,2046
2041,2055,2040,2019,1917,2090,2049,2031
2044,2060,2053,2025,1927,2094,2066,2035
2043,2052,2051,2023,1923,2068,2066,2042
2047,2052,2050,2016,1874,2020,2052,2039
2050,2059,2056,2015,1849,1992,2064,2038
2055,2064,2048,2021,1907,2001,2039,2032
2047,2056,2038,2011,1985,2018,2029,2032
2048,2050,2040,2039,2096,2063,2028,2042
2052,2057,2046,2064,2184,2093,2052,2037
2054,2055,2051,2076,2238,2128,2057,2025
2042,2045,2046,2074,2243,2150,2056,2008
2037,2042,2041,2064,2213,2103,2060,2010
2046,2048,2045,2062,2161,2042,2051,2011
2044,2048,2042,2051,2108,2019,2045,2020
2038,2045,2041,2040,2078,2040,2046,2018
2042,2044,2040,2044,2060,2047,2055,2033
2050,2045,2041,2046,2054,2051,2060,2039
2049,2041,2043,2046,2065,2057,2052,2035
2044,2039,2037,2044,2072,2057,2057,2044
2044,2043,2044,2048,2068,2052,2046,2054
2043,2039,2042,2050,2067,2058,2050,2064
2052,2044,2047,2048,2067,2063,2042,2062
2046,2042,2041,2048,2078,2068,2048,2061
2049,2044,2049,2054,2070,2067,2046,2063
2049,2044,2046,2051,2063,2056,2036,2067
2051,2039,2045,2047,2060,2056,2049,2066
2042,2035,2042,2046,2055,2060,2030,2062
2037,2025,2028,2040,2052,2064,2036,2061
2034,2024,2029,2044,2050,2077,2049,2068
2044,2042,2042,2046,2047,2072,2037,2057
2051,2047,2043,2052,2047,2072,2053,2062
2049,2048,2051,2048,2049,2076,2042,2059
2055,2048,2044,2044,2055,2090,2036,2054
2047,2048,2050,2048,2053,2094,2068,2053
2044,2049,2043,2047,2048,2099,2074,2051
2045,2043,2043,2042,2031,2084,2079,2050
2047,2044,2043,2040,2021,2067,2069,2037
2049,2048,2044,2041,2061,2053,2080,2035
2054,2045,2040,2045,2083,2042,2073,2034
2055,2045,2045,2042,2094,2012,2048,2024
2049,2035,2034,2039,2106,1999,2039,2019
2046,2037,2035,2048,2143,2040,2058,2029
2059,2052,2048,2068,2175,2066,2052,2035
2067,2052,2047,2073,2144,2062,2067,2037
2052,2052,2046,2058,2070,2050,2046,2029
2056,2058,2054,2049,1955,2048,2058,2030
2057,2064,2054,2050,1959,2041,2050,2035
2054,2054,2049,2055,2007,2046,2059,2031
2051,2054,2052,2060,2054,2060,2040,2035
2055,2057,2058,2064,2075,2075,2055,2040
2054,2056,2052,2069,2101,2092,2065,2050
2051,2061,2058,2072,2108,2107,2060,2052
2060,2061,2060,2066,2093,2097,2066,2058
2058,2060,2056,2064,2047,2064,2078,2060
2058,2055,2054,2057,2037,2044,2076,2068
2055,2049,2051,2061,2039,2033,2065,2071
2058,2047,2053,2061,2045,2035,2076,2080
2056,2048,2052,2053,2043,2036,2062,2081
2053,2049,2050,2052,2047,2035,2077,2077
2049,2040,2039,2047,2038,2021,2061,2065
2037,2023,2034,2041,2028,1995,2040,2054
2032,2022,2030,2041,2022,1976,2012,2051
2036,2028,2045,2043,2021,1984,2032,2041
