CH1,CH2,CH3,CH4,CH5,CH6,CH7,CH8
2041,2058,2073,2044,2078,2049,2042,2048
2049,2060,2080,2045,2065,2045,2058,2055
2045,2061,2078,2044,2061,2039,2060,2058
2056,2055,2079,2045,2034,2039,2058,2060
2052,2053,2078,2042,1995,2035,2062,2070
2053,2051,2072,2039,2021,2028,2070,2076
2049,2049,2072,2042,2040,2021,2065,2077
2045,2053,2077,2042,2034,2020,2061,2077
2040,2050,2076,2049,2035,2020,2059,2075
2045,2049,2074,2047,2048,2030,2073,2085
2049,2040,2059,2033,2056,2035,2047,2070
2035,2038,2045,2026,2050,2047,2055,2076
2033,2041,2051,2038,2064,2068,2057,2081
2046,2043,2049,2040,2063,2082,2058,2081
2039,2044,2042,2039,2060,2098,2062,2075
2044,2043,2044,2045,2066,2139,2081,2075
2051,2044,2040,2046,2068,2154,2076,2076
2053,2047,2046,2045,2050,2104,2065,2065
2050,2047,2039,2036,2029,2009,2062,2061
2050,2046,2035,2028,2017,2008,2050,2051
2043,2036,2031,2026,2017,2065,2069,2046
2040,2036,2032,2034,2034,2101,2077,2042
2042,2040,2038,2033,2045,2109,2083,2047
2048,2039,2039,2042,2049,2108,2074,2044
2049,2037,2036,2043,2050,2078,2064,2039
2046,2031,2029,2040,2039,2013,2077,2045
2046,2036,2033,2046,2042,1991,2056,2028
2046,2030,2026,2044,2037,2003,2033,2027
2042,2034,2024,2043,2046,2022,2051,2041
2046,2041,2038,2045,2054,2032,2053,2032
2042,2036,2029,2052,2050,2030,2056,2032
2046,2038,2031,2061,2036,2021,2056,2035
2045,2036,2043,2065,2042,2012,2046,2039
2049,2047,2058,2080,2041,2028,2043,2038
2059,2057,2057,2081,2043,2033,2044,2036
2049,2052,2050,2075,2043,2027,2043,2045
2049,2045,2036,2075,2043,2023,2043,2045
2041,2050,2037,2068,2046,2037,2026,2052
2042,2044,2033,2062,2053,2041,2049,2059
2044,2043,2028,2046,2038,2029,2040,2063
2035,2039,2017,2034,2016,2015,2029,2071
2037,2043,2025,2027,2014,2019,2044,2076
2043,2050,2051,2027,2012,2017,2035,2069
2043,2043,2051,2016,2005,2014,2039,2068
2032,2027,2038,2006,2014,2013,2038,2065
2028,2028,2041,2006,2016,2027,2035,2066
2028,2036,2051,2012,2020,2034,2034,2066
2033,2038,2056,2020,2022,2034,2044,2078
2035,2044,2053,2019,2021,2045,2044,2074
2044,2041,2045,2021,2023,2052,2046,2066
2044,2049,2049,2021,2029,2059,2060,2061
2046,2054,2061,2026,2022,2066,2069,2062
2051,2055,2047,2032,2025,2074,2073,2050
2052,2046,2045,2038,2041,2074,2086,2052
2053,2052,2041,2042,2053,2064,2084,2049
2057,2045,2031,2038,2043,2052,2061,2040
2046,2032,2025,2030,2038,2030,2032,2032
2040,2031,2027,2029,2039,2020,2003,2024
2037,2039,2025,2038,2042,2004,1989,2009
2033,2027,2021,2027,2038,1992,1999,2008
2034,2020,2023,2031,2038,2008,1983,2016
2038,2029,2031,2036,2056,2045,1996,2025
2039,2042,2039,2044,2057,2062,2020,2028
2044,2045,2046,2048,2058,2069,2032,2039
2048,2047,2048,2052,2055,2079,2035,2039
2048,2047,2049,2056,2061,2065,2054,2046
2051,2046,2049,2056,2060,2067,2035,2054
2050,2053,2051,2047,2057,2063,2049,2047
2042,2036,2037,2045,2053,2050,2045,2046
2032,2039,2039,2041,2047,2037,2043,2053
2032,2035,2041,2038,2047,2030,2039,2054
2037,2031,2034,2043,2050,2009,2048,2071
2043,2044,2036,2047,2055,2008,2050,2071
2047,2051,2040,2057,2055,1997,2031,2078
2048,2054,2034,2052,2055,1996,2013,2072
2035,2038,2023,2049,2046,2003,2014,2069
2036,2039,2028,2050,2040,2024,2007,2076
2049,2058,2045,2052,2043,2038,2021,2069
2045,2061,2034,2049,2045,2045,2032,2064
2046,2057,2032,2048,2038,2039,2027,2063
2045,2051,2034,2050,2034,2045,2033,2060
2046,2050,2036,2047,2044,2044,2033,2053
2051,2056,2032,2046,2045,2043,2021,2048
2047,2050,2037,2052,2046,2046,2030,2038
2047,2046,2034,2055,2049,2045,2033,2042
2042,2052,2044,2047,2045,2043,2049,2041
2046,2051,2050,2039,2041,2040,2048,2032
2033,2033,2045,2030,2032,2031,2033,2023
2025,2022,2041,2023,2023,2024,2019,2019
2017,2032,2049,2035,2031,2037,2031,2020
2032,2046,2065,2043,2036,2050,2043,2023
2036,2050,2074,2049,2043,2044,2032,2025
2036,2046,2070,2057,2050,2047,2041,2028
2051,2051,2088,2077,2067,2052,2059,2040
2053,2062,2095,2085,2066,2064,2056,2043
2055,2060,2092,2090,2066,2064,2059,2045
2051,2056,2077,2093,2072,2065,2052,2047
2059,2054,2068,2093,2070,2058,2069,2044
2059,2049,2050,2099,2069,2059,2063,2050
2056,2041,2040,2102,2072,2064,2070,2050
2056,2033,2016,2105,2068,2060,2046,2052
2051,2039,2009,2103,2062,2057,2036,2054
2049,2035,1993,2086,2054,2063,2043,2050
2043,2026,1978,2064,2049,2055,2054,2052
2032,2020,1966,2048,2028,2047,2058,2061
2031,2019,1964,2022,2014,2034,2045,2064
2039,2018,1965,2006,2008,2042,2056,2067
2050,2025,1968,1996,2015,2046,2043,2069
2047,2034,1976,1986,2019,2048,2031,2068
2044,2049,2008,1998,2025,2050,2031,2074
2052,2070,2030,2010,2034,2051,2029,2070
2056,2070,2040,2010,2038,2055,2056,2067
2048,2054,2029,1996,2031,2050,2053,2066
2047,2055,2027,1994,2032,2047,2060,2060
2062,2063,2050,2005,2034,2057,2057,2060
2067,2071,2089,2013,2039,2062,2063,2057
2070,2077,2112,2026,2036,2069,2070,2056
2067,2083,2116,2035,2036,2068,2072,2053
2066,2079,2112,2030,2048,2069,2059,2054
2068,2084,2097,2030,2031,2066,2065,2054
2067,2086,2090,2028,2025,2046,2058,2049
2072,2073,2082,2026,2043,2041,2045,2046
2067,2074,2085,2041,2062,2049,2061,2044
2074,2078,2094,2049,2066,2051,2044,2043
2067,2071,2082,2040,2037,2031,2048,2036
2063,2070,2070,2041,2034,2038,2052,2033
2062,2076,2071,2046,2048,2048,2064,2031
2064,2079,2068,2044,2057,2053,2050,2034
2060,2073,2061,2049,2077,2058,2052,2034
2059,2056,2052,2046,2080,2056,2042,2037
2061,2052,2046,2055,2093,2058,2040,2048
2067,2055,2054,2045,2096,2054,2032,2052
2067,2059,2060,2048,2076,2048,2054,2043
2062,2070,2067,2060,2073,2047,2050,2049
2062,2062,2064,2057,2090,2049,2048,2064
2062,2069,2045,2046,2068,2046,2038,2064
2061,2058,2034,2049,2054,2049,2033,2073
2059,2051,2031,2046,2046,2052,2052,2076
2048,2043,2019,2044,2045,2053,2056,2071
2047,2040,2020,2054,2052,2056,2056,2070
2046,2042,2025,2055,2046,2041,2055,2068
2046,2038,2021,2047,2055,2037,2040,2070
2051,2043,2029,2056,2064,2047,2045,2071
2051,2042,2022,2059,2068,2044,2061,2061
2048,2050,2008,2055,2062,2050,2044,2058
2038,2044,1998,2054,2062,2052,2038,2060
2047,2048,2012,2066,2082,2054,2052,2061
2056,2051,2012,2063,2071,2050,2058,2060
2050,2043,2004,2043,2053,2047,2041,2045
2044,2045,2007,2037,2044,2035,2039,2037
2048,2059,2038,2045,2039,2034,2033,2032
2051,2070,2077,2061,2035,2037,2056,2031
2047,2077,2098,2067,2052,2037,2047,2037
2052,2075,2078,2063,2065,2041,2058,2030
2055,2066,2054,2047,2068,2048,2037,2020
2045,2062,2035,2041,2088,2046,2049,2028
2050,2071,2041,2053,2120,2045,2053,2024
2045,2061,2029,2048,2140,2047,2042,2026
2050,2057,2020,2051,2135,2062,2048,2030
2050,2055,2009,2051,2116,2062,2050,2032
2047,2045,2012,2040,2121,2057,2058,2034
2040,2045,2026,2039,2114,2058,2060,2035
2051,2051,2049,2052,2124,2072,2074,2043
2057,2057,2062,2057,2129,2079,2068,2050
2059,2056,2072,2050,2088,2082,2083,2053
2057,2059,2080,2046,1978,2066,2077,2050
2056,2052,2071,2030,1910,2051,2056,2055
2056,2046,2064,2032,1963,2061,2059,2063
2062,2059,2075,2037,2017,2072,2070,2067
2063,2056,2083,2047,2059,2075,2070,2073
2060,2059,2079,2038,1999,2048,2050,2078
2053,2050,2073,2007,1881,2017,2024,2075
2044,2050,2073,2013,1897,2023,2041,2072
2044,2057,2074,2029,1970,2030,2046,2068
2045,2061,2077,2028,2027,2025,2025,2064
2049,2058,2087,2042,2078,2037,2036,2059
2045,2058,2083,2062,2119,2052,2045,2063
2049,2060,2098,2082,2148,2077,2070,2057
2047,2073,2104,2091,2124,2066,2081,2053
2058,2070,2096,2090,2087,2053,2060,2044
2063,2072,2097,2100,2078,2048,2071,2044
2054,2072,2103,2104,2076,2045,2065,2038
2049,2060,2089,2098,2056,2037,2055,2021
2051,2054,2080,2089,2042,2025,2065,2024
2046,2054,2074,2090,2034,2016,2051,2020
2053,2061,2074,2092,2027,2016,2036,2019
2055,2068,2073,2104,2034,2024,2045,2019
2057,2065,2065,2109,2042,2032,2038,2015
2059,2057,2055,2100,2066,2044,2058,2015
2050,2055,2049,2096,2085,2048,2046,2007
2042,2040,2037,2076,2079,2050,2027,2012
2043,2030,2027,2054,2072,2049,2044,2017
2039,2036,2013,2036,2056,2037,2047,2009
2032,2020,1993,2010,2039,2027,2041,2011
2030,2021,1994,2014,2046,2031,2055,2020
2050,2034,2022,2034,2064,2040,2070,2032
2057,2055,2042,2064,2077,2045,2083,2046
2062,2058,2042,2073,2081,2053,2075,2047
2055,2054,2034,2066,2071,2055,2058,2047
2056,2058,2036,2076,2076,2053,2063,2044
2061,2060,2033,2079,2074,2050,2041,2045
2066,2054,2030,2081,2068,2048,2044,2050
2051,2041,2009,2072,2066,2055,2027,2052
2049,2039,1996,2063,2065,2054,2016,2050
2049,2031,1989,2057,2072,2056,2030,2056
2038,2026,1992,2055,2081,2047,2033,2065
2045,2031,1997,2044,2074,2039,2021,2058
2039,2032,1993,2023,2026,2031,2029,2060
2033,2021,1978,1990,2043,2026,2023,2056
2031,2019,1988,1972,2048,2026,2016,2059
2042,2032,2018,1984,2048,2031,2031,2063
2050,2058,2054,1998,2058,2041,2033,2064
2062,2075,2078,2022,2059,2048,2042,2064
2070,2093,2097,2022,2025,2054,2042,2058
2072,2095,2097,2029,2038,2060,2037,2046
2071,2089,2102,2036,2055,2065,2031,2038
2058,2070,2084,2035,2048,2058,2048,2022
2049,2045,2066,2017,1998,2034,2051,2023
2042,2039,2058,2009,1983,2025,2061,2026
2041,2044,2063,2015,2009,2029,2069,2023
2028,2049,2071,2035,2016,2038,2066,2026
2035,2055,2075,2042,2030,2042,2076,2027
2041,2056,2079,2050,2071,2046,2049,2036
2039,2054,2081,2046,2080,2043,2052,2039
2052,2058,2077,2034,2065,2034,2067,2042
2061,2060,2079,2039,2058,2031,2074,2046
2062,2063,2074,2034,2048,2032,2047,2047
2053,2060,2066,2041,2048,2026,2035,2042
2054,2057,2061,2037,2040,2042,2042,2036
2046,2056,2059,2032,2039,2062,2048,2038
2047,2056,2068,2048,2050,2092,2071,2047
2054,2067,2076,2056,2066,2089,2061,2049
2043,2058,2072,2060,2061,2021,2045,2046
2047,2059,2067,2070,2070,1944,2032,2063
2053,2059,2066,2069,2081,1960,2052,2076
2056,2050,2061,2070,2089,2007,2062,2076
2055,2050,2056,2069,2088,2036,2061,2068
2060,2048,2058,2068,2078,2047,2046,2076
2053,2046,2059,2063,2069,2071,2047,2073
2045,2035,2047,2062,2066,2092,2024,2070
2034,2027,2044,2060,2057,2112,2042,2066
2026,2031,2052,2058,2040,2108,2052,2064
2033,2038,2053,2055,2028,2118,2030,2052
2024,2032,2048,2045,2027,2130,2024,2047
2023,2032,2033,2036,2026,2133,2025,2042
2019,2026,2028,2027,2012,2054,2029,2042
2031,2023,2031,2033,2013,1999,2039,2045
2039,2018,2021,2034,2017,2016,2028,2035
2040,2024,2034,2049,2030,2059,2044,2038
2038,2030,2054,2060,2034,2062,2060,2031
2041,2034,2058,2067,2043,2060,2043,2028
2037,2041,2059,2075,2057,2052,2045,2027
2039,2043,2063,2089,2071,2054,2020,2024
2039,2056,2066,2094,2082,2054,2042,2014
2028,2049,2075,2105,2088,2052,2028,2016
2036,2058,2082,2102,2085,2053,2020,2027
2046,2058,2084,2095,2072,2030,2027,2030
2042,2049,2072,2079,2058,2009,2028,2018
2045,2043,2057,2069,2037,2013,2026,2022
2053,2044,2049,2050,1999,2015,2013,2029
2048,2048,2050,2038,2006,2021,2040,2023
2052,2049,2044,2032,2040,2013,2033,2027
2052,2049,2042,2027,2057,2015,2024,2030
2038,2044,2037,2027,2060,2029,2042,2031
2035,2044,2030,2031,2087,2037,2036,2033
2036,2046,2030,2032,2079,2044,2039,2037
2032,2052,2038,2034,2062,2047,2049,2044
2040,2051,2047,2042,2056,2053,2039,2057
2040,2044,2039,2038,2053,2052,2063,2055
2042,2044,2034,2034,2036,2055,2061,2064
2044,2047,2045,2040,2022,2047,2064,2071
2052,2065,2061,2045,2019,2044,2047,2074
2050,2076,2072,2049,2024,2032,2033,2072
2047,2062,2059,2043,2016,2016,2027,2072
2047,2062,2054,2043,2025,2018,2050,2075
2061,2067,2049,2049,2026,2024,2034,2076
2060,2072,2057,2052,2026,2029,2038,2071
2058,2071,2056,2048,2029,2028,2026,2070
2048,2062,2052,2044,2024,2025,2036,2064
2051,2059,2052,2043,2027,2023,2043,2054
2046,2060,2057,2041,2038,2022,2040,2040
2040,2053,2058,2037,2058,2030,2051,2045
2045,2060,2072,2047,2071,2040,2057,2034
2050,2069,2077,2052,2071,2050,2046,2032
2056,2072,2077,2046,2064,2054,2054,2037
2056,2078,2077,2048,2068,2054,2029,2036
2048,2075,2072,2044,2060,2045,2040,2036
2051,2069,2068,2041,2038,2036,2029,2026
2057,2078,2080,2038,2036,2041,2030,2020
2049,2066,2065,2032,2015,2038,2024,2021
2047,2056,2067,2026,2023,2050,2056,2031
2054,2063,2074,2040,2039,2069,2059,2034
2055,2065,2066,2042,2059,2072,2063,2036
2054,2063,2066,2049,2064,2074,2062,2028
2049,2062,2061,2051,2062,2067,2069,2028
2042,2052,2057,2051,2054,2063,2075,2034
2038,2055,2056,2063,2061,2067,2082,2035
2041,2060,2064,2069,2088,2074,2088,2041
2050,2055,2060,2068,2096,2072,2080,2042
2043,2051,2043,2071,2095,2076,2091,2050
2045,2047,2038,2071,2088,2070,2089,2057
2044,2031,2030,2063,2064,2049,2043,2053
2029,2018,2025,2054,2051,2044,2066,2062
2036,2020,2024,2057,2054,2042,2069,2073
2041,2018,2022,2060,2062,2037,2059,2076
2046,2030,2020,2071,2066,2018,2045,2060
2041,2023,2034,2089,2052,1996,2033,2052
2033,2020,2035,2105,2058,2004,2045,2053
2040,2022,2037,2106,2071,2019,2042,2061
2041,2022,2027,2116,2073,2032,2045,2058
2042,2023,2007,2113,2071,2042,2058,2050
2046,2018,1992,2108,2068,2047,2052,2045
2037,2019,1971,2093,2063,2043,2022,2041
2032,2016,1944,2079,2054,2047,2042,2033
2037,2015,1924,2061,2047,2044,2036,2030
2035,2010,1914,2041,2045,2040,2014,2023
2032,2023,1922,2036,2043,2030,2024,2018
2032,2042,1945,2016,2042,2022,2025,2017
2039,2044,1958,1992,2027,2029,2002,2013
2027,2025,1947,1959,2008,2021,2011,2006
2021,2011,1957,1936,2002,2018,2001,2016
2027,2026,2030,1958,2015,2018,1998,2015
2028,2059,2102,1976,2031,2029,2036,2023
2040,2081,2145,2003,2047,2045,2032,2035
2060,2113,2196,2037,2071,2058,2042,2045
2063,2120,2203,2058,2074,2064,2054,2047
2070,2107,2199,2068,2081,2067,2047,2044
2060,2093,2176,2069,2077,2059,2040,2046
2058,2083,2155,2070,2076,2061,2045,2046
2060,2082,2138,2074,2074,2064,2046,2048
2063,2083,2129,2069,2066,2053,2059,2051
2060,2084,2120,2062,2057,2050,2056,2048
2052,2074,2107,2056,2047,2047,2058,2055
2050,2065,2090,2047,2039,2038,2048,2054
2044,2057,2086,2049,2032,2043,2050,2067
2044,2050,2078,2057,2044,2042,2056,2060
2043,2054,2074,2063,2044,2045,2041,2063
2047,2056,2067,2049,2037,2045,2037,2071
2049,2043,2054,2019,2016,2034,2034,2068
2037,2037,2045,2004,2015,2032,2036,2074
2050,2053,2060,2024,2028,2033,2031,2071
2059,2058,2062,2030,2026,2031,2050,2068
2047,2049,2053,2042,2033,2036,2037,2060
2047,2042,2054,2040,2033,2041,2020,2046
2046,2047,2059,2050,2035,2040,2042,2046
2043,2056,2072,2051,2042,2046,2043,2038
2048,2052,2072,2055,2043,2045,2055,2037
2047,2048,2058,2054,2042,2044,2050,2026
2046,2048,2055,2056,2048,2042,2057,2031
2041,2047,2055,2058,2049,2045,2049,2027
2035,2048,2058,2063,2065,2048,2040,2025
2039,2042,2060,2066,2068,2055,2053,2018
2048,2044,2062,2069,2070,2056,2054,2033
2054,2054,2064,2065,2071,2055,2049,2025
2047,2043,2060,2063,2050,2047,2032,2024
2040,2042,2049,2059,2052,2048,2038,2026
2041,2046,2049,2065,2056,2054,2040,2024
2040,2050,2058,2070,2062,2057,2060,2019
2046,2051,2054,2076,2067,2055,2059,2024
2050,2050,2050,2089,2068,2056,2057,2025
2053,2038,2056,2099,2065,2055,2055,2029
2046,2029,2064,2106,2063,2054,2060,2037
2052,2033,2060,2107,2064,2049,2057,2036
2057,2043,2059,2111,2068,2050,2062,2039
2046,2044,2057,2101,2070,2057,2044,2040
2036,2046,2055,2090,2068,2058,2031,2047
2034,2043,2046,2084,2064,2055,2047,2050
2035,2047,2034,2061,2063,2053,2040,2061
2043,2050,2023,2036,2055,2052,2018,2070
2043,2048,2020,2021,2051,2051,2016,2075
2046,2038,2031,2020,2042,2046,2040,2064
2037,2026,2020,2009,2038,2039,2033,2064
2038,2027,2014,2005,2040,2047,2062,2068
2052,2034,2016,2001,2043,2049,2057,2071
2054,2042,2028,1997,2046,2049,2054,2061
2051,2051,2037,1993,2040,2047,2041,2051
2047,2047,2037,1984,2033,2041,2049,2044
2048,2048,2040,1986,2037,2042,2055,2045
2053,2051,2047,2000,2045,2045,2061,2040
2050,2062,2052,2009,2043,2043,2040,2042
2046,2058,2050,2018,2040,2035,2066,2035
2045,2050,2046,2017,2036,2031,2036,2035
2042,2045,2048,2012,2044,2032,2028,2031
2046,2044,2044,2018,2046,2032,2049,2030
2044,2039,2040,2020,2044,2036,2054,2024
2041,2038,2046,2024,2053,2038,2078,2024
2049,2050,2054,2036,2049,2041,2068,2022
2045,2043,2049,2046,2052,2035,2060,2019
2042,2044,2052,2050,2053,2038,2034,2022
2045,2051,2056,2055,2062,2046,2065,2025
2049,2049,2050,2050,2062,2052,2068,2033
2049,2046,2037,2051,2059,2050,2077,2031
2050,2042,2035,2053,2064,2052,2065,2037
2051,2046,2039,2054,2066,2052,2060,2038
2057,2054,2048,2059,2061,2061,2078,2054
2058,2059,2055,2064,2064,2059,2081,2059
2052,2052,2055,2060,2059,2061,2087,2060
2057,2050,2050,2062,2059,2053,2068,2056
2046,2046,2044,2050,2050,2059,2056,2052
2044,2038,2044,2045,2048,2079,2052,2054
2032,2040,2054,2052,2044,2081,2060,2056
2040,2043,2067,2067,2044,2086,2057,2068
2040,2042,2089,2073,2048,2081,2050,2070
2046,2060,2108,2088,2055,2078,2060,2066
2044,2062,2106,2089,2055,2074,2052,2066
2040,2055,2108,2103,2059,2082,2079,2066
2050,2068,2108,2108,2062,2084,2057,2072
2054,2062,2099,2109,2061,2067,2080,2069
2046,2061,2095,2101,2057,2049,2073,2060
2046,2057,2088,2096,2060,2040,2065,2058
2054,2057,2081,2096,2059,2026,2051,2050
2054,2058,2078,2099,2058,2016,2045,2045
2055,2060,2074,2092,2060,2011,2056,2041
2052,2051,2062,2081,2048,2014,2073,2033
2055,2050,2051,2068,2038,2027,2074,2029
2042,2045,2045,2060,2047,2045,2036,2026
2040,2051,2051,2053,2045,2050,2033,2028
2049,2054,2050,2038,2041,2055,2042,2026
2050,2048,2041,2022,2036,2055,2029,2027
2039,2046,2033,1995,2036,2050,2037,2018
2043,2042,2029,1982,2024,2040,2033,2011
2042,2035,2021,1977,2016,2034,2013,2012
2038,2036,2027,1996,2036,2040,2027,2028
2040,2040,2032,2024,2046,2040,2040,2031
2047,2042,2032,2027,2046,2037,2039,2030
2042,2037,2029,2033,2047,2044,2040,2037
2040,2036,2024,2033,2053,2051,2042,2038
2045,2033,2025,2037,2048,2047,2038,2044
2046,2033,2025,2044,2050,2049,2019,2058
2057,2035,2040,2057,2059,2050,2053,2066
2062,2036,2039,2061,2056,2046,2042,2061
2060,2037,2041,2065,2060,2047,2061,2068
2053,2039,2043,2067,2062,2056,2043,2062
2046,2034,2046,2076,2072,2059,2034,2060
2042,2033,2049,2078,2063,2049,2045,2068
2039,2030,2050,2079,2069,2044,2054,2067
2031,2027,2042,2075,2074,2036,2036,2063
2016,2019,2033,2072,2073,2032,2030,2055
2024,2032,2032,2071,2063,2025,2031,2061
2035,2040,2034,2069,2063,2037,2046,2060
2037,2035,2032,2069,2051,2034,2051,2058
2035,2036,2023,2058,2041,2028,2046,2053
2037,2027,2015,2035,2032,2027,2050,2049
2035,2015,2005,2023,2037,2032,2043,2043
2025,2014,2013,2023,2043,2030,2040,2042
2032,2013,2018,2019,2031,2030,2050,2035
2039,2020,2035,2021,2030,2030,2045,2036
2037,2035,2041,2033,2035,2038,2052,2035
2044,2043,2053,2040,2045,2043,2042,2042
2043,2041,2058,2044,2052,2053,2065,2033
2047,2039,2054,2049,2045,2047,2044,2029
2046,2028,2037,2034,2035,2044,2048,2025
2036,2028,2044,2032,2034,2032,2044,2023
2036,2044,2064,2038,2032,2026,2044,2016
2040,2049,2076,2052,2039,2023,2042,2015
2047,2056,2074,2053,2041,2036,2058,2029
2050,2063,2077,2059,2043,2049,2060,2031
2053,2058,2069,2046,2045,2046,2049,2025
2044,2057,2062,2045,2051,2050,2061,2031
2049,2059,2060,2050,2054,2055,2056,2036
2047,2054,2055,2051,2053,2063,2056,2045
2050,2057,2053,2050,2058,2068,2058,2044
2051,2055,2052,2050,2057,2071,2049,2045
2044,2052,2038,2053,2071,2091,2057,2054
2045,2048,2035,2047,2068,2126,2052,2046
2045,2046,2032,2048,2076,2153,2064,2051
2043,2043,2028,2049,2077,2143,2067,2051
2038,2036,2021,2052,2070,2071,2068,2056
2036,2032,2022,2046,2069,1996,2070,2058
2039,2033,2019,2049,2075,2014,2052,2066
2042,2036,2019,2045,2072,2039,2053,2059
2033,2025,2006,2044,2070,2057,2053,2061
2030,2017,2000,2038,2067,2061,2054,2065
2039,2028,1997,2047,2063,2060,2064,2067
2043,2028,1991,2052,2068,2060,2058,2071
2044,2016,1981,2056,2069,2061,2060,2068
2037,2013,1970,2049,2064,2061,2052,2053
2037,2011,1965,2046,2054,2060,2037,2041
2035,2017,1975,2049,2042,2057,2051,2041
2046,2033,1998,2059,2044,2036,2058,2040
2048,2035,2008,2057,2046,2003,2060,2030
2044,2027,2014,2060,2033,1992,2036,2032
2043,2034,2020,2060,2032,2001,2044,2026
2039,2038,2028,2057,2035,2020,2043,2027
2045,2041,2024,2058,2035,2025,2048,2018
2044,2035,2017,2049,2039,2029,2038,2022
2041,2037,2033,2051,2034,2023,2057,2012
2038,2034,2051,2051,2027,2013,2027,2009
2026,2019,2060,2041,2017,2011,2024,2008
2024,2020,2061,2031,2021,2012,2039,2018
2038,2033,2076,2032,2023,2011,2019,2020
2040,2050,2115,2045,2034,2022,2027,2024
2050,2074,2144,2064,2051,2036,2059,2044
2064,2087,2151,2067,2061,2045,2052,2045
2063,2083,2138,2071,2066,2047,2065,2042
2063,2078,2128,2068,2062,2053,2055,2043
2058,2071,2100,2067,2066,2051,2047,2036
2047,2072,2085,2056,2068,2056,2045,2039
2042,2064,2076,2061,2065,2062,2062,2050
2039,2065,2068,2055,2076,2068,2076,2059
2040,2066,2063,2049,2073,2064,2076,2068
2043,2067,2069,2040,2063,2053,2057,2068
2041,2069,2076,2039,2058,2037,2058,2071
2049,2069,2074,2035,2056,2037,2056,2067
2045,2067,2063,2030,2059,2034,2055,2070
2049,2059,2062,2028,2057,2034,2049,2074
2053,2062,2065,2044,2067,2040,2037,2071
2043,2055,2056,2044,2068,2035,2035,2065
2054,2059,2054,2046,2065,2036,2060,2065
2054,2059,2059,2051,2065,2040,2040,2060
2053,2057,2064,2051,2059,2043,2060,2055
2052,2049,2061,2052,2051,2028,2056,2051
2044,2049,2061,2045,2051,2022,2053,2050
2049,2058,2060,2054,2050,2025,2050,2040
2046,2058,2061,2046,2054,2037,2047,2036
2048,2056,2058,2050,2058,2059,2042,2034
2045,2055,2052,2045,2051,2062,2031,2042
2049,2055,2046,2048,2043,2071,2044,2044
2049,2052,2047,2045,2060,2087,2055,2038
2045,2048,2041,2046,2048,2107,2052,2034
2042,2049,2043,2046,2042,2123,2045,2021
2034,2034,2030,2044,2044,2125,2039,2021
2033,2034,2032,2044,2037,2110,2049,2022
2042,2040,2038,2048,2045,2096,2033,2022
2040,2044,2035,2053,2050,2063,2034,2022
2041,2042,2039,2068,2056,2048,2030,2031
2044,2056,2071,2096,2071,2043,2051,2029
2050,2060,2094,2121,2072,2028,2075,2040
2047,2057,2094,2133,2075,2018,2073,2034
2046,2044,2080,2129,2061,2018,2047,2032
2036,2034,2060,2129,2053,2025,2028,2041
2034,2027,2043,2121,2044,2037,2037,2047
2037,2032,2043,2130,2050,2041,2055,2050
2031,2044,2050,2136,2052,2043,2055,2053
2035,2045,2050,2119,2057,2050,2052,2061
2041,2052,2051,2117,2062,2057,2047,2066
2044,2058,2052,2114,2064,2056,2051,2068
2044,2056,2046,2092,2056,2052,2019,2062
2034,2042,2031,2067,2046,2045,2036,2059
2027,2037,2009,2016,2036,2039,2041,2059
2032,2039,1996,1983,2028,2031,2038,2057
2039,2036,2002,1961,2026,2030,2042,2055
2038,2046,2012,1952,2027,2033,2046,2053
2045,2050,2015,1946,2031,2039,2038,2057
2046,2058,2020,1956,2033,2045,2048,2058
2054,2060,2030,1971,2033,2051,2050,2058
2055,2060,2030,1990,2043,2049,2052,2054
2060,2059,2041,2007,2040,2055,2076,2053
2060,2054,2041,2012,2044,2056,2050,2043
2060,2056,2045,2016,2043,2051,2056,2039
2058,2054,2045,2020,2038,2051,2054,2043
2058,2056,2041,2017,2034,2047,2060,2037
2055,2056,2041,2008,2034,2043,2063,2038
2060,2050,2036,2009,2036,2039,2055,2027
2052,2038,2035,2025,2035,2039,2057,2022
2045,2039,2041,2032,2038,2035,2055,2028
2049,2049,2057,2036,2040,2042,2051,2025
2049,2052,2058,2029,2041,2050,2056,2027
2055,2058,2064,2028,2038,2043,2047,2035
2049,2059,2068,2036,2047,2043,2061,2041
2058,2061,2068,2047,2050,2044,2062,2047
2066,2069,2064,2051,2066,2043,2065,2049
2065,2066,2071,2049,2065,2039,2061,2051
2059,2061,2059,2050,2062,2038,2062,2049
2059,2049,2055,2043,2066,2035,2069,2054
2053,2048,2042,2045,2060,2033,2069,2056
2051,2039,2045,2048,2064,2029,2066,2067
2049,2045,2045,2048,2067,2032,2059,2060
2035,2038,2050,2048,2064,2028,2055,2066
2041,2043,2055,2051,2070,2034,2064,2073
2050,2044,2050,2045,2062,2031,2051,2065
2044,2040,2045,2040,2058,2040,2047,2070
2048,2049,2049,2047,2057,2044,2048,2076
2053,2047,2049,2045,2052,2047,2058,2062
2058,2052,2059,2045,2049,2052,2070,2060
2059,2057,2057,2044,2037,2055,2065,2058
2063,2052,2049,2038,2035,2056,2064,2059
2054,2049,2048,2034,2028,2053,2061,2044
2049,2041,2045,2027,2026,2040,2035,2043
2048,2040,2040,2022,2024,2043,2033,2037
2042,2036,2038,2017,2027,2051,2016,2021
2038,2034,2041,2022,2033,2055,2024,2019
2034,2027,2031,2022,2041,2054,2048,2021
2035,2029,2036,2026,2046,2053,2050,2026
2033,2032,2037,2027,2044,2054,2036,2020
2037,2029,2037,2035,2048,2050,2033,2028
2042,2034,2035,2028,2054,2043,2024,2023
2036,2034,2037,2032,2048,2041,2044,2011
2035,2036,2039,2029,2043,2045,2044,2022
2042,2047,2044,2036,2047,2050,2049,2026
2045,2045,2045,2042,2048,2043,2040,2036
2046,2041,2044,2038,2052,2048,2039,2035
2050,2046,2045,2036,2046,2046,2060,2041
2051,2042,2045,2035,2044,2047,2060,2045
2048,2036,2042,2033,2046,2043,2060,2043
2047,2048,2049,2032,2046,2049,2049,2046
2053,2046,2049,2038,2056,2055,2046,2057
2054,2049,2050,2036,2060,2059,2038,2062
2057,2048,2050,2046,2061,2059,2047,2068
2056,2044,2053,2041,2064,2058,2037,2068
2049,2047,2055,2043,2058,2054,2036,2069
2055,2050,2057,2043,2051,2048,2042,2072
2059,2058,2068,2043,2054,2052,2027,2072
2058,2055,2073,2039,2049,2049,2033,2072
2055,2056,2065,2042,2042,2050,2034,2077
2059,2061,2066,2044,2045,2060,2039,2076
2063,2062,2070,2042,2054,2062,2053,2073
2063,2061,2065,2037,2059,2066,2054,2076
2065,2058,2062,2042,2054,2069,2057,2066
2073,2059,2055,2042,2058,2067,2041,2059
2065,2061,2055,2046,2056,2074,2052,2054
2066,2056,2053,2041,2057,2081,2059,2052
2064,2055,2058,2042,2061,2082,2059,2049
2069,2058,2057,2040,2062,2082,2064,2049
2069,2055,2056,2040,2065,2084,2059,2056
2064,2056,2055,2040,2066,2083,2060,2044
2057,2051,2053,2038,2065,2086,2060,2041
2065,2051,2054,2047,2067,2086,2068,2036
2057,2052,2051,2049,2067,2088,2079,2032
2057,2045,2051,2039,2059,2072,2050,2024
2050,2042,2047,2034,2050,2049,2046,2021
2054,2045,2053,2044,2052,2053,2064,2033
2056,2057,2056,2045,2057,2024,2031,2034
2057,2050,2055,2043,2047,1979,2020,2038
2054,2050,2056,2046,2042,1979,2027,2041
2061,2047,2058,2045,2034,1993,2035,2043
2057,2054,2058,2040,2033,1996,2020,2041
2059,2057,2055,2042,2035,2005,2038,2050
2060,2053,2053,2041,2044,2037,2037,2058
2056,2050,2053,2039,2058,2051,2032,2058
2055,2045,2043,2043,2052,2063,2026,2061
2052,2044,2044,2042,2051,2056,2053,2067
2049,2041,2044,2038,2054,2054,2041,2061
2045,2043,2041,2035,2044,2065,2056,2064
2047,2038,2032,2028,2043,2065,2055,2066
2041,2035,2035,2028,2040,2050,2027,2072
2037,2034,2029,2020,2033,2032,2025,2067
2032,2029,2027,2024,2034,2027,2042,2077
2041,2041,2033,2031,2034,2015,2026,2078
2043,2043,2033,2026,2027,2008,2035,2066
2040,2048,2030,2027,2026,2000,2049,2053
2042,2045,2031,2025,2025,2020,2051,2044
2037,2045,2038,2026,2030,2024,2066,2044
2037,2049,2040,2022,2028,2043,2070,2044
2046,2055,2047,2026,2036,2054,2077,2047
2048,2055,2049,2037,2043,2061,2077,2046
2047,2056,2051,2038,2047,2061,2084,2045
2059,2060,2056,2040,2052,2064,2077,2046
2049,2062,2056,2034,2053,2059,2067,2050
2054,2060,2061,2038,2056,2061,2068,2047
2059,2066,2064,2042,2054,2051,2059,2043
2070,2066,2062,2049,2057,2045,2043,2044
2062,2061,2055,2044,2053,2031,2034,2042
2055,2060,2047,2042,2051,2037,2027,2041
2059,2061,2052,2044,2065,2042,2049,2042
2061,2060,2058,2043,2061,2039,2037,2046
2058,2057,2060,2040,2060,2027,2021,2050
2059,2062,2061,2045,2068,2032,2044,2050
2058,2064,2067,2052,2066,2031,2056,2059
2057,2063,2070,2050,2068,2031,2035,2067
2059,2063,2075,2054,2071,2036,2060,2067
2063,2067,2070,2055,2076,2044,2041,2078
2068,2071,2070,2056,2074,2047,2033,2073
2062,2066,2068,2044,2066,2051,2023,2086
2056,2059,2062,2039,2075,2056,2041,2088
2057,2055,2061,2040,2066,2061,2036,2093
2059,2056,2057,2034,2064,2076,2037,2096
2059,2056,2060,2044,2070,2097,2036,2098
2056,2062,2060,2043,2067,2130,2020,2087
2040,2055,2055,2041,2057,2162,2017,2081
2042,2047,2053,2033,2056,2215,2050,2080
2053,2059,2062,2038,2056,2241,2069,2079
2049,2053,2054,2035,2046,2194,2055,2062
2041,2054,2050,2032,2032,2074,2039,2060
2045,2055,2049,2027,2021,1969,2029,2041
2044,2050,2042,2024,2013,1964,2026,2038
2036,2047,2046,2029,2025,1965,2012,2040
2042,2045,2044,2030,2021,1944,2039,2033
2041,2044,2045,2023,2021,1958,2028,2031
2041,2041,2036,2023,2009,1983,2042,2039
2046,2040,2042,2023,2011,1998,2041,2028
2049,2039,2040,2018,2011,1992,2036,2026
2044,2038,2041,2018,2013,1983,2041,2026
2043,2043,2046,2022,2006,1997,2051,2017
2045,2042,2049,2030,2020,2011,2054,2019
2048,2047,2044,2025,2023,2015,2051,2030
2049,2043,2040,2033,2033,2035,2043,2031
2049,2050,2046,2040,2048,2048,2070,2040
2050,2055,2048,2042,2047,2073,2082,2052
2051,2057,2046,2035,2047,2107,2070,2055
2043,2054,2044,2036,2051,2098,2064,2057
2052,2056,2046,2031,2046,2074,2078,2060
2055,2054,2042,2038,2056,2069,2072,2069
2059,2056,2045,2039,2046,2075,2068,2075
2065,2068,2048,2042,2054,2080,2080,2075
2067,2072,2050,2043,2051,2074,2081,2075
2056,2065,2049,2041,2048,2074,2071,2072
2057,2066,2049,2039,2049,2056,2065,2081
2056,2062,2047,2038,2040,2022,2043,2082
2051,2063,2048,2038,2038,2012,2049,2085
2044,2056,2045,2037,2042,2031,2047,2086
2047,2054,2044,2040,2044,2039,2027,2090
2040,2044,2041,2039,2043,2062,2051,2099
2045,2042,2042,2038,2052,2092,2059,2098
2048,2051,2046,2047,2060,2103,2057,2089
2051,2047,2044,2048,2058,2106,2063,2088
2053,2050,2043,2049,2055,2100,2063,2080
2054,2049,2046,2048,2062,2097,2057,2077
2049,2044,2044,2039,2054,2082,2041,2064
2045,2042,2040,2037,2045,2066,2030,2058
2046,2041,2040,2041,2044,2054,2048,2063
2053,2049,2039,2034,2027,2041,2052,2051
2052,2047,2040,2036,2036,2025,2055,2058
2052,2045,2042,2036,2035,2010,2040,2060
2060,2053,2049,2040,2031,2004,2034,2051
2061,2058,2049,2039,2042,2008,2066,2044
2057,2052,2052,2043,2040,2024,2069,2037
2050,2049,2055,2037,2036,2041,2046,2033
2054,2047,2057,2034,2028,2042,2041,2034
2049,2045,2057,2042,2045,2050,2052,2040
2058,2055,2063,2048,2052,2064,2048,2042
2056,2057,2057,2047,2058,2063,2066,2042
2051,2058,2054,2045,2052,2059,2042,2045
2057,2060,2056,2045,2054,2060,2070,2045
2059,2060,2059,2045,2057,2052,2064,2052
2058,2062,2058,2048,2051,2049,2049,2057
2056,2054,2060,2045,2048,2040,2042,2057
2055,2057,2057,2041,2045,2035,2042,2056
2058,2056,2055,2042,2046,2053,2037,2064
2054,2048,2055,2040,2049,2064,2049,2075
2052,2053,2056,2045,2047,2062,2077,2071
2052,2048,2057,2043,2048,2051,2052,2079
2050,2052,2049,2042,2050,2043,2069,2083
2055,2050,2054,2047,2051,2050,2074,2082
2051,2047,2051,2050,2050,2054,2083,2078
2039,2045,2042,2047,2044,2038,2055,2075
2042,2045,2043,2048,2045,2046,2038,2066
2041,2046,2040,2048,2035,2065,2050,2067
2038,2038,2036,2040,2033,2070,2054,2068
2036,2039,2036,2035,2036,2059,2028,2071
2045,2036,2037,2033,2038,2047,2042,2062
2042,2034,2038,2035,2032,2041,2031,2053
2046,2040,2040,2042,2036,2050,2064,2052
2049,2047,2039,2045,2043,2051,2050,2048
2048,2044,2041,2042,2038,2034,2043,2043
2053,2042,2041,2047,2044,2037,2044,2049
2050,2045,2042,2051,2048,2052,2049,2049
2059,2049,2049,2049,2050,2070,2054,2048
2061,2051,2045,2046,2049,2068,2038,2045
2069,2044,2038,2040,2041,2056,2022,2042
2056,2044,2038,2041,2038,2052,2025,2037
2050,2033,2031,2034,2026,2049,2035,2032
2042,2021,2032,2031,2031,2052,2037,2024
2032,2029,2037,2039,2033,2056,2046,2023
2041,2036,2039,2035,2035,2050,2034,2022
2039,2042,2047,2040,2040,2035,2021,2034
2045,2052,2051,2040,2042,2036,2023,2048
2049,2055,2059,2043,2045,2030,2023,2045
2048,2050,2046,2038,2038,2032,2040,2043
2040,2047,2040,2032,2045,2028,2036,2044
2052,2047,2044,2035,2055,2043,2042,2053
2049,2040,2040,2048,2056,2065,2027,2050
2044,2040,2040,2041,2060,2075,2048,2053
2040,2050,2041,2046,2070,2080,2048,2055
2043,2043,2045,2046,2057,2074,2025,2059
2034,2043,2045,2042,2055,2064,2025,2059
2040,2044,2048,2045,2048,2045,2048,2070
2051,2053,2053,2045,2058,2030,2054,2074
2049,2037,2044,2034,2047,2036,2054,2067
2042,2040,2040,2036,2051,2039,2043,2081
2056,2055,2051,2041,2047,2038,2051,2082
2055,2061,2052,2040,2046,2036,2042,2083
2059,2060,2054,2038,2042,2031,2053,2076
2058,2062,2049,2041,2046,2033,2028,2069
2054,2052,2050,2037,2029,2032,2057,2064
2047,2048,2043,2029,2019,2042,2052,2065
2050,2047,2036,2022,2013,2056,2050,2052
2045,2038,2035,2022,2018,2074,2054,2039
2045,2040,2032,2027,2032,2112,2047,2041
2045,2037,2039,2032,2042,2128,2083,2043
2052,2036,2036,2030,2039,2138,2088,2044
2053,2035,2040,2026,2026,2130,2112,2045
2052,2034,2034,2031,2015,2117,2095,2046
2054,2031,2036,2023,1998,2108,2105,2049
2057,2029,2030,2012,1998,2101,2098,2042
2042,2023,2028,2012,2021,2098,2095,2045
2047,2037,2037,2024,2070,2088,2088,2041
2053,2039,2038,2031,2101,2058,2052,2030
2045,2037,2045,2048,2118,2020,2042,2025
2047,2038,2047,2058,2120,1997,2036,2028
2049,2044,2053,2057,2106,1966,2000,2024
2046,2038,2044,2049,2083,1935,2008,2031
2042,2030,2042,2043,2073,1967,2017,2037
2036,2025,2029,2038,2066,2012,2016,2038
2039,2024,2025,2035,2068,2058,2032,2041
2036,2025,2015,2031,2075,2071,2038,2044
2037,2029,2006,2034,2069,2068,2049,2052
2040,2025,2004,2026,2068,2081,2041,2051
2037,2024,1994,2033,2080,2083,2028,2051
2041,2019,1990,2028,2081,2074,2067,2050
2030,2015,1990,2023,2073,2073,2060,2049
2031,2009,1985,2027,2068,2056,2058,2049
2035,2002,1985,2024,2068,2052,2054,2054
2042,2002,1996,2031,2068,2041,2059,2054
2038,2009,1995,2024,2064,2028,2030,2051
2041,2013,1993,2022,2041,2007,2021,2053
2045,2018,2000,2022,2050,2008,2046,2049
2043,2018,2002,2022,2041,2013,2049,2042
2042,2028,2010,2026,2041,2017,2059,2043
2044,2029,2018,2032,2045,1997,2058,2043
2053,2044,2031,2042,2041,1984,2027,2049
2056,2050,2051,2045,2042,2006,2034,2042
2061,2055,2066,2049,2039,2030,2026,2037
2058,2059,2078,2062,2042,2053,2065,2036
2060,2064,2082,2064,2055,2073,2070,2038
2061,2055,2088,2065,2064,2098,2062,2041
2065,2055,2083,2059,2086,2112,2048,2031
2066,2040,2065,2045,2120,2139,2055,2028
2060,2037,2060,2039,2127,2167,2043,2029
2059,2041,2065,2050,2147,2182,2050,2029
2073,2050,2068,2063,2157,2125,2053,2032
2068,2061,2058,2059,2154,2005,2047,2032
2070,2058,2041,2056,2135,1965,2044,2026
2055,2046,2037,2045,2102,1933,2032,2030
2051,2042,2028,2038,2081,1948,2045,2036
2054,2046,2035,2043,2068,2003,2042,2039
2065,2054,2055,2047,2053,2080,2070,2046
2057,2061,2061,2041,1971,2086,2074,2051
2057,2060,2066,2034,1920,2025,2051,2049
2059,2064,2080,2043,1957,1922,2044,2058
2059,2068,2095,2051,1983,1911,2027,2061
2059,2073,2095,2050,1995,1954,2009,2072
2055,2073,2094,2058,2009,1974,2029,2072
2057,2064,2092,2052,1988,1974,2033,2070
2049,2053,2076,2038,1973,1982,2039,2065
2046,2050,2068,2033,1965,2007,2045,2062
2055,2053,2062,2028,1963,2014,2050,2068
2046,2049,2064,2027,1974,2038,2047,2060
2047,2050,2060,2037,2016,2095,2059,2054
2052,2063,2074,2054,2053,2136,2067,2064
2058,2057,2081,2064,2075,2138,2078,2054
2057,2060,2078,2068,2086,2132,2104,2057
2056,2059,2071,2063,2073,2120,2094,2054
2059,2056,2069,2060,2064,2107,2088,2053
2056,2051,2064,2054,2047,2098,2070,2053
2060,2043,2056,2045,2033,2077,2066,2046
2050,2043,2056,2033,2017,2071,2061,2040
2042,2042,2052,2029,2016,2072,2050,2024
2042,2042,2053,2044,2028,2081,2042,2028
2051,2045,2049,2042,2036,2069,2056,2018
2051,2043,2049,2041,2033,2052,2042,2012
2051,2036,2047,2032,2024,2039,2030,2007
2048,2040,2052,2039,2033,2052,2061,2021
2054,2044,2053,2043,2037,2057,2050,2035
2054,2048,2052,2045,2047,2068,2078,2034
2064,2045,2054,2043,2045,2068,2079,2038
2064,2053,2058,2045,2054,2070,2081,2030
2062,2058,2058,2049,2061,2073,2058,2033
2068,2055,2060,2054,2053,2058,2036,2025
2058,2059,2059,2052,2056,2080,2046,2036
2054,2063,2060,2061,2059,2112,2065,2047
2055,2061,2064,2053,2048,2095,2050,2049
2048,2055,2057,2052,2053,2080,2066,2059
2057,2049,2056,2051,2054,2086,2066,2068
2048,2050,2054,2047,2052,2068,2056,2058
2049,2049,2049,2046,2048,2044,2044,2050
2051,2042,2049,2046,2044,2038,2009,2049
2039,2034,2032,2032,2042,2023,2022,2046
2030,2031,2026,2035,2040,2024,2045,2053
2039,2045,2048,2052,2050,2035,2031,2062
2042,2049,2054,2060,2064,2041,2065,2061
2053,2049,2045,2059,2095,2051,2056,2047
2048,2043,2043,2053,2103,2061,2044,2040
2045,2035,2030,2048,2092,2049,2034,2031
2040,2021,2024,2042,2099,2048,2015,2032
2038,2022,2016,2047,2095,2037,2027,2033
2041,2023,2013,2038,2079,2027,2052,2031
2040,2036,2024,2053,2088,2035,2027,2028
2042,2045,2025,2056,2108,2042,2029,2026
2046,2047,2036,2058,2094,2042,2054,2026
2045,2052,2043,2049,2034,2016,2029,2019
2043,2050,2037,2026,2003,2010,2022,2016
2037,2038,2036,2033,2033,2031,2007,2022
2043,2038,2046,2043,2052,2050,2049,2021
2042,2041,2035,2050,2052,2045,2041,2023
2044,2046,2035,2050,2056,2050,2044,2022
2048,2041,2032,2047,2033,2052,2066,2023
2050,2045,2037,2036,2008,2058,2081,2026
2056,2047,2029,2028,1989,2050,2064,2033
2053,2046,2032,2019,1936,2026,2053,2041
2046,2053,2045,2014,1895,2034,2082,2054
2049,2066,2060,2026,1918,2046,2078,2063
2056,2071,2067,2027,1967,2088,2082,2052
2072,2068,2063,2036,2012,2112,2074,2050
2063,2062,2063,2039,2015,2116,2067,2049
2064,2052,2057,2034,2045,2133,2057,2047
2046,2047,2055,2030,2060,2139,2049,2033
2040,2045,2043,2030,2044,2126,2045,2034
2033,2039,2040,2029,2017,2079,2035,2034
2032,2032,2035,2028,2009,2023,2019,2039
2017,2020,2021,2023,2022,1984,2017,2042
2021,2023,2023,2032,2031,1976,2027,2055
2031,2037,2037,2049,2053,2001,2056,2059
2037,2040,2038,2060,2088,2011,2049,2055
2043,2038,2033,2065,2099,2031,2054,2062
2044,2035,2035,2062,2090,2042,2055,2054
2047,2046,2038,2064,2065,2042,2047,2055
2047,2051,2041,2058,2029,2039,2030,2043
2053,2056,2038,2049,2001,2031,2023,2038
2041,2045,2033,2037,1968,1994,2013,2031
2033,2045,2030,2015,1916,1968,2031,2025
2029,2041,2024,2013,1931,1952,2026,2027
2032,2044,2023,2031,2031,1965,2025,2028
2027,2038,2025,2048,2071,1992,2028,2015
2025,2034,2029,2049,2066,1983,2034,2002
2025,2032,2029,2042,2075,1992,2026,2001
2023,2033,2027,2040,2108,2012,2018,2000
2021,2017,2015,2035,2113,2017,2026,2006
2028,2022,2016,2039,2123,2034,2041,2023
2046,2032,2026,2037,2118,2051,2051,2027
2050,2032,2026,2033,2085,2067,2075,2028
2053,2041,2030,2018,2058,2063,2081,2040
2056,2046,2030,2014,2060,2064,2066,2042
2049,2035,2026,2019,2090,2080,2047,2033
2042,2035,2030,2028,2084,2093,2052,2034
2033,2031,2018,2022,2085,2105,2054,2039
2034,2018,2003,2027,2113,2081,2070,2045
2033,2023,2003,2035,2122,2053,2062,2042
2040,2030,2004,2033,2124,2057,2061,2045
2042,2032,2017,2041,2158,2071,2060,2065
2046,2034,2024,2055,2180,2096,2065,2071
2050,2046,2050,2067,2156,2160,2073,2076
2058,2056,2059,2061,2104,2160,2080,2064
2056,2044,2054,2047,2010,2094,2045,2055
2040,2031,2044,2024,1906,1969,2031,2052
2027,2037,2052,2029,1954,1967,2022,2049
2037,2044,2059,2037,2024,1984,1997,2041
2043,2050,2075,2057,2052,1949,2024,2047
2052,2061,2086,2064,2051,1963,2022,2051
2060,2068,2084,2069,2061,2031,2046,2052
2064,2073,2080,2063,2065,2086,2046,2047
2062,2075,2078,2065,2072,2156,2048,2038
2069,2076,2073,2067,2066,2182,2057,2044
2066,2069,2061,2049,2028,2131,2054,2031
2058,2055,2050,2032,1981,2042,2032,2019
2045,2044,2040,2025,1956,1993,2025,2005
2037,2039,2037,2015,1938,1984,2020,1995
2043,2045,2035,2009,1921,1993,2008,2011
2040,2052,2034,2018,1983,2049,2046,2011
2053,2057,2046,2042,2065,2102,2084,2014
2037,2042,2043,2042,2089,2118,2089,2006
2033,2042,2038,2041,2101,2126,2080,2008
2031,2049,2037,2045,2084,2114,2078,2007
2040,2048,2033,2045,2035,2087,2066,2013
2040,2041,2035,2040,2011,2083,2050,2010
2039,2038,2035,2028,1987,2079,2058,2013
2040,2037,2031,2028,1988,2079,2044,2018
2041,2041,2027,2029,1994,2068,2036,2019
2034,2047,2032,2035,2003,2053,2031,2028
2036,2050,2042,2052,2047,2006,2025,2034
2039,2051,2038,2066,2072,1998,2030,2046
2038,2044,2035,2074,2089,2033,2035,2050
2035,2047,2032,2070,2104,2078,2042,2051
2032,2045,2026,2059,2053,2079,2032,2050
2033,2035,2014,2042,1993,2069,2035,2050
2029,2025,2008,2024,1944,2060,2035,2053
2025,2014,1997,2011,1895,2041,2041,2057
2023,2012,2000,2002,1866,2039,2065,2049
2021,2015,2005,2005,1880,2054,2061,2048
2030,2029,2014,2024,1929,2056,2060,2058
2040,2040,2027,2030,1975,2042,2077,2065
2052,2043,2026,2015,1941,2034,2076,2060
2055,2052,2030,2010,1951,2020,2048,2050
2051,2047,2027,2008,2013,2010,2030,2032
2044,2029,2017,2036,2135,2016,2028,2021
2028,2019,2015,2049,2172,2012,2020,2015
2035,2008,2014,2047,2148,2009,2017,2009
2032,2010,2011,2046,2089,2013,1999,1995
2027,2019,2021,2047,2068,2029,2006,1994
2037,2042,2050,2073,2090,2047,2014,1994
2048,2049,2067,2093,2126,2063,2036,2002
2050,2042,2064,2092,2126,2068,2041,2008
2042,2036,2053,2071,2115,2072,2033,2009
2031,2032,2042,2069,2136,2078,2057,2018
2036,2043,2047,2074,2155,2097,2059,2024
2041,2051,2049,2070,2160,2106,2074,2026
2045,2059,2059,2074,2158,2105,2068,2027
2062,2072,2071,2075,2147,2101,2082,2031
2062,2067,2069,2064,2111,2084,2067,2030
2056,2059,2066,2060,2092,2068,2058,2032
2041,2051,2055,2048,2051,2047,2047,2028
2037,2041,2036,2031,1978,2026,2060,2033
2038,2033,2030,2010,1900,2011,2044,2041
2042,2034,2041,2028,1966,2021,2048,2049
2047,2051,2058,2060,2138,2055,2051,2045
2054,2062,2074,2084,2236,2068,2028,2044
2055,2059,2075,2092,2232,2087,2036,2053
2048,2055,2065,2087,2220,2087,2045,2054
2040,2048,2055,2079,2202,2095,2043,2056
2039,2042,2051,2074,2187,2095,2042,2059
2044,2051,2054,2077,2169,2098,2041,2059
2051,2048,2057,2072,2132,2074,2025,2058
2054,2044,2048,2074,2125,2070,2043,2056
2056,2043,2048,2075,2127,2052,2038,2043
2052,2041,2047,2059,2061,2028,2025,2037
2048,2041,2044,2034,1994,2021,2036,2029
2054,2045,2045,2031,2028,2022,2054,2019
2045,2044,2035,2026,1986,2002,2037,2003
2027,2031,2024,2000,1912,2000,2025,1997
2022,2019,2022,1984,1907,2017,2038,1997
2026,2018,2021,1988,1962,2049,2035,2009
2032,2023,2022,2004,1988,2080,2043,2018
2036,2024,2030,2027,2020,2099,2082,2027
2051,2030,2037,2051,2084,2118,2072,2030
2053,2037,2037,2053,2118,2092,2065,2016
2049,2032,2036,2050,2108,2047,2059,2010
2041,2033,2029,2058,2083,2027,2044,2011
2044,2023,2020,2050,2038,2025,2034,2009
2037,2008,2008,2030,2005,2023,2037,2002
2035,2005,2005,2015,1994,2020,2018,2010
2035,2002,2005,2012,1988,2019,2047,2015
2044,2013,2014,2000,1929,2015,2055,2018
2042,2022,2024,2004,1962,2018,2018,2008
2042,2031,2029,2028,1990,2028,2032,2019
2039,2027,2025,2035,1987,2015,2023,2030
2031,2025,2021,2034,2003,2001,2013,2016
2016,2031,2022,2036,2007,2011,2030,2027
2020,2042,2032,2038,2001,2018,2033,2044
2031,2043,2023,2037,2010,2034,2032,2049
2037,2041,2023,2045,2030,2040,2041,2052
2039,2037,2026,2057,2077,2050,2024,2044
2032,2028,2016,2055,2085,2062,2019,2055
2042,2040,2025,2059,2062,2065,2027,2064
2052,2038,2029,2050,2067,2062,2040,2065
2059,2039,2031,2046,2052,2056,2034,2061
2060,2035,2024,2042,2058,2051,2028,2050
2052,2033,2023,2050,2088,2056,2025,2042
2051,2036,2038,2053,2109,2064,2055,2037
2049,2040,2050,2055,2118,2067,2037,2022
2043,2044,2065,2052,2072,2062,2003,2010
2027,2034,2064,2028,1976,2041,2022,2004
2028,2036,2079,2019,1981,2044,2046,2010
2036,2057,2090,2028,1995,2044,2031,2006
2046,2074,2101,2048,2021,2036,2030,2014
2051,2073,2081,2054,2066,2042,2051,2016
2055,2059,2067,2059,2105,2059,2038,2022
2065,2059,2054,2056,2100,2058,2031,2022
2053,2040,2040,2045,2089,2065,2025,2024
2045,2035,2033,2038,2066,2081,2044,2032
2061,2052,2054,2060,2086,2061,2060,2038
2069,2059,2058,2062,2104,2057,2070,2037
2064,2051,2043,2046,2071,2029,2049,2044
2056,2039,2031,2034,2067,2024,2057,2046
2049,2047,2029,2040,2055,2000,2049,2042
2040,2046,2032,2042,2031,1990,2025,2037
2040,2040,2026,2047,2039,1985,2027,2036
2036,2042,2026,2041,2026,1985,2030,2037
2039,2040,2028,2055,2054,2007,2035,2052
2040,2040,2026,2064,2105,2026,2039,2052
2038,2038,2027,2056,2105,2041,2061,2054
2029,2031,2016,2062,2094,2061,2048,2052
2030,2027,2013,2054,2077,2081,2048,2067
2037,2019,2008,2042,2064,2088,2036,2058
2031,2012,2001,2036,2075,2109,2032,2054
2026,2011,2006,2038,2086,2118,2044,2057
2023,2004,2011,2047,2099,2102,2025,2047
2022,2012,2038,2075,2097,2075,2024,2036
2012,2014,2060,2085,2085,2026,2029,2020
2009,2013,2065,2092,2065,2008,2034,2011
2003,2012,2068,2083,2032,1993,2015,2006
2008,2019,2068,2076,2022,2000,2005,2003
2010,2022,2059,2080,2028,2026,2010,1993
2026,2026,2062,2087,2047,2070,2029,2005
2034,2038,2068,2100,2052,2108,2050,2010
2043,2042,2067,2100,2041,2133,2055,2021
2045,2043,2056,2097,2045,2151,2055,2034
2050,2043,2037,2080,2039,2109,2045,2032
2038,2035,2026,2070,2045,1971,2025,2018
2038,2034,2025,2072,2064,1940,2026,2001
2031,2037,2021,2064,2084,1989,2023,2010
2051,2047,2023,2058,2111,2043,2036,2016
2051,2044,2010,2046,2116,2070,2033,2017
2055,2035,1999,2013,2053,2035,2035,2037
2062,2038,2003,2000,2012,2006,2029,2038
2061,2051,2027,2018,2006,2006,2060,2037
2064,2059,2039,2030,2031,2017,2051,2034
2061,2055,2034,2029,2064,2036,2054,2030
2052,2040,2032,2038,2088,2066,2055,2031
2046,2026,2033,2022,2067,2066,2043,2034
2030,2017,2026,2007,2060,2058,2034,2042
2026,2014,2020,2010,2058,2055,2021,2051
2032,2028,2028,2015,2081,2081,2009,2072
2053,2049,2040,2029,2069,2133,2040,2074
2068,2066,2052,2043,2071,2162,2047,2071
2064,2068,2036,2036,2097,2146,2037,2060
2033,2054,2034,2040,2153,2059,2052,2055
2037,2049,2036,2051,2179,2017,2064,2061
2029,2036,2033,2042,2175,2062,2074,2069
2036,2025,2023,2026,2137,2083,2070,2058
2027,2028,2038,2019,2120,2081,2069,2050
2022,2039,2063,2038,2150,2092,2082,2057
2042,2056,2094,2069,2187,2086,2069,2057
2052,2058,2109,2083,2191,2067,2058,2047
2053,2050,2102,2076,2083,2081,2079,2041
2048,2054,2104,2074,2024,2100,2070,2042
2041,2066,2115,2088,2064,2111,2085,2045
2055,2074,2108,2085,2030,2097,2068,2044
2064,2066,2076,2073,2041,2109,2065,2040
2047,2039,2042,2051,1979,2094,2057,2038
2043,2018,2028,2016,1862,2011,2035,2018
2036,2008,2006,1992,1780,1943,2013,2002
2044,2034,2025,2027,1830,1955,2034,2014
2067,2073,2053,2070,1888,2003,2031,2024
2065,2082,2056,2070,1931,2034,2037,2028
2060,2092,2062,2067,1955,2051,2056,2019
2045,2081,2047,2066,1989,2061,2052,2013
2027,2065,2037,2070,2096,2079,2041,2003
2024,2048,2026,2067,2156,2094,2052,2009
2027,2035,2017,2045,2112,2064,2034,2007
2024,2025,2007,2040,2131,2060,2021,2023
2038,2033,2024,2061,2142,2062,2034,2033
2043,2046,2036,2055,2091,2054,2042,2031
2043,2054,2038,2047,2086,2050,2036,2050
2063,2054,2051,2046,2091,2051,2039,2055
2067,2059,2067,2064,2087,2038,2035,2054
2057,2060,2068,2069,2081,2039,2039,2047
2041,2047,2062,2059,2090,2051,2044,2040
2032,2033,2059,2056,2095,2065,2065,2035
2023,2030,2075,2062,2077,2082,2075,2040
2024,2046,2079,2059,2057,2088,2080,2048
2026,2044,2077,2052,2016,2093,2061,2039
2024,2045,2066,2054,2009,2093,2024,2024
2012,2036,2069,2054,2029,2093,2017,2019
2025,2034,2068,2063,2067,2100,2008,2022
2050,2034,2060,2076,2084,2078,2037,2022
2040,2030,2060,2079,2083,2039,2057,2016
2033,2033,2049,2085,2099,2019,2055,2018
2038,2028,2050,2077,2117,2014,2032,2024
2028,2033,2047,2085,2128,2038,2038,2027
2026,2028,2031,2075,2089,2032,2022,2011
2019,2018,2011,2055,2068,1993,2014,1993
2010,2007,2003,2057,2093,2000,2023,1988
2014,2006,1998,2055,2087,2023,2024,1996
2025,2007,1988,2053,2074,2032,2033,2016
2045,2026,1988,2059,2080,2027,2055,2021
2051,2029,1981,2064,2079,2034,2066,2023
2041,2023,1975,2054,2064,2028,2061,2018
2029,2019,1968,2037,2049,2014,2038,2016
2028,2021,1975,2026,2057,2009,2034,2013
2028,2018,1995,2027,2072,2021,2026,2020
2028,2026,2012,2030,2079,2035,2031,2035
2031,2033,2023,2014,2069,2033,2049,2040
2036,2039,2033,2008,2089,2037,2038,2039
2039,2062,2065,2021,2086,2033,2043,2038
2029,2064,2084,2025,2074,2026,2027,2047
2030,2072,2105,2033,2063,2036,2028,2059
2041,2085,2119,2040,2043,2057,2039,2076
2052,2081,2108,2024,2025,2064,2048,2074
2053,2061,2092,2027,2069,2058,2027,2069
2048,2052,2077,2030,2073,2052,2051,2071
2058,2054,2084,2047,2041,2041,2030,2076
2054,2061,2090,2059,2037,2029,2042,2082
2054,2050,2085,2059,2054,2032,2059,2068
2051,2034,2062,2053,2065,2020,2042,2051
2039,2026,2054,2057,2087,2037,2029,2041
2048,2040,2062,2070,2099,2060,2061,2044
2048,2059,2080,2086,2103,2058,2040,2027
2039,2057,2070,2087,2083,2040,2036,2005
2025,2057,2080,2085,2072,2043,2014,2024
2041,2047,2072,2084,2089,2070,2043,2025
2047,2039,2068,2094,2097,2077,2044,2018
2058,2041,2064,2107,2122,2085,2040,2014
2046,2037,2060,2111,2103,2084,2059,2009
2044,2046,2060,2092,2018,2061,2054,1998
2027,2040,2052,2074,2030,2023,2032,2009
2038,2035,2047,2069,2073,2002,2037,2020
2040,2046,2042,2072,2086,1994,2053,2020
2028,2040,2036,2076,2079,2007,2054,2013
2012,2048,2036,2081,2083,2020,2053,2019
2020,2050,2022,2076,2086,2035,2030,2021
2039,2044,2008,2061,2079,2051,2040,2024
2034,2032,1987,2044,2065,2059,2028,2018
2031,2025,1981,2040,2064,2061,2043,2025
2041,2017,1976,2039,2066,2071,2042,2027
2039,2009,1958,2023,2056,2060,2037,2028
2025,1986,1923,2006,2035,2040,2040,2035
2018,1985,1920,2002,2040,2050,2054,2047
2040,2006,1954,2017,2057,2060,2054,2056
2044,2016,1981,2037,2070,2070,2046,2061
2040,2025,1985,2046,2068,2068,2046,2060
2032,2031,1977,2042,2061,2055,2045,2061
2027,2030,1977,2039,2054,2040,2042,2058
2025,2033,1982,2053,2050,2049,2050,2057
2026,2038,1985,2071,2064,2056,2046,2053
2033,2043,2003,2082,2061,2057,2048,2045
2032,2052,2014,2084,2043,2054,2060,2045
2041,2073,2055,2095,2061,2069,2065,2047
2054,2088,2077,2107,2083,2079,2078,2046
2067,2106,2089,2118,2095,2090,2066,2047
2062,2102,2100,2109,2111,2089,2068,2038
2056,2095,2100,2092,2109,2080,2068,2030
2059,2098,2123,2090,2131,2070,2054,2032
2054,2109,2144,2083,2133,2043,2029,2016
2040,2095,2145,2055,2064,2021,2033,2011
2044,2081,2141,2050,2048,2031,2045,2017
2053,2078,2144,2060,2047,2030,2046,2014
2049,2071,2137,2053,2026,2020,2050,2014
2037,2055,2122,2035,2005,2020,2064,2022
2044,2066,2120,2031,2033,2045,2085,2028
2052,2068,2114,2019,2043,2048,2077,2036
2045,2056,2101,2005,2043,2044,2076,2042
2046,2058,2098,2003,2025,2044,2069,2046
2048,2063,2091,2022,2027,2054,2076,2051
2044,2053,2074,2037,2079,2062,2070,2043
2048,2045,2064,2053,2117,2077,2056,2046
2053,2046,2060,2060,2121,2083,2084,2048
2057,2037,2059,2064,2125,2084,2065,2048
2053,2047,2056,2058,2117,2078,2061,2045
2054,2036,2060,2054,2124,2078,2042,2062
2046,2044,2060,2070,2124,2072,2060,2076
2048,2040,2072,2073,2114,2057,2054,2068
2052,2047,2084,2084,2108,2049,2043,2052
2033,2043,2100,2090,2097,2043,2052,2055
2050,2039,2100,2092,2094,2051,2043,2072
2059,2045,2096,2100,2090,2050,2059,2059
2041,2040,2076,2086,2069,2048,2055,2050
2039,2048,2072,2082,2062,2058,2041,2038
2031,2045,2050,2080,2069,2066,2053,2037
2028,2036,2019,2077,2081,2058,2052,2044
2043,2031,1998,2083,2081,2061,2053,2040
2042,2029,1993,2097,2079,2059,2050,2037
2047,2031,1988,2112,2083,2054,2051,2032
2055,2028,1979,2111,2080,2060,2055,2028
2057,2034,1994,2111,2093,2052,2024,2034
2059,2036,1993,2098,2077,2046,2030,2024
2046,2024,1976,2065,2068,2035,2015,2016
2037,2024,1951,2047,2065,2045,2012,2005
2042,2027,1975,2042,2083,2056,2011,2015
2049,2031,1983,2052,2086,2063,2033,2012
2054,2047,2008,2059,2090,2072,2054,2016
2064,2079,2033,2076,2103,2072,2060,2020
2075,2083,2051,2086,2108,2075,2065,2010
2071,2082,2071,2103,2113,2072,2073,2011
2051,2070,2082,2113,2105,2069,2028,2012
2049,2068,2096,2091,2090,2044,2028,2008
2040,2058,2104,2083,2072,2016,2025,2014
2036,2047,2105,2061,2061,2015,2035,2019
2039,2051,2122,2065,2061,2023,2037,2026
2039,2054,2129,2059,2056,2024,2051,2045
2046,2053,2145,2058,2059,2032,2047,2058
2048,2069,2154,2069,2071,2048,2052,2071
2050,2076,2164,2080,2080,2052,2059,2067
2056,2083,2151,2074,2071,2055,2054,2075
2056,2080,2121,2057,2061,2048,2060,2071
2044,2060,2082,2008,2031,2037,2050,2070
2034,2050,2066,1964,2028,2035,2046,2071
2035,2066,2077,1944,2038,2045,2055,2080
2049,2078,2084,1969,2040,2057,2052,2078
2051,2075,2085,1981,2058,2068,2064,2072
2056,2083,2088,1998,2065,2065,2051,2068
2054,2075,2068,2013,2062,2056,2048,2063
2047,2059,2052,2017,2060,2034,2043,2060
2048,2057,2045,2021,2076,2039,2038,2049
2049,2058,2044,2027,2077,2041,2024,2039
2043,2056,2050,2026,2074,2057,2047,2042
2045,2051,2051,2033,2073,2060,2056,2049
2041,2041,2036,2026,2062,2060,2065,2044
2045,2035,2027,2024,2051,2047,2053,2041
2050,2027,2020,2039,2054,2035,2050,2036
2044,2036,2020,2054,2094,2028,2043,2014
2018,2029,2013,2056,2086,2022,2024,2007
2017,2025,2004,2053,2084,2033,2045,2020
2036,2026,2003,2057,2077,2049,2059,2031
2049,2029,2001,2050,2072,2048,2060,2036
2046,2034,1983,2053,2076,2052,2064,2040
2054,2031,1978,2044,2063,2069,2066,2040
2058,2032,1986,2032,2021,2065,2064,2041
2062,2050,2008,2047,2061,2083,2055,2047
2057,2054,2028,2063,2056,2086,2050,2050
2057,2065,2038,2067,2068,2089,2044,2051
2057,2063,2038,2074,2074,2052,2050,2056
2048,2060,2056,2086,2087,2060,2045,2049
2050,2066,2074,2094,2084,2070,2040,2054
2046,2069,2088,2090,2081,2071,2048,2053
2049,2072,2094,2084,2085,2083,2048,2057
2051,2067,2104,2084,2082,2095,2053,2068
2068,2072,2121,2081,2076,2064,2032,2062
2056,2070,2120,2068,2065,2005,2012,2058
2057,2072,2130,2066,2067,1996,2033,2067
2074,2095,2140,2074,2073,2017,2026,2076
2071,2096,2129,2062,2072,2039,2040,2060
2061,2078,2099,2042,2066,2036,2035,2053
2054,2062,2083,2009,2054,2032,2047,2055
2051,2051,2069,1990,2043,2059,2048,2055
2052,2047,2058,1982,2052,2073,2048,2048
2065,2052,2053,1997,2066,2082,2060,2044
2061,2060,2059,2006,2076,2090,2037,2034
2056,2068,2064,2016,2078,2079,2038,2034
2056,2056,2055,2022,2073,2058,2053,2037
2045,2048,2060,2024,2069,2039,2048,2027
2033,2057,2062,2027,2068,2014,2046,2024
2046,2062,2074,2037,2073,2008,2042,2034
2059,2066,2085,2049,2069,1984,2029,2030
2050,2057,2068,2048,2065,1978,2035,2028
2044,2049,2058,2047,2075,1991,2043,2038
2052,2061,2067,2049,2080,2002,2049,2041
2059,2066,2070,2057,2077,2014,2043,2039
2060,2071,2072,2057,2074,2043,2033,2043
2056,2064,2073,2064,2073,2043,2024,2037
2060,2070,2065,2056,2077,2041,2034,2044
2066,2064,2066,2057,2075,2041,2023,2057
2064,2062,2060,2052,2076,2052,2015,2060
2065,2057,2059,2050,2070,2074,2014,2068
2056,2052,2047,2043,2073,2090,2007,2061
2057,2055,2049,2037,2076,2049,2024,2065
2061,2064,2059,2044,2077,1926,2022,2074
2064,2077,2068,2044,2075,1882,2010,2072
2062,2068,2057,2041,2082,1947,2022,2076
2057,2063,2043,2028,2075,2003,2012,2072
2044,2045,2028,2033,2073,2068,2017,2082
2050,2049,2029,2035,2076,2129,2039,2079
2042,2057,2036,2038,2067,2114,2031,2068
2034,2048,2025,2028,2036,2067,2010,2051
2035,2038,2035,2034,2025,2050,2038,2049
2042,2053,2040,2049,2040,2068,2055,2062
2049,2063,2049,2048,2050,2062,2068,2062
2053,2067,2061,2058,2061,2053,2060,2050
2044,2062,2062,2057,2064,2051,2047,2052
2042,2057,2063,2056,2059,2043,2050,2042
2042,2056,2056,2058,2054,2045,2055,2036
2044,2052,2056,2057,2055,2050,2049,2033
2041,2042,2053,2053,2049,2044,2045,2031
2042,2046,2054,2062,2048,2040,2066,2033
2041,2051,2065,2064,2050,2039,2061,2033
2046,2049,2068,2057,2042,2044,2062,2024
2046,2043,2057,2045,2041,2062,2045,2029
2040,2043,2050,2040,2041,2082,2036,2031
2056,2052,2045,2040,2046,2088,2078,2036
2052,2051,2038,2036,2051,2083,2083,2040
2056,2053,2027,2043,2049,2066,2059,2032
2050,2045,2026,2040,2052,2022,2076,2034
2048,2055,2030,2045,2049,1986,2051,2039
2045,2046,2028,2047,2045,1993,2057,2047
2049,2044,2024,2045,2052,2023,2050,2052
2048,2051,2029,2045,2061,2042,2057,2052
2054,2053,2030,2046,2067,2046,2086,2061
2054,2051,2031,2045,2069,2041,2072,2057
2058,2049,2025,2043,2072,2045,2070,2056
2054,2048,2024,2042,2063,2077,2072,2064
2051,2046,2031,2043,2060,2086,2063,2072
2050,2048,2044,2053,2055,2074,2055,2072
2045,2041,2053,2058,2049,2069,2066,2070
2040,2039,2061,2061,2057,2094,2060,2078
2056,2052,2067,2071,2065,2106,2060,2078
2054,2047,2055,2067,2063,2124,2060,2068
2051,2050,2057,2066,2058,2152,2057,2069
2055,2053,2061,2068,2062,2157,2081,2068
2054,2052,2064,2072,2063,2148,2063,2062
2047,2037,2056,2067,2058,2054,2046,2058
2054,2051,2066,2068,2044,1962,2054,2044
2057,2056,2065,2059,2032,1936,2041,2039
2049,2053,2053,2062,2016,1943,2049,2028
2045,2054,2047,2052,1982,1960,2038,2030
2042,2055,2039,2044,1973,1974,2029,2034
2044,2058,2036,2043,1980,1997,2038,2042
2051,2059,2043,2036,2004,2036,2066,2047
2063,2069,2054,2049,2038,2075,2068,2047
2061,2061,2050,2052,2071,2077,2064,2039
2057,2054,2037,2052,2097,2075,2074,2036
2058,2052,2036,2046,2104,2066,2071,2043
2062,2059,2047,2043,2094,2054,2072,2043
2050,2064,2056,2049,2083,2053,2061,2041
2051,2062,2063,2049,2074,2047,2064,2044
2058,2061,2064,2052,2067,2046,2064,2048
2054,2057,2063,2049,2064,2052,2066,2058
2055,2060,2067,2056,2063,2054,2058,2064
2058,2058,2066,2053,2068,2052,2070,2067
2063,2053,2071,2055,2072,2047,2071,2072
2061,2056,2066,2050,2065,2050,2074,2078
2059,2048,2063,2048,2064,2057,2076,2080
2057,2048,2065,2051,2058,2044,2079,2080
2062,2054,2058,2059,2057,2053,2087,2082
2060,2049,2054,2056,2059,2062,2090,2082
2049,2039,2044,2046,2045,2054,2075,2084
2034,2034,2039,2042,2039,2050,2078,2078
2038,2043,2037,2039,2043,2053,2088,2073
2045,2036,2024,2038,2035,2046,2070,2078
2043,2033,2022,2039,2036,2038,2065,2076
2047,2031,2024,2033,2032,2039,2057,2063
2051,2037,2018,2044,2038,2027,2054,2057
2048,2041,2016,2052,2043,2017,2053,2058
2043,2036,2013,2055,2065,2035,2048,2039
2049,2041,2014,2059,2068,2041,2045,2032
2048,2034,2018,2059,2060,1993,2029,2028
2041,2032,2010,2053,2048,1961,1998,2035
2040,2030,2018,2065,2046,1977,2019,2039
2043,2037,2038,2072,2054,2002,2035,2036
2051,2042,2048,2073,2051,2017,2043,2036
2041,2040,2072,2089,2051,2020,2045,2035
2037,2035,2079,2083,2044,2010,2042,2032
2036,2032,2077,2085,2036,2007,2038,2027
2051,2049,2089,2084,2031,2014,2034,2036
2050,2052,2095,2081,2026,2023,2033,2039
2056,2067,2094,2084,2033,2021,2043,2049
2061,2066,2083,2079,2041,2036,2065,2055
2070,2071,2081,2094,2056,2054,2069,2066
2075,2080,2071,2090,2065,2058,2067,2067
2077,2076,2065,2085,2063,2064,2071,2070
2083,2076,2055,2075,2066,2057,2055,2073
2079,2072,2047,2071,2055,2054,2059,2083
2079,2075,2040,2056,2053,2055,2077,2085
2079,2080,2055,2052,2057,2048,2073,2085
2072,2088,2057,2042,2077,2050,2038,2074
2073,2080,2057,2034,2083,2047,2042,2083
2075,2072,2048,2024,2082,2042,2054,2088
2070,2059,2040,2020,2066,2027,2050,2092
2066,2061,2035,2030,2074,2030,2062,2095
2069,2072,2051,2042,2088,2032,2036,2091
2073,2069,2054,2051,2069,2029,2036,2095
2074,2078,2062,2057,2058,2035,2050,2083
2076,2072,2063,2052,2007,2038,2062,2081
2076,2066,2065,2041,1953,2019,2050,2079
2075,2069,2058,2046,2005,2020,2041,2070
2072,2059,2058,2055,2050,2039,2052,2061
2073,2060,2050,2051,2063,2048,2062,2059
2077,2067,2057,2058,2047,2056,2068,2069
2089,2085,2071,2064,2036,2050,2064,2066
2085,2082,2071,2053,2007,2037,2040,2050
2070,2065,2060,2051,1983,2030,2031,2035
2060,2054,2053,2044,1977,2034,2038,2027
2057,2052,2047,2036,1971,2042,2037,2014
2044,2042,2042,2039,1978,2051,2051,2024
2041,2045,2041,2041,1973,2057,2054,2033
2040,2052,2043,2045,1966,2059,2070,2047
2034,2050,2044,2040,1969,2047,2070,2044
2046,2057,2056,2047,1977,2041,2070,2043
2062,2065,2058,2049,1998,2043,2068,2052
2061,2058,2052,2057,2029,2046,2052,2052
2060,2062,2056,2058,2062,2045,2054,2049
2049,2056,2059,2060,2075,2048,2055,2051
2055,2064,2057,2064,2073,2053,2037,2058
2056,2065,2055,2059,2066,2051,2051,2072
2054,2067,2055,2057,2076,2043,2060,2076
2054,2066,2054,2054,2070,2061,2055,2082
2054,2056,2048,2052,2080,2072,2057,2085
2062,2052,2056,2059,2081,2081,2046,2095
2056,2055,2047,2060,2070,2074,2034,2088
2054,2054,2053,2061,2083,2062,2042,2078
2046,2041,2041,2057,2074,2058,2047,2074
2042,2049,2049,2054,2073,2050,2058,2077
2054,2053,2041,2047,2062,2032,2046,2071
2052,2050,2044,2051,2061,2006,2049,2065
2053,2053,2043,2054,2056,2000,2064,2069
2054,2057,2045,2054,2055,2017,2072,2073
2071,2059,2052,2056,2050,2035,2071,2059
2064,2064,2051,2059,2057,2060,2074,2061
2064,2064,2051,2056,2055,2086,2064,2056
2064,2057,2050,2051,2042,2092,2057,2054
2061,2057,2046,2048,2041,2087,2060,2047
2059,2053,2046,2046,2034,2100,2065,2050
2058,2050,2042,2042,2015,2098,2055,2050
2062,2047,2048,2051,2046,2081,2057,2050
2068,2051,2047,2051,2053,2031,2060,2045
2062,2052,2048,2050,2044,1975,2057,2045
2064,2048,2041,2048,2044,1969,2065,2043
2066,2056,2051,2056,2030,1978,2066,2049
2073,2075,2065,2062,2035,1983,2072,2048
2075,2071,2063,2062,2046,1990,2055,2050
2067,2070,2062,2059,2043,1989,2037,2050
2055,2058,2047,2038,2007,1976,2035,2047
2059,2062,2049,2048,2049,1980,2051,2060
2071,2068,2056,2057,2072,1996,2075,2067
2075,2075,2062,2068,2072,1993,2072,2076
2074,2072,2063,2065,2089,2011,2049,2076
2070,2068,2055,2071,2097,2028,2054,2081
2070,2065,2047,2057,2068,2054,2065,2080
2074,2063,2052,2041,2020,2096,2074,2081
2064,2066,2047,2035,2005,2122,2069,2078
2065,2066,2047,2035,2014,2113,2044,2087
2062,2066,2047,2034,2016,2104,2056,2080
2050,2050,2036,2027,2013,2092,2045,2080
2047,2047,2034,2029,2006,2091,2066,2093
2056,2059,2041,2032,2007,2112,2055,2088
2067,2062,2044,2038,1999,2140,2060,2083
2060,2065,2045,2038,2011,2156,2062,2076
2049,2061,2038,2038,2035,2118,2041,2070
2053,2062,2036,2041,2042,2009,2019,2065
2055,2061,2030,2039,2034,1961,2018,2066
2066,2064,2040,2046,2043,1997,2020,2060
2058,2056,2034,2050,2046,2009,2038,2057
2056,2058,2039,2055,2058,2028,2039,2049
2054,2058,2036,2056,2065,2036,2046,2046
2052,2051,2033,2052,2056,2027,2026,2047
2052,2047,2027,2048,2047,2020,2027,2045
2054,2048,2022,2051,2045,2025,2036,2041
2055,2052,2033,2048,2046,2026,2010,2035
2056,2051,2026,2044,2034,2028,2016,2037
2048,2041,2027,2043,2030,2033,2016,2041
2060,2048,2039,2049,2038,2046,2032,2046
2058,2049,2042,2048,2030,2047,2027,2055
2062,2051,2035,2051,2038,2051,2012,2056
2059,2047,2031,2046,2032,2039,2015,2056
2055,2046,2031,2042,2028,2026,2008,2052
2060,2048,2037,2045,2037,2031,2008,2056
2057,2052,2043,2046,2040,2040,2029,2064
2043,2044,2042,2037,2045,2051,2053,2062
2045,2046,2040,2045,2033,2066,2052,2061
2044,2047,2036,2040,2027,2074,2051,2065
2042,2044,2037,2034,2031,2063,2060,2069
2050,2039,2035,2038,2020,2050,2041,2068
2047,2044,2035,2034,2024,2052,2059,2080
2050,2052,2039,2036,2032,2060,2055,2092
2060,2052,2043,2040,2024,2054,2068,2096
2059,2052,2039,2032,2020,2054,2065,2088
2053,2043,2034,2030,2016,2057,2067,2093
2059,2058,2045,2032,2020,2060,2055,2088
2064,2053,2043,2036,2024,2059,2060,2086
2057,2059,2044,2034,2016,2048,2040,2078
2049,2053,2036,2038,2024,2029,2037,2068
2058,2053,2030,2036,2024,1998,2024,2065
2050,2044,2020,2030,2024,1988,2042,2062
2049,2047,2017,2036,2020,2005,2052,2057
2057,2046,2019,2042,2027,2018,2061,2057
2068,2054,2031,2044,2033,2019,2045,2054
2060,2053,2033,2044,2037,2025,2042,2055
2058,2055,2028,2044,2041,2025,2036,2048
2060,2056,2025,2045,2031,2031,2034,2049
2062,2054,2024,2045,2034,2061,2050,2055
2068,2056,2020,2038,2030,2049,2046,2044
2064,2047,2013,2029,2023,2020,2026,2039
2055,2039,2009,2035,2024,2001,2015,2047
2058,2055,2027,2045,2033,2015,2023,2052
2053,2062,2040,2049,2030,2026,2049,2051
2062,2059,2040,2051,2036,2046,2051,2050
2058,2055,2052,2048,2032,2059,2049,2054
2064,2056,2057,2057,2025,2075,2036,2060
2057,2052,2069,2058,2030,2082,2045,2058
2058,2056,2069,2055,2025,2091,2052,2066
2060,2053,2072,2054,2031,2110,2066,2078
2065,2051,2067,2053,2031,2122,2064,2078
2065,2053,2064,2054,2035,2135,2040,2082
2064,2053,2069,2053,2038,2134,2061,2092
2071,2054,2070,2054,2035,2066,2048,2089
2071,2061,2070,2058,2032,1982,2037,2085
2062,2057,2068,2052,2030,1990,2031,2093
2060,2052,2043,2043,2033,2018,2019,2083
2047,2042,2021,2042,2053,2013,2040,2089
2049,2047,2019,2049,2057,2019,2029,2095
2063,2059,2014,2046,2059,2026,2059,2100
2057,2048,2016,2037,2039,2010,2037,2094
2051,2047,2009,2033,2030,2013,2043,2079
2051,2045,2012,2033,2018,2025,2025,2071
2049,2045,2021,2027,2018,2053,2029,2064
2049,2047,2021,2034,2031,2072,2044,2058
2052,2043,2014,2036,2046,2084,2028,2063
2051,2037,2008,2034,2042,2067,2043,2053
2054,2034,2020,2033,2029,2036,2027,2047
2048,2042,2032,2032,2026,2024,2016,2046
2053,2042,2043,2034,2022,2018,2014,2045
2056,2050,2043,2049,2029,2034,2016,2037
2052,2045,2048,2060,2020,2040,2018,2034
2058,2054,2059,2060,2019,2039,2009,2024
2050,2051,2069,2064,2022,2046,2011,2040
2052,2049,2072,2066,2035,2062,2028,2053
2052,2043,2080,2067,2034,2063,2037,2050
2050,2041,2066,2052,2023,2039,2031,2051
2053,2042,2058,2032,2008,2033,2032,2061
2052,2044,2056,2030,2014,2040,2033,2057
2054,2050,2062,2035,2034,2033,2038,2066
2053,2054,2071,2043,2050,2022,2040,2061
2056,2055,2072,2038,2042,2023,2038,2066
2058,2047,2066,2037,2041,2028,2052,2061
2056,2042,2057,2036,2037,2037,2042,2067
2054,2042,2058,2035,2030,2040,2045,2079
2050,2038,2051,2035,2019,2036,2053,2080
2040,2041,2055,2037,2009,2028,2043,2078
2043,2033,2043,2030,2001,2016,2047,2091
2049,2043,2043,2026,2015,2004,2041,2102
2051,2036,2035,2024,2015,1989,2006,2090
2040,2033,2045,2018,2010,2006,2012,2090
2054,2058,2060,2033,2017,2039,2035,2093
2070,2067,2068,2035,2026,2061,2045,2092
2065,2073,2065,2033,2029,2083,2055,2093
2066,2064,2056,2024,2032,2087,2036,2076
2057,2052,2044,2021,2036,2082,2049,2068
2054,2048,2042,2033,2053,2087,2063,2060
2060,2053,2048,2045,2093,2100,2058,2065
2062,2051,2041,2047,2090,2108,2068,2062
2064,2050,2034,2046,2077,2121,2064,2055
2064,2043,2031,2040,2070,2124,2050,2061
2067,2042,2030,2037,2054,2101,2075,2050
2059,2041,2035,2038,2030,2077,2043,2048
2056,2039,2039,2037,2013,2064,2054,2037
2051,2034,2040,2030,2015,2072,2043,2034
2044,2038,2046,2034,2031,2078,2037,2037
2040,2026,2038,2036,2069,2074,2035,2028
2029,2022,2037,2038,2084,2054,2044,2036
2042,2031,2047,2045,2090,1991,2040,2040
2039,2029,2043,2044,2086,1971,2034,2048
2042,2029,2039,2042,2072,1992,2053,2050
2032,2032,2041,2041,2064,2016,2044,2059
2039,2045,2060,2049,2056,2031,2054,2055
2056,2057,2078,2048,2031,2045,2066,2059
2047,2057,2075,2043,1964,2054,2061,2064
2058,2056,2076,2041,1872,2054,2071,2068
2060,2054,2076,2050,1902,2065,2073,2073
2063,2058,2081,2062,1964,2083,2077,2083
2060,2055,2074,2070,2012,2069,2072,2084
2057,2052,2068,2070,2013,2006,2068,2087
2055,2052,2063,2065,1991,1991,2053,2090
2049,2044,2056,2059,1988,1996,2052,2083
2052,2045,2051,2059,1988,2001,2043,2086
2044,2032,2037,2045,1955,1990,2034,2081
2038,2028,2029,2029,1970,1990,2035,2085
2048,2046,2043,2047,2026,2022,2050,2081
2058,2058,2055,2052,2041,2053,2048,2072
2048,2056,2041,2036,1998,2075,2036,2058
2042,2046,2026,2015,1955,2078,2026,2052
2034,2038,2026,2004,1916,2063,1999,2039
2028,2039,2024,1995,1896,2047,2009,2034
2027,2038,2029,1997,1901,1997,2011,2048
2034,2053,2047,2001,1934,1954,2036,2058
2047,2060,2056,2015,1986,1970,2043,2061
2057,2076,2072,2038,2049,2023,2052,2065
2067,2086,2083,2049,2073,2038,2054,2070
2064,2077,2082,2054,2095,2056,2050,2069
2068,2066,2074,2057,2122,2062,2044,2067
2064,2071,2077,2062,2109,2052,2051,2049
2062,2065,2067,2049,2071,2037,2023,2040
2057,2059,2059,2046,2057,2030,2049,2037
2053,2054,2060,2046,2056,2040,2051,2039
2050,2052,2054,2045,2051,2043,2032,2035
2050,2052,2050,2042,2040,2057,2051,2037
2042,2044,2044,2039,2037,2062,2052,2048
2045,2045,2046,2042,2042,2074,2057,2047
2044,2048,2042,2050,2042,2098,2059,2061
2041,2040,2049,2046,2046,2129,2051,2059
2049,2045,2047,2049,2042,2135,2069,2066
2056,2039,2048,2050,2050,2131,2071,2075
2053,2039,2038,2047,2047,2107,2062,2079
2049,2040,2044,2050,2047,2085,2045,2081
2046,2039,2039,2052,2060,2056,2051,2087
2046,2037,2041,2051,2072,2051,2043,2086
2048,2044,2050,2054,2079,2033,2034,2088
2051,2050,2047,2054,2066,2003,2036,2080
2051,2047,2039,2040,2034,1980,2022,2082
2049,2046,2044,2044,2020,1981,2038,2089
2058,2055,2048,2060,2036,1986,2056,2091
2064,2057,2048,2061,2043,1987,2047,2093
2058,2062,2059,2057,2042,1997,2057,2089
2063,2062,2058,2056,2031,2021,2051,2088
2067,2064,2057,2042,1987,2054,2065,2087
2062,2064,2052,2037,1954,2058,2057,2076
2064,2055,2040,2031,1988,2055,2052,2077
2062,2045,2034,2035,2035,2068,2067,2075
2060,2053,2038,2043,2059,2066,2067,2081
2069,2051,2036,2036,2061,2048,2047,2069
2064,2048,2041,2043,2071,2040,2044,2057
2057,2045,2036,2047,2080,2023,2045,2046
2053,2042,2043,2043,2077,2002,2033,2049
2048,2046,2047,2053,2052,1995,2045,2045
2048,2054,2051,2050,2033,1994,2040,2033
2042,2044,2046,2047,2022,2004,2044,2036
2037,2041,2046,2045,2031,2040,2049,2035
2050,2049,2052,2050,2028,2087,2034,2035
2062,2051,2050,2047,2026,2170,2052,2042
2059,2046,2054,2049,2024,2199,2047,2035
2053,2045,2050,2042,2023,2171,2046,2042
2049,2044,2050,2045,2020,2077,2031,2040
2048,2044,2054,2045,2008,1982,2021,2048
2050,2053,2044,2047,2012,2000,2035,2049
2053,2054,2044,2042,2010,2040,2029,2052
2057,2049,2040,2050,2030,2042,2032,2068
2049,2052,2041,2045,2044,2038,2032,2078
2059,2057,2051,2050,2037,2051,2037,2086
2058,2059,2052,2049,2047,2063,2037,2083
2061,2060,2057,2053,2052,2076,2046,2089
2058,2056,2061,2048,2055,2075,2073,2094
2062,2051,2057,2044,2048,2061,2066,2092
2056,2043,2043,2039,2035,2055,2059,2092
2050,2033,2032,2034,2027,2044,2052,2092
2061,2042,2039,2031,2012,2047,2068,2078
2044,2034,2033,2026,2005,2049,2071,2078
2040,2026,2033,2030,2018,2040,2056,2078
2050,2043,2045,2038,2013,2041,2050,2074
2048,2049,2048,2040,2015,2053,2072,2058
2046,2051,2052,2038,2007,2044,2056,2060
2045,2045,2050,2040,2050,2047,2056,2046
2045,2050,2044,2049,2065,2036,2029,2040
2047,2050,2048,2061,2050,2029,2028,2028
2041,2047,2039,2055,2025,2060,2033,2033
2049,2047,2039,2048,2016,2058,2036,2038
2049,2049,2044,2041,2017,2042,2031,2040
2051,2048,2040,2043,2014,2036,2017,2039
2048,2044,2036,2037,2017,2042,2030,2032
2047,2047,2033,2038,2024,2042,2021,2035
2053,2045,2037,2043,2029,2048,2033,2041
2064,2055,2040,2047,2040,2050,2055,2048
2070,2056,2036,2043,2035,2039,2057,2047
2072,2045,2027,2036,2029,2020,2037,2043
2056,2035,2014,2034,2042,2019,2028,2040
2054,2038,2022,2046,2076,2037,2029,2044
2052,2050,2025,2050,2075,2041,2057,2056
2053,2049,2028,2048,2060,2051,2062,2051
2044,2041,2027,2043,2051,2061,2060,2065
2043,2040,2027,2042,2059,2083,2061,2071
2051,2041,2024,2042,2048,2103,2039,2075
2049,2043,2031,2046,2047,2142,2065,2084
2052,2046,2031,2044,2050,2169,2052,2076
2047,2044,2039,2051,2050,2180,2054,2071
2048,2047,2045,2055,2046,2095,2046,2080
2046,2046,2048,2051,2032,1985,2023,2068
2042,2030,2039,2044,2023,1985,2013,2068
2037,2029,2040,2041,2029,2017,2029,2066
2041,2036,2049,2048,2033,2014,2046,2068
2039,2038,2050,2046,2033,2002,2024,2065
2035,2045,2056,2050,2037,2003,2041,2068
2042,2044,2054,2058,2041,2003,2044,2070
2042,2047,2057,2055,2044,2005,2043,2071
2044,2047,2047,2056,2047,2006,2040,2063
2041,2042,2047,2060,2037,2020,2039,2054
2046,2043,2043,2056,2029,2023,2041,2049
2053,2043,2043,2050,2029,2026,2037,2045
2053,2038,2039,2049,2044,2033,2035,2040
2057,2032,2035,2049,2053,2037,2051,2033
2049,2027,2030,2042,2049,2035,2042,2029
2036,2022,2020,2041,2045,2027,2021,2032
2040,2023,2013,2044,2043,2019,2025,2032
2040,2026,2022,2039,2028,2012,1994,2029
2046,2025,2025,2044,2034,2012,1992,2026
2047,2025,2029,2042,2038,2028,2039,2035
2044,2028,2031,2047,2039,2035,2044,2031
2037,2026,2027,2048,2036,2027,2039,2021
2029,2031,2035,2055,2035,2045,2028,2028
2037,2034,2044,2056,2050,2049,2044,2035
2043,2036,2045,2061,2050,2036,2056,2039
2042,2037,2052,2062,2046,2029,2057,2044
2047,2039,2049,2057,2050,2024,2049,2039
2042,2035,2039,2058,2047,2022,2038,2046
2038,2039,2038,2057,2056,2018,2069,2041
2032,2032,2040,2052,2054,2025,2071,2059
2035,2034,2032,2052,2056,2026,2067,2070
2042,2041,2037,2045,2054,2039,2076,2077
2043,2041,2031,2044,2050,2054,2074,2081
2042,2043,2040,2048,2045,2053,2062,2080
2035,2036,2034,2042,2035,2038,2047,2068
2035,2026,2029,2037,2033,2025,2031,2069
2030,2024,2026,2030,2033,2022,2041,2076
2034,2028,2025,2028,2034,2034,2035,2075
2041,2040,2038,2027,2035,2043,2041,2066
2042,2043,2044,2029,2034,2044,2047,2063
2048,2053,2044,2039,2037,2067,2033,2068
2060,2056,2041,2041,2042,2083,2056,2072
2062,2053,2034,2037,2040,2077,2060,2061
2054,2048,2026,2037,2038,2056,2017,2054
2049,2045,2027,2026,2024,2039,2042,2043
2046,2036,2026,2032,2028,2038,2030,2029
2035,2039,2027,2028,2027,2043,2026,2019
2041,2024,2031,2023,2019,2045,2033,2024
2038,2033,2039,2031,2008,2057,2040,2030
2053,2042,2053,2041,2023,2072,2040,2037
2060,2043,2058,2046,2036,2091,2055,2038
2054,2037,2053,2043,2044,2094,2053,2043
2046,2039,2049,2048,2048,2082,2063,2037
2053,2047,2063,2058,2048,2031,2064,2043
2053,2046,2068,2055,2033,2006,2035,2038
2042,2046,2065,2045,2029,2000,2024,2031
2040,2043,2053,2050,2025,2012,2018,2043
2046,2039,2045,2047,2029,2021,2021,2051
2057,2036,2042,2049,2039,2030,2051,2047
2060,2041,2045,2051,2039,2032,2037,2056
2056,2039,2042,2045,2037,2041,2061,2065
2056,2041,2040,2047,2046,2047,2059,2070
2054,2036,2032,2047,2046,2053,2056,2077
2049,2032,2028,2044,2043,2058,2055,2076
2046,2032,2029,2039,2040,2049,2061,2076
2036,2028,2026,2042,2042,2050,2044,2065
2026,2026,2021,2038,2044,2057,2062,2065
2028,2020,2016,2034,2033,2053,2047,2065
2029,2010,2010,2028,2019,2060,2035,2067
2029,2011,2011,2027,2017,2075,2051,2074
2043,2028,2019,2036,2025,2088,2075,2066
2044,2034,2031,2035,2023,2091,2051,2067
2045,2035,2036,2032,2022,2072,2056,2065
2049,2035,2040,2039,2013,2049,2059,2066
2047,2035,2053,2042,2019,2039,2050,2054
2040,2041,2056,2043,2020,2039,2029,2055
2044,2034,2060,2048,2030,2036,2035,2044
2039,2032,2057,2044,2037,2030,2039,2043
2040,2031,2059,2045,2054,2044,2038,2040
2038,2027,2058,2042,2051,2046,2027,2041
2044,2024,2060,2041,2050,2044,2019,2039
2038,2019,2060,2042,2030,2028,2010,2030
2038,2023,2068,2050,2022,2031,2030,2028
2039,2031,2074,2058,2028,2059,2040,2027
2042,2028,2063,2045,2030,2089,2046,2022
2035,2022,2049,2038,2015,2122,2062,2020
2039,2031,2051,2052,2032,2148,2094,2039
2052,2037,2061,2055,2071,2147,2094,2037
2054,2036,2061,2053,2080,2133,2085,2036
2053,2040,2058,2057,2073,2115,2087,2039
2052,2037,2058,2056,2071,2102,2063,2041
2055,2042,2055,2053,2051,2084,2058,2046
2057,2041,2050,2055,2054,2068,2068,2053
2053,2034,2051,2050,2064,2061,2053,2053
2052,2035,2048,2049,2049,2056,2060,2056
2045,2028,2036,2032,1990,2021,2056,2060
2044,2024,2033,2032,2024,1980,2048,2061
2041,2024,2028,2041,2039,1969,2044,2061
2042,2029,2034,2046,2031,1995,2050,2069
2038,2030,2036,2043,2036,2047,2056,2072
2043,2035,2034,2044,2050,2067,2023,2071
2037,2034,2032,2041,2043,2062,2005,2063
2035,2038,2037,2033,2027,2042,2038,2055
2040,2048,2045,2042,2031,2050,2046,2059
2046,2042,2042,2044,2038,2052,2048,2057
2035,2041,2050,2042,2038,2045,2048,2055
2040,2042,2049,2043,2027,2028,2027,2057
2040,2040,2053,2042,2028,1987,2016,2051
2046,2040,2047,2040,2020,1967,2022,2046
2052,2042,2052,2040,2020,1963,2037,2040
2049,2046,2055,2048,2019,1989,2035,2038
2049,2047,2053,2043,2042,2021,2041,2037
2047,2043,2052,2046,2084,2033,2064,2028
2045,2044,2050,2057,2110,2034,2059,2030
2040,2041,2052,2051,2115,2031,2053,2023
2037,2038,2050,2054,2120,2032,2046,2029
2046,2037,2050,2056,2113,2031,2049,2030
2043,2031,2051,2051,2102,2021,2023,2024
2040,2028,2048,2042,2084,2009,2036,2022
2037,2030,2044,2040,2059,2016,2051,2035
2042,2038,2053,2040,2018,2020,2059,2029
2050,2036,2045,2033,1917,2004,2062,2036
2049,2041,2046,2028,1916,2007,2075,2045
2055,2037,2039,2035,1968,2018,2076,2043
2051,2035,2037,2037,2004,2020,2063,2031
2053,2031,2039,2042,2024,2018,2059,2023
2046,2037,2039,2041,2037,2019,2057,2024
2042,2028,2031,2038,2037,2032,2070,2032
2037,2012,2021,2032,2038,2065,2065,2042
2038,2012,2018,2034,2038,2100,2079,2053
2052,2020,2022,2030,2046,2097,2090,2063
2062,2034,2030,2032,2045,2086,2078,2061
2056,2031,2029,2033,2054,2101,2086,2064
2052,2036,2037,2038,2042,2107,2079,2070
2055,2030,2026,2037,2030,2058,2058,2071
