CH1,CH2,CH3,CH4,CH5,CH6,CH7,CH8
2057,2071,2088,2060,2041,2054,2045,2031
2054,2065,2074,2058,2052,2046,2061,2035
2054,2063,2059,2057,2048,2048,2054,2030
2049,2056,2050,2054,2054,2052,2054,2023
2049,2040,2038,2044,2048,2046,2050,2018
2046,2028,2018,2037,2048,2045,2065,2023
2051,2040,2018,2033,2048,2047,2037,2032
2045,2032,2006,2025,2041,2045,2024,2032
2031,2027,1998,2014,2040,2043,2048,2027
2032,2039,2008,2014,2048,2052,2051,2033
2047,2042,2004,2016,2047,2054,2061,2034
2046,2044,2002,2020,2041,2050,2057,2045
2047,2046,2009,2027,2043,2051,2057,2053
2046,2045,2006,2025,2074,2052,2057,2053
2044,2039,2005,2018,2084,2047,2048,2058
2044,2035,2010,2007,2042,2025,2050,2058
2047,2028,2016,1999,2043,2031,2071,2064
2047,2039,2036,2008,2076,2054,2058,2073
2055,2054,2058,2026,2089,2065,2069,2075
2059,2063,2072,2054,2093,2062,2028,2074
2047,2048,2054,2068,2080,2054,2047,2073
2040,2051,2054,2078,1973,2059,2023,2071
2042,2055,2068,2084,1968,2071,2024,2065
2047,2054,2075,2085,2005,2064,2046,2065
2049,2052,2081,2071,2028,2032,2017,2053
2050,2047,2081,2057,2058,2017,2007,2048
2052,2052,2075,2061,2063,2027,1996,2048
2052,2057,2068,2041,2031,2022,2002,2041
2057,2064,2076,2050,2005,2023,2024,2043
2065,2076,2090,2064,1981,2030,2029,2041
2069,2077,2090,2074,2038,2043,2064,2047
2070,2078,2084,2085,2075,2060,2055,2045
2064,2075,2079,2088,2100,2060,2050,2038
2064,2072,2085,2110,2091,2063,2050,2029
2057,2065,2111,2131,2117,2077,2051,2027
2054,2060,2122,2130,2146,2082,2054,2014
2038,2036,2095,2107,2133,2074,2046,2007
2023,2024,2073,2077,2079,2043,2030,2011
2031,2028,2068,2080,2051,2051,2044,2017
2042,2045,2071,2094,1974,2062,2049,2024
2046,2054,2059,2086,1954,2033,2051,2036
2053,2053,2050,2080,2003,2002,2043,2037
2058,2061,2035,2080,2037,2014,2057,2042
2055,2047,2020,2082,2053,2034,2068,2046
2052,2037,2012,2064,2057,2043,2073,2046
2047,2035,1998,2042,2056,2048,2076,2051
2050,2027,1997,2025,2047,2049,2071,2053
2042,2028,1994,2009,2027,2045,2067,2056
2040,2020,1998,1997,2000,2046,2078,2066
2045,2021,1986,1979,1991,2048,2058,2075
2050,2028,1982,1971,1984,2054,2072,2084
2063,2032,1995,1973,1976,2049,2056,2065
2046,2019,1987,1983,1962,2054,2052,2059
2042,2031,2000,2006,1973,2066,2045,2070
2057,2045,2036,2040,1991,2083,2060,2057
2055,2062,2043,2054,1995,2072,2049,2052
2046,2047,2040,2053,2008,2039,2065,2041
2048,2051,2047,2064,2029,2032,2061,2050
2045,2051,2058,2070,2039,2033,2026,2045
2043,2050,2050,2063,2053,2029,2041,2042
2042,2050,2058,2058,2081,2031,2032,2041
2042,2055,2073,2065,2065,2031,2031,2028
2048,2060,2084,2058,2040,2032,2050,2038
2052,2068,2089,2066,2038,2046,2041,2036
2060,2072,2096,2065,2035,2045,2035,2034
2063,2066,2077,2074,2032,2050,2035,2029
2053,2060,2063,2070,2027,2035,2041,2032
2046,2060,2044,2059,2019,2022,2040,2030
2038,2039,2021,2038,2016,2026,2037,2026
2032,2027,2009,2040,2044,2037,2047,2037
2048,2045,2017,2052,2056,2051,2059,2043
2059,2045,2014,2046,2056,2058,2065,2030
2052,2043,2016,2048,2051,2050,2058,2038
2048,2047,2017,2050,2039,2046,2053,2041
2052,2039,2017,2054,2038,2045,2072,2057
2059,2059,2037,2058,2057,2040,2067,2063
2060,2063,2050,2060,2051,2041,2053,2060
2058,2063,2052,2055,2046,2039,2050,2066
2057,2049,2044,2046,2062,2037,2055,2073
2049,2041,2037,2041,2085,2038,2047,2073
2050,2031,2038,2041,2092,2041,2040,2069
2047,2039,2058,2040,2080,2051,2050,2077
2046,2038,2065,2039,2068,2049,2058,2074
2052,2039,2069,2046,2056,2040,2052,2066
2037,2028,2056,2032,2043,2031,2038,2062
2034,2025,2048,2031,2039,2027,2048,2070
2048,2046,2049,2037,2042,2041,2037,2069
2053,2045,2035,2041,2045,2043,2036,2073
2054,2050,2023,2034,2038,2044,2046,2070
2055,2047,2012,2028,2029,2043,2057,2062
2056,2042,1987,2031,2022,2036,2056,2054
2044,2029,1972,2017,2012,2038,2052,2054
2042,2026,1971,2016,2012,2039,2060,2046
2046,2041,1984,2024,2027,2046,2061,2045
2052,2056,2019,2050,2048,2049,2067,2042
2061,2071,2054,2079,2054,2062,2067,2043
2058,2076,2080,2108,2067,2065,2067,2043
2057,2067,2101,2122,2064,2063,2060,2038
2062,2065,2105,2127,2075,2063,2052,2047
2055,2062,2119,2123,2086,2055,2049,2035
2047,2045,2105,2112,2084,2049,2044,2033
2043,2042,2111,2106,2078,2056,2039,2038
2050,2050,2101,2104,2074,2061,2028,2038
2050,2047,2086,2084,2065,2052,2043,2041
2051,2053,2064,2070,2052,2049,2061,2044
2046,2054,2059,2073,2051,2044,2053,2045
2049,2052,2052,2064,2041,2052,2053,2053
2053,2057,2054,2052,2048,2046,2052,2065
2053,2051,2027,2028,2039,2051,2066,2062
2052,2043,1991,1989,2032,2043,2060,2062
2040,2031,1988,1966,2028,2043,2050,2058
2046,2034,1995,1962,2024,2045,2054,2072
2041,2035,2009,1960,2024,2039,2062,2072
2048,2040,2020,1965,2030,2040,2036,2077
2051,2054,2044,1981,2036,2040,2036,2076
2045,2057,2054,1993,2028,2034,2028,2068
2037,2037,2055,1991,2019,2030,2025,2063
2030,2041,2064,2004,2016,2037,2037,2073
2049,2070,2098,2033,2032,2051,2036,2077
2057,2075,2114,2037,2042,2052,2020,2072
2051,2066,2101,2037,2046,2052,2011,2065
2050,2061,2087,2035,2040,2050,2042,2065
2047,2062,2082,2035,2044,2044,2040,2050
2047,2053,2074,2036,2043,2041,2042,2040
2046,2050,2072,2036,2040,2042,2039,2040
2047,2046,2064,2040,2041,2035,2047,2052
2049,2050,2062,2044,2045,2032,2039,2052
2054,2046,2058,2038,2047,2033,2051,2048
2048,2046,2052,2041,2046,2036,2049,2039
2048,2043,2062,2048,2047,2043,2052,2048
2049,2053,2075,2055,2055,2047,2043,2040
2054,2051,2074,2056,2054,2045,2051,2040
2041,2029,2050,2047,2049,2044,2038,2036
2037,2027,2037,2042,2048,2058,2044,2046
2054,2043,2046,2053,2053,2067,2045,2053
2050,2044,2036,2046,2051,2073,2049,2048
2054,2044,2025,2046,2054,2079,2036,2053
2053,2046,2035,2047,2054,2092,2055,2044
2055,2052,2043,2054,2058,2107,2058,2047
2047,2049,2035,2047,2062,2109,2050,2049
2041,2039,2037,2041,2054,2099,2065,2048
2042,2033,2041,2046,2050,2089,2052,2050
2034,2037,2031,2028,2038,2031,2036,2049
2037,2034,2011,2019,2027,2001,2036,2044
2034,2025,2012,2016,2017,2000,2015,2055
2033,2030,2024,2024,2023,2022,2016,2060
2035,2038,2033,2019,2028,2031,2019,2061
2044,2047,2036,2030,2029,2036,2016,2054
2040,2049,2044,2036,2029,2030,2002,2055
2037,2054,2069,2053,2035,2038,2032,2063
2051,2064,2081,2065,2052,2044,2038,2062
2051,2059,2070,2050,2043,2035,2034,2063
2051,2054,2060,2037,2047,2032,2051,2056
2049,2060,2055,2028,2045,2034,2051,2056
2050,2055,2051,2016,2045,2036,2054,2051
2052,2056,2047,2008,2042,2039,2061,2049
2053,2049,2046,2004,2045,2043,2061,2047
2051,2045,2043,2013,2043,2046,2072,2050
2044,2046,2043,2026,2044,2042,2071,2042
2047,2042,2040,2024,2034,2031,2059,2043
2055,2050,2040,2030,2031,2022,2050,2041
2057,2059,2040,2036,2029,2024,2058,2041
2060,2060,2044,2044,2041,2034,2061,2047
2067,2060,2046,2050,2044,2045,2058,2038
2051,2046,2045,2052,2037,2048,2030,2036
2051,2046,2048,2054,2046,2054,2041,2035
2053,2054,2062,2062,2059,2062,2046,2042
2053,2054,2062,2069,2065,2056,2055,2036
2057,2048,2065,2092,2061,2058,2053,2042
2058,2053,2068,2090,2076,2059,2032,2043
2060,2056,2063,2088,2079,2054,2052,2047
2054,2051,2058,2074,2073,2053,2057,2051
2053,2051,2061,2068,2064,2056,2067,2061
2055,2049,2063,2066,2063,2055,2061,2065
2054,2057,2064,2069,2059,2057,2063,2064
2050,2050,2060,2054,2054,2050,2061,2069
2047,2042,2043,2030,2053,2049,2054,2069
2045,2033,2026,2023,2050,2050,2056,2069
2053,2037,2021,2023,2062,2057,2055,2071
2050,2035,2018,2018,2049,2054,2053,2075
2047,2022,1992,1994,2026,2035,2037,2065
2032,2010,1981,1987,2018,2031,2032,2067
2036,2029,2008,2011,2020,2046,2063,2076
2056,2058,2048,2034,2034,2049,2063,2073
2053,2079,2066,2055,2040,2059,2080,2075
2058,2079,2074,2069,2039,2051,2075,2069
2060,2067,2060,2074,2038,2048,2031,2053
2055,2052,2060,2074,2046,2051,2021,2052
2053,2053,2054,2068,2042,2041,2045,2043
2053,2062,2055,2076,2046,2042,2058,2040
2056,2062,2042,2069,2047,2040,2053,2042
2058,2055,2035,2069,2058,2037,2048,2032
2050,2055,2034,2064,2051,2038,2046,2030
2050,2058,2034,2067,2060,2045,2050,2037
2052,2056,2034,2077,2071,2049,2058,2026
2041,2053,2031,2074,2078,2059,2061,2032
2046,2042,2022,2059,2066,2043,2056,2024
2034,2032,2003,2034,2043,2036,2049,2024
2032,2041,2016,2034,2050,2045,2049,2030
2043,2046,2035,2032,2045,2043,2051,2033
2043,2058,2043,2033,2049,2042,2051,2041
2045,2069,2060,2027,2046,2051,2064,2040
2057,2074,2060,2026,2049,2047,2057,2044
2054,2073,2048,2027,2030,2042,2046,2045
2057,2072,2041,2024,2024,2037,2056,2052
2063,2071,2046,2034,2021,2034,2054,2059
2060,2064,2051,2039,2025,2035,2036,2061
2052,2060,2041,2036,2025,2034,2025,2056
2048,2055,2032,2039,2040,2049,2033,2064
2048,2056,2044,2055,2066,2062,2043,2075
2053,2066,2054,2059,2065,2069,2040,2071
2056,2065,2052,2053,2042,2079,2026,2068
2044,2058,2043,2036,2020,2061,2022,2060
2038,2042,2045,2033,1998,2054,2025,2057
2034,2049,2051,2047,2003,2044,2040,2070
2045,2052,2051,2050,2014,2028,2041,2068
2048,2061,2060,2058,2044,2024,2045,2067
2057,2066,2066,2066,2078,2036,2048,2068
2055,2066,2064,2069,2076,2050,2045,2060
2062,2064,2057,2067,2074,2057,2056,2050
2058,2065,2061,2063,2058,2056,2048,2049
2054,2064,2051,2064,2054,2049,2050,2035
2049,2056,2048,2057,2048,2042,2039,2032
2043,2050,2041,2056,2041,2053,2042,2032
2051,2043,2038,2059,2051,2054,2043,2035
2049,2042,2022,2054,2053,2050,2056,2038
2048,2039,2012,2054,2051,2057,2057,2035
2046,2049,2016,2054,2055,2062,2060,2037
2058,2053,2013,2048,2045,2047,2041,2028
2043,2033,2006,2040,2038,2042,2026,2027
2043,2036,1999,2045,2050,2051,2050,2034
2056,2048,2002,2050,2052,2052,2055,2045
2051,2044,2009,2046,2047,2043,2048,2040
2046,2041,2015,2047,2043,2043,2037,2040
2046,2046,2025,2052,2052,2045,2049,2044
2049,2047,2032,2054,2051,2048,2039,2051
2043,2039,2037,2052,2044,2045,2036,2043
2045,2040,2037,2046,2040,2047,2044,2053
2051,2047,2056,2052,2045,2046,2034,2060
2049,2066,2081,2053,2044,2044,2035,2061
2051,2064,2089,2050,2043,2047,2036,2062
2046,2060,2088,2041,2039,2040,2040,2064
2049,2052,2078,2039,2031,2048,2039,2065
2045,2048,2068,2036,2044,2048,2035,2068
2051,2049,2060,2034,2041,2042,2020,2063
2037,2045,2050,2035,2041,2040,2021,2058
2034,2045,2048,2042,2058,2055,2036,2070
2050,2049,2058,2046,2056,2057,2046,2066
2047,2049,2047,2041,2047,2057,2022,2059
2050,2049,2052,2046,2042,2060,2034,2053
2054,2057,2060,2041,2040,2054,2044,2053
2062,2066,2058,2043,2032,2051,2020,2055
2057,2066,2060,2046,2024,2050,2042,2052
2059,2068,2056,2045,2036,2055,2048,2041
2053,2059,2056,2044,2051,2058,2034,2039
2058,2060,2049,2043,2051,2061,2056,2046
2061,2060,2048,2042,2040,2063,2058,2050
2060,2064,2062,2047,2033,2060,2069,2039
2059,2071,2065,2044,2031,2054,2066,2044
2065,2068,2075,2045,2033,2054,2045,2047
2062,2068,2066,2042,2034,2028,2035,2029
2049,2043,2048,2036,2030,2019,2033,2022
2040,2044,2042,2036,2031,2030,2033,2033
2057,2056,2052,2043,2038,2027,2052,2037
2059,2057,2055,2049,2042,2034,2051,2045
2056,2054,2051,2052,2042,2035,2050,2049
2055,2051,2046,2048,2041,2025,2041,2047
2053,2049,2052,2037,2048,2025,2045,2050
2057,2049,2053,2047,2067,2038,2057,2056
2054,2053,2048,2056,2069,2046,2043,2059
2053,2049,2050,2056,2056,2050,2039,2062
2055,2055,2052,2052,2052,2047,2030,2069
2049,2052,2046,2046,2045,2047,2044,2074
2048,2048,2043,2042,2041,2051,2064,2074
2052,2050,2044,2036,2042,2063,2066,2078
2047,2049,2050,2041,2048,2073,2066,2077
2051,2056,2057,2048,2047,2064,2052,2063
2033,2047,2056,2041,2042,2058,2038,2060
2038,2044,2057,2043,2046,2055,2024,2058
2048,2057,2057,2046,2041,2055,2038,2054
2048,2054,2054,2042,2047,2043,2037,2056
2043,2055,2052,2041,2039,2024,2038,2049
2052,2063,2053,2040,2034,2017,2041,2056
2051,2064,2047,2039,2036,2026,2034,2048
2055,2064,2042,2042,2040,2044,2062,2047
2052,2052,2037,2040,2046,2056,2064,2038
2052,2056,2042,2047,2048,2059,2065,2036
2049,2060,2042,2047,2048,2058,2053,2031
2049,2054,2034,2045,2040,2057,2060,2024
2046,2051,2036,2042,2036,2048,2042,2019
2047,2049,2039,2034,2028,2043,2047,2020
2047,2046,2036,2034,2032,2044,2053,2020
2052,2043,2037,2040,2034,2048,2052,2022
2042,2032,2026,2031,2036,2044,2070,2027
2040,2033,2024,2035,2036,2040,2080,2033
2050,2049,2036,2047,2045,2039,2072,2033
2057,2058,2033,2044,2047,2040,2058,2038
2053,2059,2036,2045,2050,2040,2064,2037
2055,2053,2039,2047,2057,2050,2071,2042
2053,2054,2036,2054,2059,2053,2070,2044
2052,2060,2043,2057,2064,2056,2069,2044
2058,2060,2043,2060,2065,2053,2068,2046
2052,2064,2039,2053,2064,2052,2076,2053
2048,2064,2046,2051,2056,2057,2077,2063
2054,2066,2049,2056,2055,2050,2055,2063
2060,2063,2054,2051,2052,2048,2042,2073
2055,2056,2049,2050,2047,2040,2058,2076
2051,2057,2050,2049,2048,2040,2045,2075
2051,2053,2038,2047,2044,2041,2046,2068
2040,2041,2035,2041,2040,2036,2028,2072
2046,2039,2036,2042,2033,2041,2029,2084
2049,2057,2044,2054,2044,2043,2018,2074
2054,2063,2042,2053,2035,2048,2035,2068
2051,2062,2044,2048,2041,2043,2032,2069
2058,2058,2050,2052,2034,2040,2045,2065
2053,2054,2047,2040,2022,2032,2029,2054
2055,2050,2046,2047,2025,2032,2033,2051
2053,2054,2041,2046,2041,2042,2043,2050
2048,2049,2042,2052,2049,2040,2053,2045
2046,2054,2039,2057,2046,2042,2047,2044
2053,2050,2040,2054,2046,2048,2059,2044
2052,2053,2042,2053,2041,2046,2047,2039
2053,2051,2044,2050,2034,2047,2047,2037
2054,2058,2042,2054,2039,2044,2049,2036
2049,2054,2041,2056,2042,2039,2056,2032
2040,2043,2030,2045,2038,2034,2040,2034
2043,2041,2028,2041,2050,2038,2049,2044
2054,2055,2046,2056,2066,2048,2046,2045
2051,2056,2045,2053,2062,2052,2042,2047
2053,2057,2039,2061,2061,2054,2041,2048
2053,2054,2046,2060,2067,2065,2046,2047
2056,2055,2041,2062,2054,2058,2049,2049
2052,2054,2050,2063,2049,2049,2051,2055
2058,2054,2050,2061,2043,2045,2037,2063
2059,2055,2050,2056,2037,2047,2041,2062
2054,2056,2046,2052,2034,2048,2029,2061
2049,2055,2040,2046,2037,2047,2039,2072
2043,2050,2042,2046,2032,2049,2051,2072
2040,2041,2044,2048,2031,2055,2046,2063
2033,2042,2039,2047,2028,2050,2044,2069
2037,2040,2041,2049,2019,2046,2052,2065
2030,2030,2028,2034,2019,2044,2044,2075
2023,2027,2030,2029,2022,2044,2042,2073
2045,2046,2040,2044,2038,2050,2047,2074
2044,2047,2036,2041,2039,2058,2039,2070
2043,2041,2029,2041,2046,2058,2032,2065
2046,2037,2029,2041,2077,2051,2022,2053
2041,2042,2033,2046,2114,2045,2023,2047
2050,2046,2034,2049,2130,2044,2049,2050
2052,2051,2036,2048,2124,2050,2061,2044
2050,2053,2043,2057,2113,2061,2056,2043
2056,2055,2046,2065,2140,2064,2056,2045
2047,2056,2039,2068,2130,2071,2043,2042
2050,2053,2047,2072,2112,2082,2050,2043
2057,2056,2052,2073,2093,2087,2060,2043
2060,2052,2052,2071,2030,2098,2060,2038
2051,2051,2047,2060,1909,2087,2041,2033
2045,2030,2026,2038,1929,2076,2042,2024
2040,2017,2021,2044,1976,2045,2043,2026
2039,2028,2026,2040,1963,1999,2024,2029
2042,2031,2037,2040,1980,1994,2030,2036
2043,2046,2040,2046,1989,2013,2046,2046
2049,2052,2037,2052,2014,2021,2048,2039
2053,2054,2036,2054,2032,2020,2043,2046
2055,2051,2025,2053,2023,2022,2042,2052
2049,2050,2017,2040,2009,2017,2029,2056
2052,2045,2011,2030,1987,2009,2046,2051
2045,2037,2012,2010,1986,2010,2030,2053
2041,2031,2010,2025,2014,2040,2026,2057
2046,2041,2036,2049,2051,2052,2046,2060
2044,2047,2055,2059,2077,2063,2049,2073
2039,2058,2067,2063,2089,2076,2058,2078
2041,2062,2076,2057,2071,2072,2058,2073
2035,2054,2065,2036,2032,2046,2046,2072
2035,2056,2069,2042,2024,2048,2026,2076
2050,2066,2081,2050,2045,2077,2044,2077
2059,2068,2076,2049,2054,2093,2037,2073
2056,2072,2073,2041,2051,2091,2054,2074
2053,2069,2072,2039,2043,2086,2052,2069
2051,2070,2068,2038,2044,2091,2050,2064
2054,2069,2067,2033,2046,2088,2042,2057
2061,2066,2067,2034,2058,2083,2044,2045
2067,2073,2064,2037,2067,2079,2032,2050
2057,2074,2061,2047,2063,2068,2054,2048
2058,2066,2064,2043,2067,2054,2049,2041
2059,2062,2060,2043,2063,2051,2070,2047
2057,2069,2056,2044,2055,2048,2073,2040
2051,2062,2056,2039,2056,2027,2052,2032
2045,2061,2052,2039,2052,2015,2052,2028
2048,2043,2044,2038,2047,2008,2034,2029
2038,2043,2037,2035,2055,2017,2061,2035
2054,2051,2048,2042,2054,2041,2063,2042
2051,2054,2049,2042,2044,2057,2058,2046
2058,2061,2062,2044,2033,2069,2078,2043
2058,2062,2061,2045,2032,2082,2030,2044
2050,2061,2053,2047,2038,2105,2057,2046
2046,2058,2052,2037,2021,2103,2041,2041
2043,2053,2050,2027,2023,2099,2025,2040
2047,2047,2042,2021,2025,2087,2066,2054
2044,2051,2044,2034,2024,2046,2068,2070
2050,2058,2054,2047,2053,2009,2057,2089
2062,2061,2060,2061,2079,2011,2079,2091
2057,2059,2054,2053,2077,2008,2046,2086
2049,2061,2058,2048,2076,1997,2053,2082
2046,2056,2052,2050,2071,2008,2044,2084
2043,2049,2045,2040,2053,2017,2057,2081
2046,2045,2047,2041,2044,2034,2069,2088
2046,2057,2055,2049,2052,2047,2083,2082
2050,2056,2049,2045,2042,2040,2067,2076
2051,2052,2047,2034,2031,2023,2054,2070
2049,2051,2047,2032,2028,2014,2054,2066
2046,2052,2049,2032,2014,2003,2042,2072
2052,2056,2046,2030,2010,1993,2053,2069
2054,2054,2046,2030,2002,1994,2059,2060
2053,2052,2038,2026,1991,2001,2036,2049
2052,2049,2033,2015,1996,2020,2015,2034
2042,2042,2032,2015,2020,2048,2044,2038
2042,2045,2034,2041,2051,2072,2063,2043
2043,2045,2039,2037,2052,2070,2070,2039
2041,2045,2035,2031,2034,2069,2039,2039
2041,2039,2034,2031,2057,2078,2039,2032
2039,2027,2022,2027,2062,2072,2027,2016
2031,2025,2016,2023,2040,2064,2029,2025
2042,2044,2030,2034,2042,2052,2039,2031
2042,2044,2041,2048,2064,2049,2038,2038
2053,2054,2049,2060,2083,2066,2054,2049
2051,2055,2055,2069,2075,2085,2040,2051
2054,2056,2052,2056,2074,2100,2033,2047
2050,2052,2042,2049,2061,2078,2035,2046
2048,2046,2040,2040,2042,2001,2031,2052
2044,2046,2037,2037,2030,1985,2027,2049
2044,2043,2032,2034,2034,2014,2043,2059
2035,2035,2020,2032,2044,2042,2053,2061
2036,2029,2020,2036,2068,2060,2055,2066
2045,2035,2022,2038,2077,2082,2062,2075
2048,2031,2021,2033,2080,2084,2058,2078
2051,2033,2020,2037,2068,2086,2049,2074
2040,2024,2010,2029,2057,2077,2045,2070
2046,2027,2010,2031,2056,2089,2030,2070
2045,2033,2022,2035,2046,2092,2036,2061
2040,2032,2023,2031,2023,2091,2049,2055
2038,2034,2022,2025,2013,2085,2042,2054
2042,2032,2025,2026,2035,2081,2034,2041
2043,2039,2035,2035,2042,2068,2026,2039
2043,2043,2031,2033,2039,2043,2012,2043
2048,2046,2036,2037,2038,2031,1993,2037
2045,2047,2039,2043,2045,2024,2011,2036
2041,2041,2037,2045,2041,2024,2040,2032
2041,2042,2040,2043,2043,2024,2019,2033
2046,2049,2050,2053,2051,2031,2035,2038
2055,2053,2056,2052,2042,2038,2033,2036
2064,2051,2058,2055,2047,2043,2039,2049
2067,2056,2067,2051,2049,2049,2032,2037
2054,2036,2047,2039,2033,2030,2014,2028
2042,2033,2047,2035,2025,2030,2021,2032
2055,2053,2059,2048,2041,2038,2014,2038
2055,2060,2061,2050,2036,2037,2034,2044
2058,2056,2055,2045,2042,2036,2039,2043
2052,2053,2060,2047,2039,2037,2056,2048
2058,2062,2054,2042,2016,2022,2040,2048
2057,2056,2050,2039,1991,2004,2025,2053
2061,2055,2047,2036,1995,1999,2020,2049
2055,2052,2048,2034,2002,1994,2029,2051
2052,2051,2045,2042,2017,2008,2028,2050
2055,2047,2057,2061,2058,2031,2060,2061
2056,2050,2062,2072,2089,2061,2056,2064
2052,2045,2054,2070,2096,2089,2063,2069
2044,2035,2053,2071,2088,2100,2070,2067
2043,2038,2057,2081,2071,2112,2068,2071
2035,2025,2059,2082,2108,2124,2046,2052
2031,2012,2041,2080,2134,2143,2034,2052
2038,2034,2042,2085,2113,2166,2033,2057
2044,2040,2040,2075,2073,2135,2028,2052
2038,2043,2040,2073,2037,2072,2043,2051
2041,2049,2041,2067,2017,2005,2042,2047
2045,2052,2042,2067,2034,2023,2051,2042
2053,2053,2040,2063,2034,2044,2052,2036
2048,2051,2028,2037,1984,2046,2046,2036
2041,2043,2019,2020,1983,2056,2044,2036
2047,2048,2033,2032,2019,2058,2033,2035
2048,2041,2033,2033,2027,2047,2049,2033
2052,2048,2035,2027,2021,2034,2045,2032
2047,2044,2028,2018,2017,2038,2046,2039
2053,2044,2032,2021,2033,2042,2036,2039
2056,2044,2034,2019,2080,2045,2037,2039
2050,2033,2031,2015,2098,2042,2027,2035
2050,2039,2039,2019,2098,2048,2025,2038
2055,2054,2057,2040,2103,2060,2042,2047
2064,2063,2065,2047,2086,2059,2046,2052
2061,2061,2058,2051,2060,2066,2036,2052
2067,2061,2049,2049,2047,2078,2024,2058
2071,2068,2046,2042,2024,2085,2049,2061
2072,2075,2043,2037,1990,2096,2041,2066
2072,2076,2044,2024,1880,2078,2029,2057
2061,2059,2039,2012,1826,2054,2045,2054
2057,2059,2046,2026,1889,2040,2052,2060
2054,2048,2050,2042,1950,1997,2052,2063
2047,2047,2048,2054,2008,2008,2063,2070
2046,2044,2046,2061,2050,2031,2057,2068
2042,2041,2042,2062,2105,2030,2041,2068
2043,2033,2022,2060,2126,2022,2044,2072
2034,2027,2010,2059,2155,2023,2033,2066
2041,2031,2009,2076,2160,2046,2041,2075
2064,2051,2022,2090,2162,2062,2045,2079
2062,2058,2026,2081,2146,2064,2062,2078
2058,2049,2026,2069,2122,2059,2065,2069
2062,2048,2019,2049,2064,2070,2077,2060
2053,2039,2010,2029,1962,2083,2054,2045
2054,2036,2003,1990,1857,2070,2061,2036
2058,2032,1999,1971,1827,2052,2067,2038
2050,2023,2002,1961,1851,2023,2030,2042
2049,2014,2007,1977,1892,1980,2040,2039
2042,2031,2019,2011,2010,1986,2037,2039
2045,2026,2017,2024,2092,2023,2042,2024
2022,2016,2016,2036,2122,2044,2048,2010
2021,2011,2032,2053,2122,2062,2050,2010
2028,2026,2062,2065,2072,2057,2046,2020
2032,2040,2076,2044,2022,2037,2041,2011
2023,2032,2076,2047,2016,2029,2032,2009
2036,2046,2096,2060,2055,2051,2064,2023
2046,2055,2099,2071,2072,2066,2070,2024
2046,2052,2092,2080,2056,2073,2068,2029
2040,2039,2083,2078,2053,2066,2070,2034
2028,2028,2064,2059,2055,2059,2068,2030
2021,2025,2044,2040,2060,2052,2069,2032
2030,2025,2039,2027,2070,2058,2073,2038
2041,2041,2053,2025,2071,2066,2080,2052
2057,2065,2071,2032,2072,2073,2044,2065
2063,2076,2072,2027,2106,2088,2065,2074
2071,2087,2079,2035,2112,2088,2083,2091
2072,2079,2087,2041,2109,2083,2088,2086
2067,2066,2079,2037,2097,2073,2063,2081
2058,2053,2061,2027,2106,2070,2052,2074
2044,2042,2040,2024,2101,2083,2052,2061
2030,2035,2021,2020,2121,2099,2055,2071
2035,2043,2013,2035,2162,2118,2059,2086
2052,2053,2010,2041,2157,2128,2064,2073
2051,2046,2012,2049,2115,2101,2068,2066
2058,2056,2020,2069,2096,2048,2064,2076
2061,2061,2027,2082,2121,2033,2057,2073
2064,2061,2048,2086,2093,2023,2035,2058
2062,2072,2057,2070,2108,2038,2032,2051
2064,2081,2070,2065,2166,2052,2048,2047
2063,2077,2059,2045,2081,2022,2049,2035
2043,2066,2052,1983,1839,1973,2034,2031
2041,2065,2045,1959,1800,1968,2031,2030
2046,2060,2043,1982,1978,2009,2041,2028
2040,2062,2037,2012,2112,2036,2037,2024
2052,2054,2038,2032,2158,2036,2055,2027
2049,2065,2045,2020,2086,2021,2038,2024
2047,2052,2038,2013,2056,2024,2044,2023
2041,2045,2038,2023,2060,2039,2034,2036
2052,2055,2057,2023,2011,2064,2034,2040
2049,2053,2059,2025,1942,2080,2039,2039
2047,2055,2067,2015,1844,2087,2053,2043
2058,2061,2062,2023,1866,2093,2053,2046
2058,2062,2062,2022,1928,2083,2046,2040
2049,2056,2064,2037,2000,2030,2041,2055
2060,2061,2070,2062,2057,2006,2060,2072
2062,2072,2079,2062,2078,2020,2062,2081
2060,2075,2079,2066,2069,2042,2056,2075
2059,2069,2068,2051,2046,2053,2030,2062
2050,2060,2060,2038,2062,2056,2044,2061
2046,2060,2058,2044,2098,2075,2061,2066
2056,2055,2052,2054,2111,2081,2076,2065
2057,2055,2047,2048,2106,2069,2052,2064
2042,2042,2034,2048,2108,2055,2029,2065
2030,2042,2034,2037,2080,2026,2033,2063
2040,2052,2032,2026,2063,2012,2030,2064
2044,2052,2031,2028,2070,2029,2037,2062
2043,2056,2036,2033,2093,2046,2044,2062
2046,2050,2036,2039,2077,2052,2024,2055
2048,2050,2022,2038,2034,2058,2026,2047
2043,2043,2018,2040,2050,2070,2027,2034
2036,2042,2017,2050,2102,2065,2049,2029
2035,2043,2027,2050,2099,2067,2053,2029
2042,2053,2045,2060,2099,2073,2057,2030
2040,2056,2038,2064,2100,2071,2049,2021
2030,2041,2036,2044,2062,2044,2030,2016
2019,2043,2027,2021,2013,2022,2039,2014
2024,2029,2023,2002,1984,2006,2035,2013
2031,2037,2032,2013,2017,2024,2043,2013
2035,2031,2034,2022,2016,2024,2030,2008
2027,2033,2051,2023,2020,2032,2042,2018
2051,2049,2070,2044,2046,2036,2047,2029
2057,2054,2070,2044,2030,2025,2059,2039
2060,2053,2056,2033,2010,2010,2066,2044
2054,2041,2036,2017,1981,1999,2024,2034
2043,2034,2024,2011,1958,2010,2030,2036
2053,2048,2050,2040,1996,2039,2060,2047
2056,2057,2066,2068,2050,2051,2061,2063
2065,2069,2075,2099,2083,2071,2082,2068
2066,2071,2072,2105,2086,2065,2081,2077
2061,2068,2053,2100,2072,2053,2059,2069
2061,2056,2037,2098,2050,2036,2051,2071
2060,2061,2034,2099,2057,2038,2058,2076
2064,2059,2034,2098,2097,2056,2073,2075
2061,2071,2032,2105,2130,2070,2048,2060
2040,2047,2014,2099,2155,2067,2040,2055
2028,2035,2005,2097,2156,2076,2044,2060
2033,2037,2001,2076,2111,2070,2045,2058
2034,2041,2006,2045,2039,2064,2046,2055
2036,2040,2013,2017,1975,2056,2043,2043
2032,2036,2023,1989,1942,2050,2038,2033
2035,2037,2034,1985,2045,2047,2056,2022
2041,2047,2048,1976,2084,2038,2061,2021
2052,2050,2057,1973,2090,2051,2048,2023
2057,2053,2060,1964,2061,2056,2050,2030
2056,2051,2059,1974,2068,2072,2050,2021
2040,2041,2054,1971,2039,2066,2039,2014
2039,2039,2067,1980,2078,2077,2043,2020
2041,2048,2070,1998,2080,2077,2051,2026
2048,2055,2066,2014,2018,2049,2039,2023
2037,2053,2057,2024,2012,2013,2050,2016
2025,2049,2046,2045,2041,2014,2043,2020
2028,2046,2051,2054,2059,2047,2048,2031
2045,2061,2050,2052,2049,2066,2062,2033
2048,2057,2034,2010,1905,2031,2045,2023
2039,2044,2007,1950,1722,2011,2036,2013
2029,2032,1996,1975,1828,2021,2046,2022
2029,2034,2005,2026,1949,2043,2023,2030
2048,2044,2031,2054,2028,2060,2070,2038
2058,2059,2051,2076,2148,2081,2072,2048
2065,2058,2059,2091,2209,2098,2082,2060
2061,2055,2062,2083,2172,2095,2072,2064
2056,2054,2068,2067,2140,2091,2069,2072
2056,2058,2066,2065,2138,2078,2051,2066
2047,2054,2068,2070,2116,2073,2039,2043
2035,2056,2058,2078,2115,2076,2056,2053
2052,2054,2063,2081,2101,2078,2045,2055
2049,2039,2043,2080,2045,2052,2035,2052
2041,2038,2038,2078,1943,2038,2029,2065
2045,2053,2040,2095,1987,2048,2033,2062
2041,2053,2021,2097,2066,2059,2046,2048
2042,2041,2016,2096,2117,2076,2040,2046
2044,2037,2020,2090,2120,2080,2027,2041
2041,2038,2035,2093,2199,2090,2032,2039
2042,2038,2032,2073,2202,2083,2025,2030
2051,2035,2026,2027,2157,2083,2020,2026
2053,2050,2024,2001,2162,2088,2032,2014
2036,2042,2036,2000,2163,2104,2042,2004
2039,2053,2060,2011,2126,2109,2050,2042
2061,2056,2067,2026,2135,2088,2084,2070
2063,2056,2064,2038,2219,2096,2080,2071
2053,2048,2054,2031,2249,2111,2077,2063
2052,2050,2060,2038,2170,2093,2089,2052
2050,2053,2079,2030,2095,2059,2048,2036
2054,2057,2092,2011,1939,2037,2031,2036
2066,2079,2114,2036,1949,2064,2060,2033
2062,2084,2114,2060,2035,2114,2077,2027
2068,2071,2092,2038,1990,2117,2056,2015
2053,2056,2060,1995,1900,2065,2028,2023
2046,2047,2041,1965,1783,1992,2033,2032
2037,2043,2039,1950,1601,1956,2023,2039
2035,2041,2054,1995,1724,1990,2028,2034
2032,2043,2062,2065,2025,2049,2026,2039
2034,2039,2060,2090,2231,2088,2044,2044
2040,2029,2044,2065,2266,2068,2016,2035
2026,2023,2039,2036,2172,2021,2019,2015
2018,2035,2048,2047,2102,2009,2033,2028
2034,2046,2050,2066,2093,2011,2027,2044
2049,2050,2057,2074,2113,2002,2046,2061
2046,2043,2054,2078,2145,1990,2060,2056
2041,2038,2048,2072,2162,2007,2054,2045
2036,2057,2049,2056,2141,2021,2044,2042
2033,2045,2042,2056,2138,2023,2047,2054
2041,2054,2046,2064,2128,2029,2051,2061
2050,2057,2049,2066,2107,2029,2078,2053
2055,2056,2047,2053,2079,2029,2047,2049
2051,2055,2047,2044,2086,2049,2064,2040
2051,2053,2044,2044,2050,2036,2057,2033
2044,2046,2044,2039,1994,2009,2059,2020
2049,2036,2041,2037,1953,2022,2058,2016
2046,2034,2037,2030,1984,2038,2050,2020
2051,2035,2044,2033,1999,2060,2045,2019
2057,2036,2051,2042,2010,2075,2047,2009
2053,2035,2052,2045,2017,2075,2037,2018
2048,2022,2035,2044,2026,2074,2044,2010
2047,2008,2016,2031,2018,2067,2033,2004
2039,2006,2019,2031,2021,2066,2030,2001
2040,2011,2031,2036,2031,2042,2044,2003
2049,2033,2049,2068,2048,2005,2042,2014
2048,2039,2056,2086,2065,2006,2042,2025
2041,2054,2064,2088,2057,2021,2037,2022
2045,2056,2071,2098,2066,2045,2040,2020
2035,2053,2080,2104,2069,2044,2022,2015
2034,2043,2069,2096,2048,2031,2044,2026
2038,2041,2059,2094,2026,2033,2033,2027
2036,2036,2042,2082,2014,2029,2020,2035
2040,2036,2046,2088,1999,2012,2032,2037
2032,2033,2044,2074,1979,2004,2016,2041
2042,2038,2041,2089,2017,2034,2021,2050
2044,2043,2038,2102,2058,2054,2035,2056
2056,2048,2023,2093,2061,2064,2029,2061
2049,2037,1997,2075,2052,2065,2015,2049
2030,2017,1991,2065,2033,2050,2006,2042
2024,2024,2003,2058,2029,2048,2031,2044
2037,2031,2011,2048,2036,2050,2047,2042
2043,2038,2021,2050,2053,2056,2049,2038
2049,2040,2040,2057,2098,2062,2051,2034
2043,2053,2066,2080,2124,2064,2054,2033
2046,2053,2076,2077,2111,2043,2047,2027
2049,2046,2066,2048,2068,2036,2043,2029
2050,2046,2054,2035,2047,2035,2038,2025
2044,2046,2064,2032,2043,2028,2045,2028
2056,2062,2082,2046,2057,2048,2046,2031
2064,2070,2083,2042,2068,2064,2049,2032
2060,2069,2085,2044,2076,2081,2059,2034
2055,2079,2088,2050,2066,2096,2050,2028
2067,2069,2073,2040,2058,2115,2043,2028
2068,2054,2040,2019,2037,2110,2013,2023
2060,2033,1996,2003,2031,2108,2004,2018
2043,2027,1981,2010,2038,2068,2006,2019
2042,2053,1996,2026,2031,1978,2043,2019
2056,2061,2007,2034,2036,1986,2051,2027
2061,2058,2004,2036,2039,2034,2050,2030
2064,2052,2002,2046,2043,2057,2066,2032
2052,2048,2012,2057,2049,2055,2044,2027
2054,2046,2031,2059,2066,2037,2038,2038
2051,2047,2041,2068,2095,2018,2050,2043
2051,2049,2042,2074,2112,2034,2035,2043
2058,2046,2038,2082,2123,2042,2047,2040
2053,2046,2035,2074,2096,2050,2036,2050
2047,2044,2019,2072,2083,2023,2033,2071
2059,2045,2019,2074,2084,2012,2022,2075
2064,2047,2007,2067,2101,2008,2026,2077
2049,2036,1996,2033,2104,2007,2019,2061
2035,2013,1981,2015,2114,2022,2029,2052
2031,2014,2000,2033,2131,2066,2023,2058
2044,2045,2027,2043,2138,2085,2046,2062
2044,2048,2039,2037,2131,2096,2053,2063
2033,2048,2048,2023,2118,2087,2064,2066
2036,2047,2059,2017,2086,2078,2050,2062
2044,2050,2065,2000,1992,2061,2047,2065
2040,2050,2062,1990,1978,2062,2057,2055
2051,2044,2062,2015,2046,2077,2038,2052
2047,2037,2063,2042,2076,2078,2046,2047
2048,2034,2063,2057,2051,2067,2057,2046
2056,2050,2108,2070,2028,2061,2060,2036
2063,2076,2145,2074,2036,2065,2067,2037
2066,2078,2150,2055,2038,2062,2072,2039
2067,2067,2126,2033,2001,2050,2065,2047
2070,2066,2103,2032,1960,2024,2058,2035
2047,2038,2064,2023,1961,2004,2041,2014
2029,2023,2054,2066,2107,2047,2073,2032
2045,2045,2073,2125,2179,2078,2076,2048
2044,2038,2056,2115,2109,2067,2072,2051
2041,2026,2039,2092,2062,2049,2062,2048
2032,2021,2022,2074,2076,2033,2063,2036
2020,2018,2026,2060,1991,2024,2040,2034
2015,2023,2040,2052,1920,2025,2026,2026
2016,2028,2048,2026,1886,2041,2032,2028
2013,2035,2040,2034,1983,2071,2046,2034
2021,2041,2042,2036,2003,2086,2030,2034
2018,2035,2025,2026,1978,2076,2018,2029
2023,2022,2005,2019,1978,2059,2010,2032
2028,2023,2018,2049,2006,2048,2018,2052
2033,2030,2027,2050,2023,2002,2021,2071
2044,2043,2040,2066,2054,1931,2014,2068
2028,2050,2062,2066,2037,1938,2011,2063
2034,2059,2085,2063,1997,1975,2036,2075
2050,2064,2107,2057,1977,1997,2044,2072
2047,2052,2112,2032,1963,1988,2040,2058
2038,2051,2107,1999,1924,1964,2023,2056
2031,2048,2113,1998,1949,1955,2022,2048
2027,2048,2105,2012,2053,1994,2026,2039
2044,2055,2101,2061,2206,2065,2074,2066
2076,2088,2119,2126,2305,2108,2104,2071
2090,2092,2116,2142,2283,2104,2076,2065
2083,2084,2120,2150,2281,2104,2074,2057
2072,2082,2118,2154,2270,2107,2078,2048
2057,2066,2104,2137,2241,2096,2067,2043
2047,2051,2094,2107,2133,2083,2042,2032
2043,2045,2068,2041,1909,2050,2045,2019
2033,2041,2062,1991,1818,2041,2027,2008
2012,2022,2061,2025,2014,2092,2034,2007
2018,2035,2080,2090,2182,2125,2054,2027
2040,2053,2089,2096,2182,2111,2034,2032
2044,2052,2066,2046,2092,2066,2034,2036
2038,2046,2050,2045,2086,2043,2012,2026
2043,2047,2052,2061,2092,2015,2023,2022
2051,2049,2052,2057,2029,1988,2021,2030
2039,2035,2033,2053,2014,2003,2009,2019
2028,2033,2022,2052,2037,2027,2024,2027
2035,2040,2026,2042,2055,2033,2061,2042
2044,2044,2021,2030,2055,2035,2056,2058
2054,2048,2036,2029,2052,2037,2047,2069
2067,2055,2032,2028,2059,2043,2060,2072
2061,2047,2020,2014,2057,2043,2056,2066
2052,2040,2011,2007,2057,2041,2041,2074
2054,2037,1991,2012,2058,2044,2046,2069
2044,2017,1957,1987,2031,2045,2035,2057
2038,2011,1945,1967,2002,2064,2028,2051
2041,2025,1942,1977,1992,2070,2040,2034
2026,2026,1949,1990,1998,2069,2043,2034
2028,2029,1964,2015,2005,2052,2030,2049
2034,2036,1966,2045,2033,2016,2054,2061
2044,2047,1972,2077,2080,1993,2053,2063
2056,2062,1990,2099,2089,2005,2050,2053
2056,2059,1985,2089,2088,2029,2054,2054
2045,2055,1995,2086,2092,2056,2044,2054
2040,2044,2000,2076,2086,2070,2054,2040
2036,2043,2009,2066,2084,2077,2065,2037
2031,2043,2013,2067,2083,2072,2065,2033
2042,2050,2043,2072,2083,2068,2053,2031
2044,2070,2080,2090,2086,2064,2058,2026
2049,2078,2103,2089,2082,2058,2049,2026
2043,2061,2099,2069,2059,2042,2028,2024
2028,2057,2084,2041,2054,2037,2016,2027
2037,2060,2091,2034,2066,2037,2031,2029
2035,2048,2081,2024,2055,2033,2030,2036
2038,2050,2086,2026,2062,2045,2058,2052
2043,2057,2098,2029,2068,2047,2049,2057
2055,2063,2112,2027,2074,2045,2051,2067
2051,2064,2118,2044,2075,2046,2069,2060
2047,2064,2124,2064,2080,2051,2071,2060
2043,2061,2112,2073,2080,2051,2068,2054
2034,2058,2087,2063,2075,2053,2055,2056
2041,2053,2078,2052,2068,2050,2047,2061
2045,2037,2058,2043,2059,2047,2049,2070
2030,2024,2043,2035,2050,2051,2052,2066
2027,2028,2046,2041,2059,2062,2070,2076
2043,2053,2064,2059,2062,2076,2066,2068
2045,2056,2060,2055,2057,2060,2060,2065
2041,2054,2057,2045,2048,2053,2060,2074
2044,2065,2055,2054,2050,2062,2064,2072
2046,2052,2048,2070,2062,2058,2063,2072
2046,2060,2049,2070,2061,2060,2073,2060
2043,2046,2036,2079,2066,2054,2059,2045
2045,2038,2022,2090,2068,2043,2052,2046
2036,2034,2006,2100,2077,2044,2049,2038
2041,2033,2002,2112,2079,2050,2048,2030
2044,2029,1999,2110,2072,2042,2034,2025
2030,2021,1975,2104,2068,2043,2023,2022
2030,2024,1985,2097,2068,2043,2042,2031
2037,2033,2000,2096,2067,2040,2035,2034
2045,2036,2018,2080,2053,2030,2048,2033
2047,2046,2031,2064,2024,2020,2050,2022
2042,2041,2029,2042,2002,2007,2050,2028
2028,2019,2010,2006,1980,1992,2024,2016
2012,1994,1994,1980,1984,2007,2019,2023
2023,2017,2028,1996,2039,2045,2039,2046
2051,2056,2083,2020,2080,2069,2067,2048
2060,2083,2133,2045,2111,2097,2078,2053
2070,2094,2149,2051,2110,2100,2076,2054
2055,2098,2130,2042,2086,2082,2061,2050
2045,2083,2103,2058,2074,2070,2060,2051
2041,2082,2093,2069,2076,2067,2062,2055
2045,2083,2084,2070,2071,2059,2051,2053
2052,2077,2080,2080,2065,2061,2065,2062
2053,2066,2075,2082,2063,2060,2058,2062
2046,2060,2062,2066,2026,2062,2054,2067
2043,2061,2060,2049,2014,2065,2052,2068
2038,2056,2069,2024,2028,2069,2064,2081
2045,2056,2092,2036,2037,2068,2062,2077
2033,2050,2091,2043,2027,2063,2028,2066
2031,2036,2083,2075,2010,2052,2026,2059
2028,2044,2092,2105,2008,2046,2025,2063
2042,2047,2088,2127,2013,2021,2021,2057
2040,2041,2096,2144,2010,2008,2053,2056
2050,2046,2114,2174,2054,2030,2055,2061
2052,2050,2128,2188,2114,2046,2069,2050
2045,2043,2109,2153,2092,2045,2055,2043
2047,2048,2100,2130,2078,2044,2053,2044
2045,2047,2101,2125,2073,2047,2057,2042
2045,2064,2121,2128,2088,2056,2066,2041
2050,2076,2127,2124,2149,2074,2059,2038
2053,2074,2112,2113,2167,2092,2045,2032
2049,2064,2100,2087,2153,2097,2044,2020
2041,2058,2072,2066,2148,2117,2051,2012
2034,2047,2059,2045,2127,2112,2034,2017
2033,2035,2038,2021,2098,2058,2025,2021
2035,2031,2034,2023,2082,2040,2019,2015
2041,2047,2054,2021,2039,2032,2021,2020
2053,2064,2064,2027,1895,1976,2026,2026
2063,2072,2062,2030,1896,1976,2025,2047
2068,2071,2061,2040,1983,1999,2043,2049
2069,2072,2047,2034,2040,2022,2049,2045
2072,2065,2032,2036,2068,2038,2048,2044
2062,2056,2025,2035,2076,2034,2058,2038
2047,2048,2024,2028,2065,2032,2039,2029
2039,2046,2023,2017,2052,2025,2044,2032
2027,2050,2023,2016,2054,2026,2024,2050
2031,2056,2023,2014,2038,2028,2035,2072
2037,2042,2017,1988,2020,2017,2045,2062
2030,2033,2016,1994,2028,2025,2042,2064
2035,2044,2031,2003,2036,2034,2053,2061
2039,2050,2037,1999,2032,2032,2047,2062
2036,2034,2024,1989,2029,2035,2061,2071
2036,2034,2022,1996,2036,2052,2071,2068
2046,2035,2015,2010,2040,2059,2062,2064
2041,2033,2016,2014,2033,2060,2062,2062
2043,2034,2023,2012,2044,2062,2057,2055
2046,2038,2030,2016,2054,2061,2054,2052
2050,2032,2032,2026,2055,2046,2043,2048
2048,2034,2015,2030,2038,2038,2047,2041
2045,2032,2001,2036,2024,2050,2041,2034
2049,2034,2001,2024,2016,2060,2047,2035
2044,2037,2002,2015,2008,2058,2035,2030
2043,2028,1990,2005,2005,2054,2049,2024
2042,2025,1985,2015,2041,2038,2056,2034
2052,2038,2008,2047,2082,2048,2060,2029
2045,2043,2022,2055,2052,2051,2046,2024
2046,2053,2028,2051,2017,2044,2027,2021
2047,2050,2033,2054,2005,2039,2011,2021
2049,2051,2041,2062,2010,2025,2044,2037
2066,2072,2069,2087,2048,1994,2030,2045
2068,2073,2078,2111,2099,2007,2031,2040
2060,2061,2077,2115,2122,2039,2055,2044
2051,2047,2060,2100,2097,2055,2035,2047
2054,2042,2065,2099,2086,2056,2038,2054
2060,2051,2079,2097,2079,2053,2042,2062
2064,2053,2091,2100,2058,2042,2055,2060
2060,2059,2099,2097,2051,2040,2049,2060
2054,2063,2093,2091,2056,2033,2057,2060
2063,2055,2068,2077,2056,2039,2046,2064
2051,2048,2058,2064,2057,2042,2047,2062
2045,2042,2057,2047,2043,2034,2066,2069
2036,2046,2059,2044,2048,2026,2067,2066
2036,2055,2075,2050,2075,2032,2057,2065
2045,2049,2069,2045,2056,2044,2054,2072
2044,2049,2063,2037,2033,2050,2057,2073
2048,2058,2066,2034,2038,2057,2069,2084
2060,2061,2060,2041,2041,2057,2064,2071
2063,2069,2058,2037,2013,2036,2071,2061
2063,2067,2058,2036,1994,2026,2068,2058
2065,2061,2059,2050,2038,2052,2073,2049
2064,2059,2056,2061,2061,2052,2056,2040
2059,2059,2043,2061,2049,2043,2066,2044
2062,2053,2036,2062,2036,2025,2055,2035
2052,2051,2036,2059,2031,2030,2036,2025
2053,2048,2029,2058,2040,2030,2034,2023
2046,2040,2019,2046,2053,2034,2058,2024
2048,2044,2016,2039,2060,2044,2056,2023
2046,2049,2014,2043,2075,2060,2044,2023
2041,2046,2013,2044,2089,2075,2039,2015
2037,2035,2004,2032,2081,2072,2040,2027
2033,2032,2014,2041,2070,2075,2039,2028
2042,2044,2027,2048,2074,2081,2044,2027
2044,2041,2032,2051,2065,2087,2031,2029
2044,2049,2046,2052,2063,2102,2050,2033
2047,2062,2054,2062,2063,2087,2053,2036
2053,2064,2066,2063,2061,2040,2049,2043
2056,2066,2070,2062,2059,2026,2029,2058
2061,2077,2069,2069,2077,2043,2011,2061
2072,2080,2076,2079,2100,2066,2039,2068
2066,2075,2076,2088,2096,2070,2064,2073
2064,2066,2067,2087,2089,2058,2049,2077
2057,2068,2073,2084,2088,2053,2050,2074
2054,2068,2067,2078,2083,2055,2031,2065
2053,2064,2071,2075,2066,2054,2056,2068
2051,2064,2067,2075,2061,2036,2044,2060
2043,2056,2047,2061,2042,2023,2028,2062
2033,2051,2045,2064,2040,2028,2029,2066
2053,2072,2057,2072,2042,2034,2046,2066
2054,2065,2054,2076,2053,2038,2056,2064
2049,2071,2055,2074,2047,2035,2050,2049
2047,2067,2041,2067,2032,2042,2048,2036
2035,2060,2034,2066,2008,2043,2045,2030
2045,2060,2030,2059,1990,2053,2035,2030
2044,2056,2032,2057,1988,2048,2044,2027
2041,2051,2029,2056,1985,2017,2037,2029
2049,2055,2028,2068,2024,2017,2047,2040
2053,2059,2039,2074,2064,2042,2072,2040
2063,2062,2038,2047,2058,2045,2060,2031
2055,2055,2032,2027,2042,2042,2050,2019
2043,2051,2020,2019,2027,2036,2045,2014
2044,2041,2018,2014,2025,2043,2044,2015
2032,2027,2005,2020,2009,2056,2039,2015
2035,2036,2016,2032,2011,2064,2063,2029
2053,2062,2048,2052,2038,2072,2058,2028
2049,2077,2071,2067,2088,2091,2053,2037
2055,2073,2073,2066,2085,2087,2060,2040
2059,2066,2068,2062,2064,2080,2062,2046
2060,2057,2070,2055,2050,2076,2060,2050
2048,2056,2069,2061,2052,2072,2067,2056
2046,2049,2064,2065,2052,2054,2067,2054
2049,2046,2051,2057,2045,2047,2075,2058
2040,2048,2042,2059,2064,2032,2065,2060
2030,2046,2045,2061,2102,2031,2054,2068
2043,2056,2058,2073,2111,2034,2062,2080
2051,2073,2071,2085,2102,2034,2076,2075
2045,2081,2070,2089,2103,2039,2065,2068
2042,2078,2069,2085,2076,2044,2041,2068
2033,2058,2057,2070,2057,2041,2036,2058
2032,2046,2048,2067,2048,2044,2053,2069
2041,2063,2066,2071,2034,2036,2048,2071
2044,2062,2069,2063,2008,2023,2050,2068
2046,2059,2067,2055,1994,2016,2055,2072
2048,2063,2067,2049,1977,2006,2047,2054
2042,2056,2046,2027,1939,2008,2054,2043
2040,2054,2043,2023,1937,2029,2043,2041
2048,2062,2054,2041,2011,2047,2086,2040
2055,2069,2053,2053,2060,2070,2082,2039
2047,2068,2057,2056,2076,2067,2066,2044
2054,2075,2065,2070,2059,2024,2063,2044
2064,2076,2069,2080,1984,2005,2051,2038
2065,2076,2061,2085,1989,2006,2065,2042
2061,2076,2062,2082,2009,2013,2049,2032
2060,2070,2057,2074,2027,2025,2029,2013
2038,2040,2034,2060,2053,2038,2005,2009
2035,2026,2027,2044,2072,2061,2046,2019
2033,2042,2039,2033,2105,2068,2049,2023
2034,2047,2042,2024,2074,2052,2053,2030
2029,2053,2047,2011,1958,2011,2035,2037
2033,2053,2056,2037,1968,2020,2057,2047
2044,2064,2057,2046,1999,2025,2053,2047
2047,2059,2044,2046,2055,2042,2061,2045
2053,2066,2053,2080,2141,2094,2062,2057
2056,2072,2061,2115,2181,2125,2061,2057
2052,2069,2055,2126,2258,2130,2062,2061
2049,2058,2057,2129,2335,2135,2079,2064
2053,2066,2064,2135,2348,2088,2075,2072
2048,2066,2060,2140,2371,2092,2078,2085
2046,2072,2061,2135,2360,2105,2080,2086
2051,2065,2047,2102,2265,2084,2053,2061
2031,2040,2024,2090,2198,2062,2052,2062
2028,2037,2025,2087,2138,2069,2067,2064
2043,2054,2037,2057,1946,2020,2052,2064
2034,2048,2025,2007,1707,1967,2046,2046
2034,2041,2023,1990,1750,1973,2045,2035
2035,2045,2022,1984,1778,2001,2046,2029
2040,2054,2030,2021,1840,2034,2052,2035
2048,2063,2053,2068,1960,2045,2059,2037
2054,2064,2061,2090,2018,2044,2061,2035
2049,2058,2075,2110,2035,2019,2072,2051
2053,2060,2073,2105,2028,2025,2068,2041
2050,2057,2063,2082,2008,2033,2061,2024
2046,2052,2064,2066,1995,2045,2044,2031
2049,2054,2057,2051,1950,2048,2049,2028
2042,2051,2053,2036,1939,2043,2064,2024
2040,2043,2041,2029,1922,2033,2065,2023
2035,2035,2034,2024,1925,2035,2043,2024
2035,2041,2044,2029,1937,2034,2048,2039
2054,2060,2049,2022,1953,2028,2055,2037
2045,2052,2040,2014,1988,2038,2071,2032
2041,2042,2032,2015,2042,2058,2056,2029
2040,2045,2026,2018,2100,2069,2062,2036
2037,2043,2023,2038,2155,2079,2060,2038
2032,2030,2020,2046,2127,2077,2074,2038
2042,2036,2026,2045,2085,2071,2062,2046
2045,2032,2016,2038,2055,2065,2073,2044
2037,2027,2013,2038,2042,2046,2045,2052
2041,2026,2008,2038,2038,2037,2065,2059
2040,2029,2003,2042,2033,2034,2055,2064
2043,2045,2019,2044,2047,2034,2054,2064
2048,2052,2026,2041,2043,2033,2067,2073
2060,2060,2031,2039,2023,2037,2053,2069
2052,2047,2029,2039,1991,2045,2050,2064
2041,2052,2060,2050,1974,2040,2047,2065
2046,2062,2082,2054,1957,2034,2050,2058
2052,2062,2091,2055,1961,2009,2049,2070
2050,2068,2098,2073,1998,1987,2056,2068
2055,2072,2094,2090,2054,2014,2064,2067
2056,2066,2078,2086,2070,2053,2078,2052
2049,2055,2066,2087,2076,2084,2077,2045
2047,2053,2063,2087,2069,2085,2085,2046
2050,2059,2063,2088,2063,2082,2076,2047
2050,2055,2066,2083,2064,2074,2057,2041
2055,2056,2058,2078,2060,2063,2058,2037
2064,2068,2071,2092,2073,2060,2070,2036
2062,2071,2079,2088,2080,2062,2076,2040
2057,2075,2071,2071,2070,2043,2069,2044
2064,2066,2054,2043,2049,2031,2064,2035
2049,2044,2032,2023,2028,2055,2056,2027
2048,2041,2038,2026,2031,2081,2056,2038
2044,2032,2029,2031,2027,2086,2051,2027
2042,2040,2028,2030,2035,2088,2066,2033
2057,2052,2046,2052,2049,2060,2057,2053
2069,2061,2064,2089,2087,2020,2072,2059
2087,2069,2066,2105,2100,2040,2063,2061
2080,2072,2064,2111,2082,2051,2075,2055
2071,2064,2060,2095,2060,2039,2056,2055
2061,2047,2045,2079,2039,2028,2053,2057
2060,2041,2035,2070,2045,2049,2051,2064
2064,2044,2031,2077,2077,2071,2070,2073
2058,2051,2041,2073,2095,2094,2075,2067
2050,2056,2040,2067,2096,2103,2069,2080
2050,2062,2042,2055,2084,2098,2078,2081
2038,2045,2024,2016,2045,2077,2049,2066
2032,2032,2008,1984,2010,2064,2046,2070
2042,2050,2027,1982,2003,2070,2066,2083
2042,2068,2041,1997,1967,2035,2066,2078
2051,2076,2060,2016,1931,1985,2053,2078
2062,2073,2056,2025,1930,1960,2049,2068
2058,2074,2060,2043,1946,1974,2045,2066
2064,2070,2062,2038,1926,2004,2028,2066
2068,2063,2057,2028,1870,2003,2030,2054
2058,2062,2047,2018,1879,2009,2033,2047
2056,2056,2040,2017,1889,1995,2049,2036
2052,2054,2037,2002,1889,1962,2039,2036
2047,2048,2030,1989,1918,1974,2045,2032
2054,2047,2035,2008,1949,2015,2065,2037
2047,2050,2039,2031,2060,2033,2057,2034
2047,2045,2040,2068,2212,2068,2058,2032
2048,2040,2038,2080,2212,2080,2049,2031
2045,2033,2044,2080,2188,2078,2055,2033
2046,2044,2051,2087,2162,2082,2061,2035
2044,2047,2038,2074,2127,2065,2029,2029
2049,2040,2037,2073,2106,2054,2020,2033
2051,2042,2036,2088,2102,2049,2054,2040
2050,2046,2038,2101,2090,2048,2069,2045
2045,2051,2041,2111,2072,2058,2060,2057
2054,2058,2056,2109,2064,2074,2073,2067
2060,2058,2064,2092,2055,2076,2050,2061
2055,2060,2066,2065,2035,2065,2042,2061
2059,2067,2062,2060,2014,2050,2042,2062
2055,2057,2058,2076,2011,2049,2054,2061
2048,2045,2056,2076,2019,2045,2057,2066
2042,2037,2050,2079,2005,2057,2047,2060
2038,2040,2040,2067,2019,2068,2040,2045
2024,2024,2021,2060,2041,2093,2029,2038
2019,2010,2008,2054,2101,2114,2032,2042
2032,2025,2010,2050,2112,2107,2030,2045
2034,2021,2004,2043,2094,2043,2027,2060
2045,2031,2021,2063,2113,1990,2034,2075
2052,2047,2048,2096,2164,1994,2065,2077
2058,2061,2071,2097,2162,2024,2050,2068
2064,2062,2071,2091,2176,2046,2056,2069
2059,2051,2056,2055,2130,2027,2042,2053
2052,2038,2021,1997,2005,2004,2036,2032
2047,2031,2004,1968,2008,2020,2033,2022
2041,2031,2009,1962,2085,2058,2042,2027
2047,2037,2013,1947,2071,2091,2035,2035
2043,2045,2022,1964,2062,2116,2054,2048
2064,2061,2040,1988,2092,2120,2068,2056
2069,2062,2040,1995,2050,2068,2053,2046
2057,2053,2036,1995,1932,2032,2036,2041
2054,2053,2040,2002,1933,2030,2031,2041
2062,2056,2049,2022,1968,2036,2053,2054
2071,2058,2042,2040,2042,2020,2055,2060
2069,2050,2040,2043,2067,2005,2062,2055
2064,2049,2033,2032,2049,1983,2029,2048
2052,2034,2019,2004,2009,1990,2031,2039
2041,2034,2028,1994,1948,2012,2017,2045
2048,2060,2076,2043,2067,2053,2036,2058
2065,2079,2117,2089,2129,2071,2058,2057
2061,2079,2113,2097,2106,2074,2077,2064
2057,2068,2097,2091,2080,2068,2079,2068
2055,2055,2081,2072,2041,2032,2079,2062
2046,2049,2070,2059,2024,2027,2064,2060
2046,2042,2062,2043,1990,2054,2044,2061
2046,2041,2051,2024,1951,2051,2051,2060
2037,2029,2038,2009,1912,2038,2040,2062
2028,2026,2031,1994,1864,2027,2035,2066
2038,2047,2048,2011,1906,2005,2049,2075
2052,2054,2063,2046,2017,2031,2076,2077
2060,2057,2064,2056,2092,2100,2076,2075
2062,2054,2058,2060,2135,2148,2076,2065
2060,2052,2057,2064,2143,2148,2070,2056
2057,2044,2054,2058,2108,2104,2058,2042
2052,2040,2047,2052,2094,1995,2048,2036
2042,2037,2036,2052,2098,2004,2034,2038
2039,2026,2033,2050,2121,2057,2043,2037
2042,2029,2036,2053,2105,2080,2061,2033
2050,2033,2041,2054,2048,2056,2054,2038
2047,2030,2039,2054,2012,2033,2055,2034
2048,2030,2041,2056,2038,2052,2067,2038
2055,2032,2041,2051,2040,2053,2055,2039
2045,2021,2031,2032,2021,2040,2053,2027
2041,2017,2028,2028,2014,2035,2038,2032
2053,2032,2038,2041,2024,2037,2039,2033
2057,2030,2044,2039,2031,2032,2057,2038
2059,2028,2032,2044,2031,2029,2052,2040
2054,2027,2023,2044,2030,2025,2040,2039
2052,2030,2024,2053,2038,2026,2052,2047
2058,2029,2033,2053,2039,2031,2052,2049
2063,2029,2030,2049,2035,2034,2051,2054
2054,2028,2028,2051,2046,2043,2057,2050
2048,2027,2028,2049,2049,2040,2057,2060
2054,2039,2035,2052,2058,2034,2057,2065
2053,2048,2040,2054,2050,2036,2048,2072
2048,2042,2033,2048,2040,2035,2047,2069
2041,2033,2030,2046,2071,2040,2047,2068
2044,2038,2039,2060,2101,2047,2035,2065
2037,2018,2033,2049,2096,2051,2031,2060
2029,2018,2037,2042,2072,2072,2041,2052
2033,2043,2048,2046,2057,2076,2049,2042
2046,2044,2049,2043,2038,2089,2034,2046
2049,2044,2053,2043,2022,2081,2033,2046
2047,2040,2043,2037,2020,2038,2049,2062
2055,2036,2040,2035,2006,1988,2032,2060
2065,2047,2048,2010,1876,1980,2030,2051
2064,2049,2054,2021,1954,2020,2037,2043
2064,2050,2058,2027,2014,2036,2034,2036
2062,2049,2055,2024,2037,2046,2028,2029
2060,2054,2063,2053,2068,2053,2042,2032
2063,2055,2072,2056,2097,2061,2059,2032
2065,2058,2073,2057,2086,2081,2037,2029
2060,2054,2064,2061,2074,2084,2038,2025
2047,2041,2056,2050,2069,2057,2024,2020
2034,2019,2043,2047,2049,2046,2021,2025
2037,2022,2047,2047,2026,2044,2047,2036
2055,2040,2054,2055,1998,2042,2054,2039
2055,2045,2052,2050,2002,2039,2061,2046
2062,2048,2060,2050,2001,2040,2044,2048
2061,2046,2059,2040,1946,2026,2037,2041
2064,2043,2057,2027,1938,2033,2056,2048
2060,2035,2042,2040,2026,2057,2052,2052
2063,2038,2043,2040,2004,2052,2039,2064
2063,2029,2037,2032,1961,2050,2050,2056
2068,2036,2047,2046,2021,2051,2070,2061
2081,2050,2065,2051,2032,2071,2068,2070
2083,2052,2064,2051,2005,2076,2073,2073
2060,2047,2059,2052,1994,2081,2057,2073
2056,2047,2056,2049,2050,2050,2055,2074
2043,2034,2044,2055,2140,2018,2029,2064
2027,2030,2038,2063,2141,2005,2039,2070
2035,2033,2031,2071,2122,2043,2056,2078
2060,2040,2038,2053,2032,2078,2058,2075
2058,2030,2027,2021,1970,2095,2043,2061
2053,2033,2027,2008,2049,2124,2037,2052
2055,2041,2033,2021,2113,2178,2053,2043
2056,2045,2036,2021,2114,2199,2043,2038
2052,2042,2050,2019,2118,2141,2042,2047
2055,2054,2058,2036,2100,2024,2045,2057
2072,2069,2071,2053,2086,1969,2037,2065
2084,2078,2077,2056,2070,1996,2045,2057
2080,2066,2065,2047,2092,2032,2022,2054
2075,2045,2038,2032,2012,2032,2046,2054
2072,2040,2045,2057,2012,2061,2042,2062
2069,2047,2059,2075,2036,2080,2064,2056
2068,2046,2058,2060,2039,2072,2045,2048
2060,2030,2034,2019,2026,2064,2055,2038
2042,2020,2031,2029,2092,2076,2068,2035
2045,2041,2045,2039,2049,2078,2066,2047
2054,2043,2054,2049,2028,2058,2068,2055
2068,2051,2066,2049,2059,2042,2074,2056
2070,2055,2057,2041,2057,2022,2058,2045
2062,2044,2048,2028,2028,1990,2044,2028
2041,2030,2035,2035,2008,1969,2009,2024
2028,2016,2027,2039,2036,1989,2039,2028
2037,2016,2037,2045,2059,2019,2057,2050
2054,2036,2053,2057,2068,2036,2062,2057
2065,2034,2048,2051,2054,2028,2033,2069
2052,2024,2040,2041,2058,2011,2025,2072
2052,2022,2031,2036,2073,2014,2053,2080
2052,2015,2020,2038,2061,2014,2044,2080
2045,2023,2032,2052,2060,2020,2040,2060
2028,2008,2032,2040,2034,1999,2026,2048
2010,2022,2041,2025,1986,1993,2032,2056
2031,2054,2067,2037,2008,2012,2053,2061
2042,2055,2057,2043,1989,2028,2052,2057
2046,2054,2054,2026,1948,2040,2032,2055
2053,2060,2060,2030,1953,2047,2059,2062
2066,2065,2060,2044,1964,2031,2051,2061
2065,2068,2065,2052,1985,2000,2056,2062
2075,2072,2065,2064,2065,2044,2053,2056
2064,2064,2059,2061,2093,2069,2059,2050
2062,2066,2061,2050,2109,2064,2050,2048
2059,2063,2057,2051,2170,2080,2046,2048
2054,2050,2058,2061,2203,2113,2033,2044
2052,2053,2057,2080,2213,2121,2051,2053
2065,2052,2063,2083,2128,2101,2032,2046
2062,2047,2051,2037,1979,2046,2025,2031
2039,2032,2043,2007,1913,1964,2004,2016
2029,2027,2036,2007,1934,1971,2022,2026
2034,2038,2041,2040,1998,2028,2047,2047
2039,2045,2054,2077,2132,2104,2065,2053
2059,2058,2064,2091,2166,2136,2074,2064
2072,2063,2066,2100,2149,2145,2074,2054
2065,2061,2061,2093,2112,2149,2075,2061
2059,2054,2060,2076,2091,2137,2078,2061
2062,2060,2057,2047,2004,2118,2071,2059
2060,2050,2043,1994,1811,2056,2055,2050
2045,2035,2037,1965,1796,1988,2032,2049
2036,2027,2026,1982,1952,1979,2013,2048
2037,2017,2029,2006,2053,1989,2021,2049
2040,2032,2038,2035,2131,2031,2034,2061
2051,2042,2051,2051,2157,2059,2038,2075
2053,2050,2054,2058,2130,2020,2000,2069
2039,2035,2045,2050,2136,2000,1994,2066
2034,2024,2044,2051,2160,2024,1991,2055
2026,2027,2034,2022,1998,2039,1994,2061
2040,2037,2038,2034,2011,2064,2025,2071
2057,2055,2054,2062,2088,2062,2035,2066
2057,2046,2037,2032,2048,2019,2035,2049
2058,2040,2036,2026,2027,2007,2015,2044
2057,2050,2045,2040,2052,2027,2012,2026
2061,2056,2049,2040,2056,2050,2046,2028
2054,2048,2048,2060,2054,2066,2073,2037
2049,2047,2053,2064,2062,2062,2038,2042
2034,2037,2041,2064,2033,2052,2032,2040
2037,2035,2037,2043,1871,2021,2024,2036
2031,2036,2033,2032,1810,2012,2011,2041
2044,2047,2042,2040,1898,2037,2018,2046
2051,2048,2043,2041,1969,2043,2041,2030
2037,2031,2029,2014,2034,2058,2033,2021
2038,2023,2020,2013,2090,2085,2049,2038
2056,2036,2042,2052,2114,2106,2056,2049
2056,2046,2044,2053,2092,2079,2047,2041
2059,2046,2047,2057,2081,2027,2037,2046
2054,2045,2047,2049,2037,2008,2036,2050
2059,2050,2047,2034,1985,2006,2035,2064
2068,2049,2047,2022,1971,2031,2045,2067
2074,2055,2056,2024,1992,2055,2054,2073
2062,2060,2054,2021,2003,2056,2029,2066
2049,2050,2051,2014,1999,2065,2027,2064
2048,2056,2053,2027,2060,2090,2052,2070
2063,2059,2067,2044,2092,2094,2044,2073
2056,2062,2062,2016,2043,2063,2027,2069
2046,2049,2043,2008,2043,2017,2013,2062
2047,2037,2030,2014,2056,1963,2020,2049
2037,2014,2017,2016,2049,2001,2005,2055
2036,2011,2029,2072,2128,2090,2033,2067
2047,2037,2043,2097,2133,2106,2020,2058
2047,2051,2049,2067,2086,2101,1998,2051
2042,2050,2052,2043,2067,2049,2001,2052
2063,2059,2050,2055,2105,1990,2010,2065
2068,2063,2059,2073,2161,2018,2037,2077
2063,2058,2066,2083,2156,2037,2036,2082
2064,2058,2064,2072,2115,2029,2042,2072
2061,2059,2064,2064,2097,2006,2040,2047
2061,2053,2054,2030,2031,1988,2037,2039
2050,2044,2043,2023,2039,1998,2028,2038
2043,2040,2055,2048,2124,2025,2018,2039
2042,2051,2059,2088,2127,2046,2013,2050
2052,2058,2067,2083,2134,2059,2028,2050
2053,2053,2052,2060,2105,2050,2008,2043
2042,2036,2035,2034,2025,2042,2022,2041
2042,2028,2028,1995,1877,2092,2051,2044
2056,2040,2036,2017,1958,2137,2037,2047
2057,2043,2036,2032,2014,2153,2022,2047
2051,2044,2043,2040,2035,2177,2038,2031
2039,2045,2042,2044,2051,2173,2033,2038
2036,2044,2047,2052,2064,2146,2054,2039
2027,2050,2048,2055,2072,2043,2046,2042
2030,2047,2051,2054,2054,1985,2017,2044
2034,2042,2051,2053,2045,1994,2014,2046
2042,2045,2042,2045,2043,1996,2023,2052
2050,2044,2048,2045,2038,1989,2032,2067
2051,2050,2054,2046,2048,2004,2042,2068
2047,2051,2052,2054,2057,2027,2050,2073
2056,2050,2047,2054,2056,2044,2043,2080
2055,2049,2048,2046,2052,2009,2032,2072
2041,2038,2045,2049,2036,2007,2027,2066
2048,2037,2043,2050,2050,2019,2034,2067
2058,2051,2054,2059,2050,2046,2045,2072
2062,2050,2053,2052,2049,2058,2059,2071
2054,2055,2053,2036,1994,2076,2041,2066
2046,2046,2043,2017,1942,2088,2046,2064
2052,2047,2040,2023,2010,2089,2043,2055
2047,2047,2043,2033,2056,2092,2042,2050
2052,2052,2049,2054,2079,2097,2053,2051
2057,2060,2061,2064,2080,2094,2035,2053
2061,2062,2059,2063,2095,2110,2045,2053
2065,2054,2059,2059,2094,2082,2043,2048
2054,2050,2055,2054,2065,2028,2030,2043
2054,2052,2056,2057,2070,1993,2031,2043
2057,2055,2060,2064,2063,1984,2044,2040
2058,2055,2058,2058,2012,1969,2022,2030
2053,2047,2048,2029,1962,1965,2013,2024
2045,2042,2048,2021,1980,1986,2026,2035
2055,2046,2048,2030,2058,2020,2047,2039
2054,2042,2048,2028,2054,2042,2065,2043
2054,2042,2043,2029,2050,2041,2046,2040
2056,2041,2041,2037,2029,2047,2044,2036
2052,2038,2042,2037,2039,2043,2038,2037
2048,2047,2046,2046,2055,2046,2040,2039
2047,2050,2044,2039,2037,2015,2040,2045
2056,2050,2045,2036,2024,2002,2036,2050
2055,2046,2046,2040,2026,2011,2041,2059
2058,2046,2045,2047,2039,2024,2058,2072
2062,2054,2049,2046,2052,2043,2061,2071
2056,2043,2047,2043,2047,2065,2052,2067
2054,2038,2038,2039,2056,2080,2049,2059
2042,2029,2027,2043,2062,2089,2047,2057
2036,2020,2022,2036,2047,2067,2017,2053
2029,2017,2016,2032,2046,2079,2003,2052
2025,2022,2025,2042,2050,2116,2028,2059
2042,2036,2028,2036,2051,2150,2052,2059
2047,2038,2030,2035,2051,2144,2030,2057
2052,2039,2033,2044,2047,2084,2047,2056
2051,2041,2035,2039,2044,1996,2045,2054
2063,2046,2037,2040,2041,1991,2050,2064
2057,2044,2043,2043,2040,2014,2045,2052
2056,2048,2050,2038,2036,2033,2042,2040
2050,2046,2049,2040,2008,2036,2046,2040
2050,2047,2046,2041,2015,2032,2041,2044
2045,2042,2040,2034,2029,2031,2035,2037
2052,2042,2036,2038,2022,1989,2024,2049
2049,2039,2046,2044,2016,1976,2032,2038
2053,2037,2041,2038,2010,1989,2021,2029
2039,2031,2035,2024,2017,2014,2015,2017
2026,2020,2026,2022,2037,2049,2031,2012
2035,2034,2047,2038,2056,2072,2042,2032
2047,2045,2055,2052,2111,2098,2042,2039
2053,2049,2063,2059,2136,2096,2045,2040
2048,2049,2060,2064,2130,2068,2039,2048
2048,2050,2060,2063,2113,2043,2036,2042
2049,2046,2057,2062,2090,2023,2045,2045
2043,2049,2064,2054,2077,1988,2021,2045
2043,2048,2059,2047,2068,1974,2044,2053
2052,2041,2061,2046,2070,2001,2056,2065
2051,2049,2059,2050,2077,2032,2087,2067
2051,2045,2056,2052,2075,2057,2083,2077
2044,2040,2056,2042,2048,2029,2056,2071
2040,2032,2041,2032,2030,2035,2059,2070
2039,2028,2029,2029,2018,2064,2065,2061
2034,2025,2025,2020,2018,2078,2046,2046
2018,2010,2024,2018,2012,2096,2040,2041
2019,2015,2035,2024,2030,2113,2058,2042
2033,2023,2039,2035,2035,2088,2026,2048
2026,2029,2039,2030,2028,2020,2029,2031
2027,2027,2037,2031,2039,2016,2037,2033
2031,2037,2034,2040,2055,2040,2044,2023
2039,2039,2034,2036,2061,2056,2053,2030
2037,2039,2034,2038,2055,2064,2060,2030
2041,2040,2038,2039,2056,2057,2062,2023
2045,2040,2038,2039,2056,2042,2021,2018
2041,2033,2032,2036,2064,2046,2012,2020
2042,2030,2031,2032,2061,2046,2004,2017
2047,2037,2034,2034,2063,2045,2018,2022
2044,2035,2033,2036,2060,2043,2034,2021
2046,2042,2034,2041,2061,2044,2040,2029
2046,2039,2029,2029,2049,2036,2037,2012
2032,2026,2029,2026,2038,2043,2048,2012
2028,2031,2034,2032,2053,2070,2063,2020
2044,2039,2041,2038,2062,2080,2061,2025
2045,2041,2047,2040,2066,2068,2046,2032
2042,2040,2043,2042,2062,2066,2057,2038
2048,2038,2045,2043,2057,2059,2046,2042
2050,2035,2040,2042,2056,2053,2045,2042
2043,2030,2037,2039,2048,2052,2031,2047
2045,2028,2034,2042,2059,2058,2028,2047
2042,2032,2034,2040,2063,2062,2059,2055
2047,2030,2034,2040,2064,2053,2049,2055
2050,2037,2030,2039,2061,2056,2053,2067
2041,2038,2023,2030,2054,2055,2050,2068
2049,2047,2014,2029,2061,2051,2043,2067
2054,2042,2009,2028,2056,2053,2037,2068
2050,2032,1997,2020,2042,2027,2022,2058
2028,2011,1987,2021,2039,2014,2030,2056
2033,2028,1990,2035,2053,2030,2050,2055
2043,2028,1989,2039,2063,2036,2040,2055
2047,2034,1984,2049,2057,2036,2049,2049
2049,2032,1992,2057,2063,2041,2052,2048
2046,2031,2008,2064,2066,2045,2060,2036
2047,2028,2020,2069,2067,2050,2044,2036
2045,2034,2025,2070,2058,2056,2059,2031
2051,2029,2038,2080,2056,2056,2059,2036
2045,2040,2051,2083,2059,2062,2073,2037
2054,2051,2063,2092,2059,2057,2078,2028
2052,2056,2087,2090,2055,2058,2061,2027
2048,2052,2093,2086,2044,2084,2060,2023
2046,2061,2097,2092,2053,2099,2062,2016
2055,2067,2106,2098,2059,2108,2068,2015
2057,2077,2117,2099,2067,2083,2055,2016
2056,2073,2125,2097,2078,2048,2049,2017
2048,2076,2125,2092,2086,2049,2056,2030
2060,2080,2102,2065,2074,2057,2040,2022
2059,2067,2071,2044,2064,2057,2040,2025
2054,2052,2048,2023,2063,2052,2047,2032
2054,2053,2045,2014,2068,2039,2043,2033
2056,2054,2043,1999,2064,2037,2049,2034
2052,2051,2025,1997,2058,2036,2047,2037
2053,2045,2015,1987,2050,2050,2057,2035
2052,2040,2012,1995,2054,2054,2059,2041
2050,2045,2028,2010,2064,2065,2044,2052
2052,2052,2039,2025,2071,2080,2055,2056
2044,2050,2040,2023,2067,2075,2069,2062
2047,2052,2037,2018,2064,2075,2072,2065
2046,2053,2031,2022,2059,2098,2070,2066
2052,2058,2035,2016,2048,2111,2055,2059
2046,2039,2027,2016,2054,2144,2064,2054
2047,2043,2034,2024,2057,2169,2070,2056
2053,2061,2048,2029,2061,2130,2047,2054
2056,2066,2065,2045,2059,1979,2028,2061
2056,2072,2072,2044,2049,1933,2034,2060
2062,2067,2071,2048,2047,1962,2040,2051
2052,2067,2072,2036,2050,2015,2054,2042
2046,2058,2066,2031,2060,2033,2063,2033
2040,2054,2061,2022,2050,2036,2062,2022
2037,2044,2057,2020,2048,2038,2060,2016
2036,2035,2054,2015,2047,2036,2050,2018
2039,2037,2056,2016,2052,2043,2057,2019
2038,2032,2048,2026,2058,2032,2063,2018
2034,2027,2028,2035,2071,2038,2069,2016
2030,2018,2023,2032,2069,2053,2082,2018
2032,2019,2019,2024,2077,2056,2068,2012
2026,2006,2017,2033,2068,2051,2066,2019
2031,2010,2020,2036,2072,2053,2067,2028
2040,2034,2041,2051,2069,2047,2064,2031
2043,2047,2052,2053,2079,2059,2076,2041
2051,2055,2061,2060,2074,2065,2094,2039
2052,2053,2061,2061,2074,2060,2071,2035
2048,2047,2044,2053,2074,2057,2071,2034
2040,2037,2049,2062,2073,2067,2058,2034
2045,2039,2060,2061,2074,2075,2051,2032
2044,2056,2084,2065,2074,2098,2057,2045
2054,2072,2094,2076,2085,2113,2069,2046
2057,2066,2097,2082,2090,2101,2056,2052
2051,2060,2087,2065,2075,2074,2057,2056
2052,2048,2078,2053,2059,2062,2042,2055
2050,2056,2073,2045,2054,2056,2048,2054
2047,2047,2068,2037,2054,2041,2033,2048
2031,2034,2058,2018,2052,2046,2037,2045
2037,2040,2053,2024,2057,2061,2033,2055
2045,2049,2057,2027,2061,2061,2043,2053
2051,2051,2053,2027,2053,2077,2034,2053
2049,2051,2049,2023,2065,2104,2048,2058
2060,2058,2046,2030,2071,2115,2076,2054
2061,2058,2051,2031,2067,2129,2072,2049
2060,2058,2050,2035,2070,2164,2063,2042
2060,2053,2047,2040,2076,2194,2088,2035
2061,2045,2050,2042,2076,2163,2067,2030
2058,2046,2053,2040,2074,2024,2056,2026
2061,2048,2049,2044,2069,1948,2034,2026
2056,2048,2048,2040,2065,1960,2030,2012
2047,2045,2047,2043,2054,1937,2028,2002
2042,2038,2046,2040,2052,1945,2014,1996
2033,2038,2040,2030,2033,1938,1999,1992
2025,2023,2025,2022,2031,1961,2010,2001
2030,2030,2035,2034,2047,2019,2049,2022
2054,2045,2049,2040,2052,2028,2057,2027
2055,2047,2050,2041,2047,2017,2050,2029
2055,2053,2051,2045,2054,2019,2042,2030
2055,2060,2054,2042,2056,2034,2059,2030
2049,2056,2055,2045,2057,2056,2072,2039
2052,2057,2057,2034,2049,2090,2067,2038
2046,2054,2050,2030,2019,2122,2064,2040
2040,2039,2044,2024,1995,2147,2057,2033
2029,2038,2039,2012,1976,2125,2044,2033
2028,2034,2038,2009,1975,2047,2034,2030
2030,2041,2048,2023,2021,2015,2042,2043
2042,2058,2057,2059,2095,2006,2060,2064
2052,2061,2064,2077,2144,2045,2070,2054
2047,2059,2059,2070,2142,2075,2052,2047
2036,2039,2045,2053,2094,2077,2039,2047
2022,2028,2025,2029,2039,2062,2038,2045
2030,2035,2032,2020,1994,2037,2029,2051
2040,2035,2031,2012,1962,2010,2026,2043
2037,2036,2034,2011,1957,2005,2032,2045
2043,2038,2033,2003,1963,1987,2025,2039
2044,2046,2041,2026,2022,1993,2038,2054
2059,2065,2061,2066,2101,2028,2067,2064
2074,2072,2067,2073,2117,2044,2065,2063
2070,2069,2060,2068,2125,2060,2051,2049
2060,2060,2058,2062,2110,2062,2032,2036
2055,2048,2052,2057,2086,2054,2034,2025
2054,2043,2044,2047,2058,2047,2044,2022
2053,2037,2043,2044,2053,2048,2040,2024
2042,2032,2035,2026,2031,2061,2030,2012
2041,2033,2031,2021,2016,2064,2023,2011
2039,2033,2027,2021,2007,2051,2014,1996
2030,2022,2018,2020,2003,2046,2024,1992
2025,2027,2025,2035,2039,2047,2023,2019
2046,2043,2038,2054,2086,2054,2066,2026
2053,2048,2042,2064,2122,2080,2084,2033
2054,2053,2043,2064,2126,2096,2092,2033
2057,2057,2048,2066,2111,2069,2065,2036
2062,2064,2051,2058,2095,2052,2070,2048
2065,2067,2048,2063,2085,2042,2056,2055
2049,2058,2049,2058,2082,2053,2051,2045
2054,2051,2046,2051,2083,2057,2038,2040
2049,2052,2049,2048,2073,2062,2044,2051
2043,2057,2058,2058,2058,2077,2052,2061
2042,2050,2059,2062,2058,2094,2060,2068
2043,2061,2060,2060,2050,2088,2073,2070
2048,2054,2059,2049,2047,2087,2061,2074
2048,2050,2052,2047,2067,2090,2067,2072
2041,2040,2056,2061,2101,2111,2076,2075
2047,2039,2056,2064,2100,2110,2077,2072
2050,2052,2051,2062,2092,2086,2078,2070
2050,2051,2057,2053,2079,2060,2067,2066
2049,2044,2051,2044,2066,2041,2058,2052
2047,2041,2048,2047,2082,2053,2069,2050
2054,2047,2045,2052,2074,2064,2078,2045
2058,2052,2051,2045,2070,2067,2085,2046
2051,2054,2053,2047,2068,2042,2077,2032
2048,2051,2045,2050,2072,2048,2066,2034
2044,2049,2049,2050,2081,2080,2057,2019
2043,2051,2045,2053,2078,2094,2063,2022
2048,2054,2041,2056,2062,2074,2058,2017
2043,2049,2042,2053,2059,2060,2054,2018
2039,2044,2038,2045,2049,2041,2043,2022
2046,2043,2038,2047,2048,2020,2040,2018
2033,2028,2027,2038,2046,2018,2037,2022
2035,2023,2026,2035,2042,2002,2035,2029
2049,2041,2044,2048,2039,1988,2030,2024
2046,2043,2043,2047,2038,1997,2022,2031
2047,2048,2048,2044,2039,2019,2043,2029
2053,2051,2045,2045,2044,2030,2044,2035
2054,2052,2055,2052,2048,2021,2043,2037
2049,2055,2055,2055,2049,2025,2038,2044
2053,2051,2056,2052,2040,2033,2055,2039
2055,2047,2056,2047,2049,2041,2049,2043
2052,2045,2053,2046,2049,2045,2056,2050
2044,2044,2049,2056,2055,2055,2053,2052
2040,2039,2047,2051,2057,2057,2046,2054
2045,2041,2046,2052,2059,2067,2034,2058
2046,2041,2043,2050,2050,2067,2043,2055
2044,2043,2037,2038,2045,2078,2038,2051
2035,2032,2034,2034,2031,2069,2030,2056
2031,2027,2032,2036,2024,2074,2019,2056
2041,2038,2039,2049,2037,2096,2042,2062
2046,2041,2044,2056,2043,2096,2039,2052
2047,2040,2053,2055,2045,2077,2044,2055
2045,2044,2048,2052,2044,2057,2033,2040
2043,2045,2051,2053,2038,2036,2016,2034
2048,2049,2054,2047,2030,2034,2022,2031
2043,2043,2048,2047,2026,2058,2034,2022
2042,2043,2042,2042,2027,2067,2019,2018
2050,2046,2049,2054,2023,2074,2033,2025
2051,2051,2051,2055,2031,2074,2043,2022
2055,2051,2051,2056,2037,2045,2032,2030
2063,2054,2057,2066,2064,2036,2036,2036
2063,2059,2056,2063,2073,2055,2051,2028
2052,2051,2050,2054,2061,2076,2065,2023
2042,2044,2036,2038,2044,2102,2058,2013
2030,2029,2019,2027,2038,2125,2047,2016
2031,2028,2013,2018,2029,2125,2036,2027
2042,2044,2036,2026,2044,2051,2024,2030
2050,2050,2038,2022,2081,1970,2031,2028
2052,2060,2042,2038,2116,2010,2040,2035
2059,2060,2047,2041,2124,2055,2036,2043
2062,2062,2046,2038,2092,2056,2026,2043
2065,2060,2036,2031,2045,2052,2025,2035
2059,2050,2029,2033,2059,2043,2024,2032
2051,2039,2031,2025,2038,2040,2037,2039
2044,2040,2031,2014,1972,2052,2036,2039
2050,2038,2032,2000,1803,2026,2036,2041
2041,2038,2029,1978,1759,2011,2010,2045
2036,2039,2021,1982,1821,1990,2016,2049
2041,2036,2030,1995,1906,1939,2031,2064
2048,2045,2045,2022,1988,1954,2037,2072
2053,2045,2051,2050,2115,2021,2042,2072
2049,2046,2050,2065,2127,2061,2038,2075
2056,2056,2056,2063,2067,2075,2043,2081
2056,2049,2044,2046,2027,2075,2050,2075
2042,2048,2036,2039,2032,2087,2051,2067
2044,2036,2032,2037,2049,2081,2057,2055
2044,2041,2035,2041,2059,2083,2035,2051
2054,2049,2042,2049,2066,2089,2047,2041
2059,2049,2047,2045,2066,2099,2057,2042
2056,2053,2048,2047,2055,2094,2064,2039
2058,2047,2038,2036,2057,2096,2058,2041
2054,2045,2036,2039,2060,2102,2054,2033
2054,2039,2024,2038,2057,2104,2049,2035
2047,2035,2026,2040,2052,2092,2080,2027
2050,2033,2029,2047,2057,2083,2055,2024
2050,2037,2029,2046,2062,2027,2035,2030
2040,2031,2019,2048,2048,1974,1993,2013
2039,2025,2014,2031,2044,1979,2028,2012
2044,2029,2018,2030,2039,2002,2040,2030
2052,2038,2015,2028,2027,2003,2042,2034
2058,2044,2010,2026,2002,2008,2037,2039
2059,2048,2030,2031,2000,2004,2040,2040
2066,2055,2037,2032,1997,2003,2043,2040
2060,2050,2036,2035,2019,2009,2039,2052
2062,2053,2045,2058,2056,2039,2055,2055
2058,2052,2042,2059,2092,2048,2055,2058
2060,2056,2043,2062,2092,2050,2050,2058
2050,2053,2042,2051,2080,2073,2057,2061
2049,2052,2034,2035,2051,2058,2030,2073
2055,2052,2036,2038,2044,2050,2001,2084
2055,2053,2044,2032,2037,2075,2029,2093
2050,2052,2052,2030,2031,2072,2025,2090
2054,2051,2039,2023,2024,2045,1992,2073
2036,2031,2015,2012,2030,2046,1993,2060
2032,2032,2019,2020,2054,2072,2020,2077
2049,2039,2025,2026,2064,2078,2023,2078
2053,2044,2024,2034,2060,2073,2031,2074
2050,2046,2021,2033,2061,2072,2044,2064
2061,2047,2043,2040,2053,2062,2034,2066
2058,2057,2058,2043,2048,2053,2040,2060
2057,2064,2074,2058,2044,2045,2046,2053
2059,2066,2071,2055,2046,2043,2053,2052
2051,2059,2050,2051,2043,2054,2057,2048
2052,2051,2045,2053,2048,2065,2070,2049
2048,2056,2058,2061,2048,2068,2066,2039
2051,2067,2056,2060,2051,2074,2084,2040
2043,2060,2057,2056,2051,2089,2077,2046
2051,2056,2056,2059,2058,2109,2074,2050
2056,2055,2046,2054,2045,2112,2069,2047
2049,2036,2035,2038,2034,2114,2074,2052
2046,2027,2034,2036,2039,2134,2072,2058
2055,2033,2037,2044,2044,2166,2071,2054
2040,2038,2044,2050,2050,2203,2081,2042
2046,2042,2045,2050,2054,2173,2072,2046
2048,2048,2043,2040,2051,2022,2040,2045
2048,2048,2047,2031,2036,1927,2012,2048
2046,2045,2046,2022,2037,1945,2011,2053
2054,2053,2050,2022,2039,1966,2033,2064
2055,2056,2054,2015,2035,2019,2037,2069
2054,2061,2056,2022,2047,2050,2040,2071
2056,2062,2058,2033,2045,2072,2037,2085
2056,2064,2051,2031,2040,2082,2053,2076
2054,2050,2052,2029,2052,2092,2049,2075
2055,2055,2050,2031,2054,2107,2043,2075
2055,2061,2057,2043,2057,2105,2038,2061
2045,2046,2050,2032,2044,2103,2024,2061
2042,2039,2037,2024,2028,2012,2006,2063
2052,2053,2048,2027,2017,1938,1995,2067
2057,2060,2052,2031,2013,1929,2001,2064
2062,2066,2059,2039,2011,1945,1987,2061
2062,2068,2061,2039,2017,1965,2004,2058
2050,2067,2053,2042,2026,1981,2016,2061
2043,2062,2043,2040,2035,2016,2023,2063
2052,2066,2039,2044,2044,2033,2060,2066
2064,2065,2032,2038,2039,2036,2076,2064
2061,2056,2039,2035,2030,2036,2068,2056
2056,2051,2033,2041,2024,2045,2069,2053
2059,2048,2034,2045,2030,2047,2060,2053
2056,2050,2036,2038,2026,2055,2085,2056
2063,2049,2036,2038,2029,2060,2101,2062
2057,2044,2024,2030,2029,2060,2068,2050
2036,2030,2010,2016,2019,2051,2045,2035
2035,2029,2018,2015,2029,2050,2049,2040
2047,2048,2029,2029,2036,2055,2045,2043
2044,2047,2025,2020,2042,2048,2036,2040
2046,2041,2024,2026,2037,2035,2017,2040
2043,2048,2025,2032,2039,2021,2014,2044
2043,2053,2034,2036,2055,2031,2021,2043
2052,2054,2035,2044,2055,2039,2023,2058
2050,2055,2038,2050,2050,2024,2045,2060
2053,2050,2033,2050,2057,2034,2038,2064
2049,2052,2029,2043,2052,2055,2045,2068
2045,2046,2022,2041,2053,2062,2059,2069
2040,2048,2032,2037,2058,2066,2063,2071
2043,2060,2054,2043,2047,2079,2065,2079
2048,2065,2065,2036,2027,2080,2060,2084
2051,2068,2067,2029,1988,2058,2051,2084
2052,2060,2056,2005,1943,2009,2041,2084
2045,2045,2043,2004,1940,1981,2045,2091
2048,2057,2042,2013,1964,1954,2029,2080
2048,2053,2038,2022,1986,1974,2028,2073
2054,2054,2041,2037,2001,2006,2025,2065
2057,2055,2044,2044,1999,2044,2010,2056
2047,2050,2041,2027,1973,2061,2021,2043
2039,2052,2037,2016,1967,2046,2036,2042
2036,2044,2039,2026,1994,2029,2034,2045
2045,2043,2040,2035,2026,2045,2039,2040
2043,2041,2045,2040,2022,2069,2037,2038
2040,2046,2052,2034,2023,2064,2031,2034
2049,2049,2045,2033,2028,2046,2049,2043
2050,2054,2051,2032,2017,2024,2051,2043
2049,2049,2054,2028,2025,2044,2053,2043
2045,2050,2050,2032,2033,2056,2059,2043
2052,2043,2039,2022,2030,2074,2068,2030
2039,2031,2032,2023,2046,2092,2062,2034
2051,2048,2036,2045,2069,2097,2077,2045
2066,2057,2044,2045,2052,2094,2079,2046
2060,2060,2052,2053,2064,2098,2089,2053
2065,2059,2052,2068,2128,2098,2069,2054
2058,2059,2056,2076,2152,2085,2044,2058
2054,2056,2056,2073,2131,2047,2049,2056
2059,2051,2045,2061,2083,2019,2060,2065
2053,2056,2040,2054,2051,2009,2074,2065
2061,2046,2037,2055,2042,2007,2068,2063
2057,2046,2041,2048,2025,2026,2052,2062
2049,2041,2036,2024,1969,2019,2035,2056
2045,2040,2031,2016,1989,2031,2042,2066
2041,2046,2038,2049,2035,2068,2052,2060
2047,2048,2034,2060,2064,2067,2047,2072
2052,2045,2026,2061,2073,2026,2065,2069
2041,2031,2014,2053,2074,2035,2061,2067
2036,2036,2024,2046,2059,2055,2092,2074
2053,2045,2024,2037,2058,2064,2091,2080
2054,2053,2029,2029,2042,2055,2083,2078
2056,2059,2029,2028,2036,2064,2085,2078
2064,2056,2036,2028,2028,2074,2075,2068
2067,2060,2050,2033,2029,2092,2084,2058
2069,2057,2058,2039,2035,2109,2082,2055
2067,2057,2058,2040,2032,2125,2057,2052
2052,2051,2063,2040,2020,2140,2065,2040
2052,2055,2074,2049,2056,2103,2060,2033
2056,2059,2082,2060,2053,1976,2042,2038
2060,2060,2084,2062,2039,1953,2033,2042
2059,2056,2084,2056,2025,1994,2047,2039
2057,2054,2083,2052,2009,2010,2041,2036
2056,2048,2059,2058,1989,1990,2024,2022
2035,2026,2048,2044,1985,1979,2015,2017
2034,2032,2058,2058,2022,2008,2048,2027
2054,2056,2080,2088,2075,2035,2060,2038
2055,2058,2080,2084,2071,2031,2049,2032
2055,2055,2064,2075,2069,2031,2052,2046
2053,2048,2053,2062,2061,2043,2053,2039
2058,2039,2035,2053,2046,2028,2068,2044
2049,2038,2018,2019,2029,2021,2067,2043
2056,2033,2006,2005,2028,2031,2064,2051
2060,2028,2012,2004,2030,2048,2057,2065
2057,2033,2024,2017,2040,2062,2074,2061
2059,2038,2028,2025,2041,2064,2076,2069
2055,2037,2039,2026,2046,2054,2067,2070
2058,2042,2032,2023,2040,2048,2057,2072
2054,2041,2031,2022,2041,2052,2048,2078
2052,2041,2022,2018,2028,2043,2046,2076
2042,2022,2006,2011,2017,1999,2042,2071
2041,2020,2006,2013,2015,1985,2046,2079
2052,2039,2014,2021,2018,2004,2049,2070
2062,2030,2014,2021,2019,2020,2037,2063
2058,2037,2020,2019,2021,2039,2045,2059
2058,2037,2024,2021,2024,2061,2055,2061
2063,2036,2032,2022,2020,2097,2050,2047
2060,2032,2031,2023,2028,2124,2070,2048
2064,2034,2039,2029,2037,2110,2057,2046
2068,2038,2051,2043,2036,2088,2031,2042
2061,2041,2054,2046,2039,2078,2040,2034
2059,2041,2058,2051,2054,2066,2048,2028
2066,2046,2064,2046,2043,2050,2034,2025
2059,2044,2060,2035,2036,2038,2031,2032
2063,2042,2057,2030,2038,2043,2042,2033
2059,2044,2055,2021,2043,2047,2037,2022
2053,2032,2038,2018,2034,2041,2027,2028
2050,2034,2039,2018,2046,2054,2033,2037
2067,2048,2051,2035,2053,2059,2034,2038
2065,2046,2045,2034,2055,2058,2054,2038
2064,2046,2040,2042,2057,2055,2050,2044
2059,2041,2035,2040,2066,2057,2059,2042
2060,2037,2035,2041,2067,2057,2059,2040
2056,2035,2019,2047,2069,2054,2061,2046
2055,2035,2012,2048,2065,2054,2051,2043
2052,2028,2010,2051,2066,2042,2042,2048
2042,2022,2005,2044,2050,2037,2038,2045
2041,2019,1998,2044,2042,2030,2038,2048
2040,2019,2002,2034,2019,2032,2024,2049
2045,2019,2008,2039,2011,2033,2037,2054
2038,2023,2008,2045,2021,2045,2047,2056
2047,2035,2022,2045,2033,2050,2053,2058
2047,2029,2006,2040,2036,2056,2048,2063
2051,2039,2021,2045,2032,2056,2058,2068
2061,2049,2036,2060,2041,2065,2041,2064
2063,2044,2031,2049,2037,2060,2048,2067
2056,2034,2030,2024,2019,2050,2061,2058
2062,2032,2044,2027,2001,2047,2045,2050
2058,2027,2067,2031,2007,2067,2033,2036
2051,2028,2079,2043,2010,2066,2020,2027
2057,2037,2101,2050,2020,2070,2045,2031
2054,2054,2120,2053,2014,2070,2039,2021
2060,2054,2112,2058,2021,2036,2037,2034
2061,2058,2114,2082,2105,1999,2037,2044
2072,2070,2109,2087,2135,2024,2057,2049
2066,2067,2090,2074,2129,2051,2076,2039
2068,2066,2085,2078,2138,2057,2053,2037
2067,2067,2076,2078,2128,2053,2052,2025
2053,2047,2056,2063,2102,2046,2038,2022
2046,2042,2043,2056,2084,2047,2056,2026
2060,2057,2059,2058,2069,2047,2052,2034
2059,2053,2057,2044,1991,2035,2054,2035
2059,2050,2058,2032,1909,2019,2058,2029
2059,2049,2071,2042,1944,2026,2045,2028
2058,2050,2082,2047,1984,2024,2051,2035
2051,2051,2083,2046,1997,2010,2041,2036
2047,2048,2072,2029,1973,1991,2028,2036
2049,2052,2073,2026,1961,1987,2035,2044
2048,2053,2070,2024,1967,1990,2042,2046
2051,2045,2065,2024,1973,1999,2052,2060
2058,2050,2066,2034,2002,2040,2086,2072
2064,2054,2064,2057,2040,2076,2104,2080
2066,2052,2059,2060,2085,2106,2082,2083
2061,2046,2051,2058,2091,2122,2091,2074
2048,2033,2036,2037,2060,2096,2076,2068
2039,2027,2029,2033,2043,2062,2062,2062
2050,2037,2034,2045,2040,2014,2069,2064
2047,2029,2031,2043,2040,2020,2077,2057
2047,2033,2024,2036,2039,2034,2086,2055
2047,2034,2033,2030,2046,2046,2064,2042
2048,2033,2029,2027,2044,2088,2074,2045
2052,2032,2023,2020,2040,2106,2076,2043
2056,2040,2021,2012,2036,2083,2059,2037
2056,2042,2024,2012,2036,2084,2071,2039
2060,2040,2037,2023,2041,2126,2070,2032
2056,2036,2040,2033,2058,2165,2075,2026
2048,2028,2039,2034,2048,2143,2056,2021
2041,2031,2047,2038,2048,2037,2051,2010
2047,2044,2060,2043,2036,1958,2056,2011
2056,2049,2054,2036,2029,1964,2043,2010
2039,2032,2036,2027,2023,1972,2015,2011
2038,2030,2034,2032,2024,2002,2013,2024
2051,2042,2043,2045,2031,2012,2045,2024
2053,2042,2044,2048,2022,2019,2056,2031
2052,2052,2042,2045,2029,2014,2078,2031
2056,2051,2049,2045,2018,2008,2066,2036
2058,2045,2048,2042,2046,2024,2068,2038
2052,2043,2047,2044,2063,2037,2045,2050
2055,2046,2050,2049,2059,2052,2049,2054
2052,2042,2042,2048,2056,2060,2070,2055
2053,2042,2045,2050,2058,2072,2073,2061
2046,2042,2041,2047,2064,2064,2063,2060
2047,2038,2043,2048,2050,2058,2066,2061
2045,2038,2047,2045,2050,2061,2049,2067
2045,2041,2051,2044,2048,2077,2062,2064
2041,2043,2056,2037,2036,2052,2021,2059
2037,2031,2053,2032,2034,2034,2027,2055
2034,2031,2055,2037,2039,2046,2045,2069
2052,2057,2059,2043,2042,2047,2029,2067
2056,2059,2060,2047,2047,2042,2032,2065
2056,2057,2056,2048,2054,2046,2053,2054
2053,2048,2052,2044,2046,2037,2070,2052
2049,2047,2054,2047,2040,2047,2059,2048
2051,2046,2064,2052,2039,2061,2061,2047
2056,2059,2067,2059,2040,2069,2062,2055
2062,2058,2070,2062,2052,2078,2084,2049
2061,2062,2072,2064,2053,2079,2071,2045
2064,2060,2068,2067,2050,2073,2050,2040
2062,2058,2064,2064,2046,2051,2038,2039
2059,2057,2058,2063,2031,2026,2021,2033
2056,2050,2060,2058,2023,2010,2031,2031
2058,2051,2046,2055,2026,2016,2026,2027
2049,2038,2041,2047,2038,2022,2053,2028
2045,2047,2051,2059,2046,2015,2047,2040
2060,2057,2065,2066,2037,2013,2033,2037
2058,2062,2060,2068,2035,2019,2043,2035
2061,2059,2061,2064,2038,2019,2024,2038
2057,2059,2059,2058,2041,2037,2041,2044
2067,2069,2053,2047,2034,2040,2045,2049
2062,2060,2045,2038,2040,2039,2060,2058
2061,2060,2050,2036,2036,2040,2050,2060
2064,2066,2050,2037,2044,2035,2068,2063
2060,2058,2051,2038,2038,2035,2074,2062
2060,2048,2043,2035,2040,2038,2063,2060
2045,2040,2038,2032,2032,2039,2060,2059
2045,2039,2041,2037,2032,2038,2035,2060
2047,2045,2048,2043,2024,2042,2039,2074
2048,2052,2050,2049,2037,2039,2035,2069
2041,2039,2038,2046,2049,2018,2010,2061
2044,2040,2038,2050,2050,2012,2030,2066
2057,2061,2051,2057,2056,2023,2029,2080
2067,2065,2042,2055,2052,2021,2042,2067
2068,2063,2043,2053,2045,2037,2072,2066
2058,2064,2043,2051,2042,2038,2075,2053
2053,2053,2042,2049,2042,2024,2068,2047
2055,2056,2041,2050,2044,2019,2064,2048
2053,2055,2044,2056,2044,2043,2070,2044
2051,2050,2042,2054,2044,2062,2085,2039
2051,2048,2038,2047,2036,2054,2080,2039
2049,2055,2035,2043,2022,2025,2047,2029
2047,2049,2033,2037,2020,2009,2037,2027
2048,2044,2028,2038,2013,2020,2027,2024
2042,2042,2028,2039,2013,2027,2026,2026
2049,2039,2026,2043,2048,2030,2016,2022
2032,2028,2019,2038,2051,2032,1998,2025
2037,2020,2013,2047,2059,2052,2037,2029
2049,2037,2025,2051,2054,2069,2062,2032
2044,2037,2024,2051,2019,2053,2055,2035
2043,2038,2027,2038,2013,2045,2067,2038
2053,2036,2019,2034,2012,2047,2069,2049
2051,2037,2020,2024,1981,2033,2053,2044
2041,2028,2009,2006,1981,2029,2086,2041
2040,2038,2024,2033,2040,2058,2088,2052
2044,2053,2041,2058,2068,2069,2088,2065
2051,2055,2047,2058,2068,2060,2080,2076
2056,2054,2043,2057,2066,2056,2080,2075
2056,2054,2046,2056,2067,2053,2062,2073
2057,2055,2048,2054,2048,2048,2073,2072
2049,2049,2048,2046,2040,2044,2056,2072
2037,2048,2054,2041,2029,2034,2060,2070
2046,2047,2051,2031,2022,2004,2015,2068
2030,2034,2055,2032,2035,2021,2025,2062
2032,2044,2067,2050,2061,2074,2041,2063
2050,2065,2083,2068,2081,2107,2068,2067
2057,2070,2084,2077,2080,2124,2050,2062
2057,2068,2080,2069,2066,2123,2044,2050
2056,2063,2073,2058,2057,2132,2054,2051
2048,2055,2069,2049,2050,2139,2045,2043
2046,2050,2054,2044,2050,2089,2044,2032
2049,2047,2048,2040,2046,1966,2040,2025
2045,2046,2048,2037,2035,1969,2044,2030
2044,2042,2050,2036,2034,2012,2056,2027
2044,2039,2046,2035,2029,2030,2053,2035
2040,2034,2043,2032,2035,2031,2046,2030
2044,2029,2036,2036,2032,2015,2044,2034
2053,2038,2043,2042,2035,1990,2034,2043
2060,2044,2047,2054,2026,1979,2031,2045
2049,2031,2040,2045,2020,1988,2031,2035
2046,2031,2044,2045,2013,2010,2016,2030
2043,2041,2057,2048,2031,2031,2038,2037
2052,2046,2063,2056,2033,2038,2046,2044
2058,2061,2066,2061,2040,2050,2063,2049
2063,2068,2072,2067,2041,2058,2040,2050
2060,2063,2074,2066,2043,2051,2045,2048
2057,2060,2072,2059,2039,2037,2062,2053
2054,2055,2064,2044,2038,2048,2065,2050
2053,2054,2062,2054,2056,2100,2074,2056
2058,2055,2060,2055,2090,2148,2069,2057
2050,2060,2061,2058,2065,2115,2045,2058
2051,2055,2051,2059,2031,2079,2035,2058
2041,2045,2043,2050,2011,2040,2016,2063
2043,2042,2051,2049,2027,2025,2045,2076
2049,2045,2057,2063,2066,2036,2062,2085
2055,2051,2055,2068,2088,2050,2068,2079
2048,2027,2044,2063,2088,2047,2078,2077
2037,2024,2033,2053,2082,2056,2049,2076
2042,2040,2045,2062,2077,2068,2050,2067
2045,2045,2050,2064,2069,2069,2051,2061
2039,2041,2046,2057,2063,2063,2044,2057
2041,2046,2049,2057,2061,2055,2036,2060
2046,2041,2044,2062,2060,2050,2047,2052
2043,2036,2044,2064,2048,2045,2048,2051
2051,2042,2045,2063,2052,2044,2043,2052
2062,2043,2043,2055,2052,2042,2044,2048
2055,2047,2048,2056,2046,2031,2035,2042
2049,2043,2050,2054,2034,2030,2033,2044
2050,2042,2041,2043,2021,2032,2029,2036
2039,2040,2038,2040,2025,2041,2032,2026
2033,2032,2034,2051,2028,2041,2026,2029
2035,2037,2031,2049,2026,2045,2045,2032
2038,2029,2030,2040,2012,2030,2032,2019
2029,2011,2015,2033,2009,2025,2025,2018
2032,2014,2019,2034,2027,2038,2054,2036
2048,2040,2028,2036,2024,2033,2042,2042
2051,2058,2034,2048,2036,2035,2058,2049
2060,2059,2037,2058,2044,2036,2041,2062
2062,2057,2044,2060,2044,2024,2048,2060
2064,2060,2049,2057,2053,2031,2050,2062
2068,2057,2048,2053,2047,2043,2069,2060
2053,2052,2047,2063,2047,2054,2064,2052
2051,2052,2046,2065,2041,2054,2063,2056
2049,2050,2054,2067,2049,2060,2059,2076
2055,2046,2056,2069,2044,2061,2050,2076
2059,2051,2063,2064,2045,2042,2052,2070
2048,2047,2065,2058,2035,1974,2045,2060
2030,2043,2070,2064,2035,1978,2045,2060
2037,2052,2071,2068,2036,2011,2042,2063
2037,2046,2071,2060,2034,2035,2030,2052
2028,2035,2060,2055,2029,2064,2035,2044
2030,2051,2069,2064,2041,2054,2061,2054
2042,2054,2074,2060,2054,2041,2047,2058
2045,2059,2075,2062,2059,2038,2040,2067
2049,2056,2072,2064,2059,2050,2050,2065
2045,2050,2067,2065,2057,2052,2051,2057
2045,2053,2064,2060,2055,2060,2054,2052
2057,2056,2055,2053,2056,2067,2072,2054
2056,2050,2047,2040,2052,2068,2073,2039
2047,2043,2042,2029,2043,2063,2058,2034
2039,2043,2043,2028,2058,2060,2059,2039
2044,2042,2045,2032,2056,2046,2052,2038
2048,2045,2042,2032,2047,2034,2051,2042
2043,2041,2032,2029,2045,2029,2033,2027
2044,2035,2030,2032,2056,2041,2045,2026
2042,2044,2039,2035,2047,2036,2049,2021
2033,2035,2037,2029,2039,2038,2035,2022
2029,2033,2042,2034,2051,2046,2042,2032
2050,2054,2058,2049,2059,2055,2060,2039
2046,2061,2067,2052,2051,2054,2039,2039
2052,2057,2067,2057,2051,2047,2054,2048
2054,2051,2064,2055,2051,2048,2071,2045
2045,2056,2062,2059,2051,2047,2052,2045
2042,2052,2065,2056,2048,2046,2046,2046
2043,2048,2071,2054,2050,2048,2059,2047
2050,2055,2073,2052,2055,2063,2054,2052
2045,2050,2071,2056,2054,2066,2062,2059
2048,2049,2069,2049,2054,2059,2056,2065
2042,2049,2068,2052,2049,2048,2063,2063
2045,2049,2062,2051,2046,2039,2067,2072
2050,2051,2062,2051,2042,2044,2059,2074
2045,2052,2060,2046,2044,2047,2047,2074
2049,2050,2058,2045,2042,2045,2053,2066
2035,2033,2052,2036,2041,2042,2042,2064
2043,2041,2058,2044,2044,2052,2057,2073
