CH1,CH2,CH3,CH4,CH5,CH6,CH7,CH8
2046,2032,2014,2046,2039,2043,2039,2059
2043,2035,2031,2060,2047,2049,2048,2064
2051,2042,2043,2061,2054,2050,2044,2052
2047,2040,2044,2056,2047,2050,2045,2041
2041,2034,2038,2056,2047,2048,2041,2036
2047,2034,2037,2058,2049,2053,2052,2035
2041,2036,2037,2054,2052,2054,2039,2035
2044,2042,2041,2055,2051,2053,2074,2024
2046,2044,2042,2058,2055,2046,2065,2023
2036,2042,2040,2055,2042,2047,2048,2020
2036,2042,2035,2053,2047,2046,2069,2022
2044,2054,2044,2058,2048,2054,2059,2026
2060,2064,2059,2061,2049,2052,2051,2020
2059,2058,2048,2056,2053,2043,2036,2020
2050,2048,2042,2050,2058,2048,2027,2029
2058,2055,2043,2050,2059,2051,2036,2030
2052,2047,2039,2045,2052,2050,2033,2033
2054,2052,2034,2040,2051,2043,2041,2035
2049,2053,2030,2036,2045,2034,2032,2033
2052,2053,2028,2035,2044,2037,2039,2033
2053,2048,2020,2034,2057,2048,2029,2043
2059,2046,2025,2039,2055,2053,2033,2046
2052,2046,2029,2045,2057,2051,2034,2054
2050,2043,2031,2042,2050,2043,2039,2052
2050,2043,2032,2047,2047,2050,2059,2073
2054,2050,2035,2048,2049,2052,2037,2074
2061,2050,2039,2048,2047,2045,2058,2080
2055,2054,2036,2048,2046,2044,2059,2074
2060,2053,2048,2047,2048,2040,2054,2069
2047,2041,2040,2044,2039,2032,2043,2068
2047,2043,2038,2044,2042,2038,2036,2069
2056,2053,2046,2049,2046,2044,2052,2070
2054,2051,2043,2048,2047,2039,2052,2082
2056,2045,2035,2050,2053,2035,2058,2069
2057,2045,2045,2049,2055,2037,2042,2064
2056,2054,2054,2052,2053,2039,2047,2065
2059,2052,2051,2045,2047,2033,2038,2049
2061,2041,2048,2044,2038,2038,2044,2041
2057,2055,2048,2051,2042,2037,2049,2036
2060,2051,2047,2048,2042,2041,2067,2037
2053,2047,2046,2044,2036,2035,2067,2034
2051,2049,2054,2047,2052,2041,2059,2034
2052,2053,2047,2049,2045,2044,2040,2032
2057,2056,2053,2056,2044,2053,2027,2034
2058,2060,2046,2052,2051,2050,2051,2025
2046,2047,2039,2039,2050,2048,2035,2021
2041,2043,2037,2037,2040,2051,2050,2022
2048,2047,2047,2044,2049,2064,2060,2028
2055,2047,2042,2044,2050,2061,2074,2043
2056,2045,2039,2037,2048,2057,2073,2032
2055,2040,2038,2041,2047,2051,2074,2040
2056,2051,2040,2045,2053,2056,2069,2044
2053,2047,2035,2041,2052,2055,2077,2042
2051,2047,2030,2047,2051,2045,2072,2042
2051,2044,2038,2052,2052,2050,2074,2040
2047,2044,2044,2065,2064,2052,2071,2042
2047,2043,2036,2068,2064,2054,2081,2051
2048,2040,2036,2064,2068,2057,2071,2056
2049,2035,2036,2073,2061,2054,2064,2053
2044,2030,2029,2073,2056,2046,2037,2058
2039,2028,2036,2072,2061,2044,2053,2052
2037,2021,2031,2068,2054,2037,2055,2059
2031,2021,2032,2066,2044,2040,2048,2064
2026,2034,2044,2072,2054,2045,2057,2062
2035,2042,2048,2076,2059,2046,2048,2064
2037,2047,2049,2069,2056,2047,2042,2058
2048,2042,2050,2060,2051,2046,2052,2061
2045,2036,2042,2049,2042,2034,2057,2047
2039,2026,2029,2029,2032,2028,2053,2042
2039,2030,2025,2011,2023,2031,2036,2038
2042,2030,2029,2011,2027,2030,2044,2034
2034,2038,2043,2009,2028,2030,2064,2034
2041,2040,2054,2005,2035,2029,2072,2032
2045,2048,2049,1997,2038,2034,2064,2034
2049,2044,2033,2003,2038,2038,2059,2030
2048,2046,2031,2006,2044,2044,2074,2028
2050,2042,2030,2018,2045,2046,2054,2034
2054,2042,2033,2016,2043,2043,2059,2032
2046,2041,2032,2018,2040,2044,2064,2026
2052,2047,2041,2030,2052,2044,2059,2039
2056,2053,2045,2036,2044,2043,2066,2033
2055,2052,2050,2039,2051,2048,2064,2035
2062,2046,2049,2045,2050,2047,2066,2038
2056,2050,2054,2047,2051,2043,2070,2037
2057,2046,2061,2054,2056,2050,2062,2046
2049,2049,2074,2058,2059,2051,2064,2048
2054,2053,2077,2064,2058,2048,2054,2054
2057,2052,2085,2056,2067,2050,2063,2060
2053,2047,2079,2048,2069,2046,2040,2067
2054,2042,2066,2042,2064,2052,2063,2070
2045,2036,2057,2044,2058,2048,2056,2068
2043,2039,2053,2049,2054,2045,2059,2068
2043,2034,2051,2048,2057,2045,2050,2073
2043,2033,2045,2051,2047,2040,2042,2066
2034,2029,2033,2043,2045,2036,2048,2069
2039,2026,2026,2040,2041,2037,2052,2066
2044,2032,2027,2046,2042,2037,2051,2064
2051,2031,2041,2044,2046,2039,2042,2058
2054,2037,2051,2046,2049,2039,2059,2069
2054,2046,2061,2044,2050,2039,2059,2059
2057,2042,2066,2045,2042,2034,2053,2053
2057,2047,2067,2053,2049,2039,2062,2050
2050,2050,2068,2060,2056,2045,2061,2047
2055,2050,2061,2060,2055,2047,2029,2039
2052,2045,2048,2062,2057,2043,2053,2041
2049,2038,2036,2058,2046,2045,2045,2046
2050,2039,2030,2054,2041,2046,2058,2038
2045,2041,2015,2045,2045,2042,2042,2028
2046,2045,2021,2052,2049,2050,2062,2025
2052,2060,2032,2057,2056,2057,2056,2030
2047,2057,2036,2057,2055,2056,2045,2030
2047,2057,2036,2053,2058,2065,2073,2039
2056,2064,2043,2052,2062,2068,2062,2040
2048,2054,2036,2044,2058,2064,2071,2034
2044,2052,2030,2035,2046,2059,2059,2039
2044,2053,2022,2021,2050,2060,2045,2031
2046,2049,2021,2016,2037,2047,2038,2045
2050,2048,2034,2012,2029,2043,2067,2044
2046,2055,2055,2019,2031,2042,2067,2057
2057,2056,2072,2022,2044,2049,2060,2062
2058,2066,2086,2021,2051,2050,2072,2072
2055,2056,2078,2016,2038,2046,2059,2062
2049,2042,2067,2020,2040,2038,2051,2069
2035,2034,2060,2016,2026,2034,2050,2063
2030,2027,2054,2018,2032,2033,2028,2063
2036,2046,2067,2036,2049,2037,2026,2070
2045,2062,2078,2037,2053,2037,2025,2071
2041,2049,2067,2038,2049,2036,2024,2074
2033,2041,2058,2037,2059,2030,2044,2072
2040,2047,2056,2039,2061,2035,2040,2066
2039,2046,2061,2043,2060,2054,2024,2067
2039,2051,2061,2048,2054,2065,2035,2066
2045,2051,2061,2043,2045,2078,2043,2059
2053,2050,2058,2043,2038,2082,2031,2053
2053,2052,2058,2044,2047,2082,2028,2044
2057,2046,2059,2045,2047,2070,2050,2043
2053,2048,2059,2047,2040,2024,2056,2041
2060,2049,2059,2047,2026,2020,2061,2039
2055,2051,2058,2045,2021,2022,2040,2034
2049,2053,2057,2048,2014,2022,2043,2032
2049,2046,2055,2042,2002,2020,2036,2026
2053,2047,2052,2037,1984,2028,2036,2024
2051,2042,2052,2044,2011,2029,2004,2026
2042,2028,2034,2034,2034,2033,2025,2024
2042,2029,2034,2041,2052,2037,2033,2037
2051,2042,2044,2048,2072,2045,2045,2035
2058,2047,2042,2053,2065,2052,2012,2041
2052,2045,2043,2051,2046,2049,2024,2039
2053,2046,2037,2049,2049,2045,2039,2047
2054,2051,2043,2046,2060,2051,2018,2041
2053,2045,2037,2038,2043,2043,2026,2053
2047,2039,2035,2020,2027,2040,2031,2048
2049,2044,2040,2028,2050,2048,2036,2053
2046,2043,2038,2036,2041,2045,2029,2058
2041,2038,2036,2027,2025,2040,2031,2056
2045,2035,2031,2029,2031,2044,2023,2059
2044,2042,2038,2034,2028,2046,2022,2064
2039,2045,2049,2034,2020,2047,1997,2067
2044,2039,2051,2035,2012,2053,2003,2066
2032,2028,2046,2028,2017,2050,2018,2065
2035,2024,2041,2025,2027,2055,2006,2069
2039,2029,2045,2030,2050,2064,2048,2068
2045,2032,2059,2040,2078,2066,2053,2065
2044,2034,2057,2056,2095,2075,2035,2063
2042,2036,2057,2052,2096,2075,2053,2068
2049,2044,2067,2058,2094,2072,2054,2065
2046,2046,2064,2056,2080,2065,2042,2053
2047,2042,2056,2054,2070,2059,2044,2041
2049,2046,2053,2053,2060,2053,2041,2035
2044,2046,2053,2050,2049,2042,2036,2033
2047,2043,2049,2051,2050,2045,2030,2034
2045,2047,2055,2048,2041,2039,2042,2029
2042,2054,2059,2052,2014,2045,2046,2026
2046,2050,2059,2048,1993,2036,2034,2033
2047,2046,2055,2045,2013,2031,2037,2032
2043,2052,2047,2042,2031,2029,2026,2028
2039,2039,2043,2039,2047,2042,2026,2023
2042,2038,2042,2048,2059,2049,2041,2031
2045,2042,2041,2037,2049,2047,2043,2030
2046,2039,2046,2035,2047,2047,2053,2033
2042,2039,2038,2027,2046,2051,2038,2026
2044,2041,2039,2024,2046,2052,2038,2035
2046,2039,2035,2035,2045,2060,2048,2037
2045,2044,2037,2036,2050,2060,2061,2047
2053,2045,2039,2034,2045,2056,2061,2059
2053,2043,2036,2035,2044,2050,2059,2054
2051,2052,2044,2037,2050,2049,2058,2057
2052,2056,2065,2042,2050,2056,2059,2066
2052,2058,2072,2050,2053,2054,2059,2074
2045,2057,2085,2050,2046,2047,2037,2072
2045,2055,2070,2048,2039,2050,2050,2072
2045,2046,2056,2044,2039,2041,2041,2065
2045,2043,2044,2033,2033,2037,2034,2065
2037,2043,2042,2034,2036,2035,2049,2066
2047,2053,2052,2041,2043,2040,2029,2063
2050,2052,2046,2043,2038,2035,2026,2063
2042,2045,2046,2042,2036,2027,2016,2058
2049,2057,2049,2044,2033,2025,2018,2056
2047,2057,2055,2051,2031,2036,2034,2053
2044,2055,2049,2049,2026,2040,2024,2052
2039,2048,2042,2043,2034,2039,2021,2043
2039,2039,2041,2049,2034,2042,2042,2047
2045,2043,2048,2046,2044,2046,2043,2042
2047,2051,2049,2052,2050,2050,2042,2037
2042,2049,2053,2052,2047,2053,2055,2036
2047,2050,2056,2055,2048,2054,2028,2027
2052,2054,2046,2056,2048,2060,2040,2034
2047,2049,2046,2051,2044,2064,2034,2027
2049,2045,2041,2041,2038,2057,2031,2025
2039,2036,2034,2039,2037,2057,2042,2029
2035,2033,2042,2048,2043,2054,2057,2034
2054,2043,2054,2063,2046,2061,2061,2034
2053,2051,2068,2063,2047,2054,2047,2030
2047,2045,2064,2061,2041,2050,2046,2030
2045,2044,2060,2062,2047,2052,2051,2025
2039,2038,2046,2054,2047,2054,2053,2037
2036,2029,2023,2048,2046,2052,2059,2047
2038,2027,2019,2045,2041,2051,2053,2045
2033,2021,2010,2042,2040,2051,2064,2045
2038,2030,2010,2044,2045,2050,2066,2044
2037,2031,2002,2039,2040,2042,2056,2049
2035,2032,2001,2043,2038,2040,2046,2060
2041,2036,2007,2051,2046,2045,2036,2059
2041,2039,2010,2050,2051,2049,2066,2069
2037,2032,2015,2053,2054,2048,2064,2068
2040,2028,2012,2040,2040,2046,2046,2060
2033,2017,2011,2028,2034,2037,2034,2062
2024,2010,2002,2004,2023,2036,2030,2060
2031,2020,2010,1997,2025,2037,2046,2062
2033,2036,2050,2013,2034,2043,2039,2057
2037,2053,2086,2031,2042,2048,2059,2051
2044,2062,2103,2040,2046,2044,2059,2055
2055,2066,2109,2050,2047,2044,2051,2052
2048,2067,2113,2050,2045,2044,2057,2052
2054,2063,2108,2045,2046,2046,2051,2046
2059,2065,2102,2043,2045,2046,2055,2042
2057,2070,2108,2048,2045,2045,2048,2044
2059,2068,2099,2043,2036,2040,2029,2045
2050,2070,2096,2046,2039,2044,2037,2035
2055,2067,2092,2043,2032,2045,2041,2036
2053,2057,2085,2042,2029,2046,2028,2038
2047,2054,2071,2043,2029,2046,2054,2032
2045,2043,2065,2046,2026,2046,2047,2026
2044,2048,2067,2048,2035,2055,2055,2029
2051,2057,2073,2056,2048,2063,2053,2035
2051,2056,2070,2062,2046,2061,2067,2031
2049,2056,2080,2069,2046,2054,2044,2036
2050,2054,2083,2065,2048,2057,2043,2033
2046,2047,2080,2066,2043,2059,2069,2037
2049,2042,2076,2063,2044,2052,2062,2040
2043,2039,2066,2054,2054,2044,2061,2035
2037,2034,2048,2055,2050,2044,2056,2050
2044,2034,2045,2052,2047,2039,2058,2060
2038,2037,2029,2062,2054,2037,2052,2056
2041,2037,2027,2070,2050,2044,2050,2068
2053,2045,2037,2082,2056,2047,2048,2073
2058,2055,2043,2087,2060,2043,2045,2078
2058,2055,2042,2088,2060,2051,2043,2084
2054,2049,2038,2084,2064,2050,2033,2074
2049,2037,2013,2068,2054,2045,2046,2072
2044,2032,1996,2049,2051,2046,2049,2066
2044,2030,1992,2043,2049,2047,2048,2060
2041,2031,1983,2023,2042,2044,2052,2061
2038,2033,1974,2012,2032,2045,2050,2054
2043,2026,1962,2004,2033,2043,2048,2051
2039,2026,1965,1996,2030,2048,2047,2049
2033,2041,1988,1998,2032,2046,2052,2042
2037,2052,2009,2010,2038,2045,2043,2044
2042,2051,2019,2009,2034,2043,2052,2040
2038,2048,2024,2005,2037,2047,2046,2043
2044,2054,2041,2024,2042,2052,2059,2042
2047,2069,2062,2035,2049,2058,2052,2032
2053,2075,2053,2026,2050,2056,2060,2028
2046,2056,2028,2027,2050,2052,2047,2034
2038,2047,2016,2022,2052,2051,2056,2031
2045,2044,2020,2021,2040,2050,2034,2022
2034,2031,2006,2012,2032,2037,2039,2017
2030,2027,2014,2013,2034,2045,2042,2021
2044,2044,2022,2029,2050,2060,2046,2034
2054,2038,2020,2031,2043,2055,2050,2037
2055,2044,2017,2031,2051,2058,2025,2038
2050,2046,2013,2038,2050,2051,2057,2045
2054,2056,2018,2038,2045,2055,2073,2048
2051,2054,2029,2042,2050,2055,2057,2045
2047,2057,2037,2037,2051,2049,2056,2049
2044,2061,2049,2039,2043,2052,2052,2056
2040,2058,2055,2039,2045,2048,2041,2060
2044,2060,2063,2043,2045,2044,2049,2073
2047,2064,2069,2047,2048,2048,2051,2074
2053,2070,2080,2053,2048,2048,2044,2078
2051,2061,2075,2051,2050,2051,2044,2078
2051,2058,2077,2058,2062,2048,2041,2075
2048,2056,2078,2064,2054,2041,2030,2078
2038,2052,2068,2060,2051,2044,2035,2082
2042,2053,2063,2060,2041,2043,2045,2077
2040,2055,2060,2055,2043,2040,2045,2074
2048,2069,2084,2068,2037,2035,2050,2069
2054,2078,2106,2073,2030,2035,2043,2063
2055,2086,2122,2072,2029,2033,2049,2062
2055,2082,2114,2065,2027,2030,2041,2052
2056,2075,2116,2063,2015,2026,2050,2051
2057,2070,2112,2067,2024,2029,2043,2042
2051,2070,2113,2068,2043,2032,2047,2036
2054,2062,2111,2065,2051,2032,2047,2034
2053,2076,2108,2069,2040,2035,2052,2042
2062,2084,2106,2063,2042,2038,2047,2039
2065,2075,2089,2051,2046,2040,2025,2033
2058,2068,2069,2034,2037,2035,2027,2030
2052,2050,2055,2025,2038,2037,2038,2024
2041,2044,2044,2035,2044,2049,2058,2033
2043,2058,2052,2056,2052,2064,2067,2041
2054,2058,2046,2060,2060,2064,2060,2041
2055,2057,2048,2054,2061,2060,2072,2040
2052,2060,2043,2049,2056,2061,2059,2038
2054,2070,2040,2049,2054,2056,2065,2040
2055,2071,2049,2050,2044,2056,2046,2047
2048,2064,2039,2040,2022,2050,2062,2056
2052,2061,2042,2036,2047,2053,2063,2046
2047,2059,2045,2038,2072,2049,2060,2052
2047,2054,2048,2041,2057,2050,2066,2062
2046,2059,2054,2045,2058,2048,2061,2064
2046,2060,2061,2051,2038,2048,2043,2066
2044,2057,2056,2051,2030,2048,2054,2075
2050,2051,2055,2055,2032,2051,2041,2077
2051,2052,2052,2054,2028,2041,2044,2074
2049,2042,2049,2041,2038,2031,2024,2072
2044,2041,2049,2038,2057,2025,2023,2068
2045,2044,2054,2052,2116,2041,2050,2067
2041,2052,2057,2064,2137,2057,2062,2061
2051,2051,2060,2068,2153,2070,2048,2061
2058,2064,2066,2076,2171,2072,2074,2059
2057,2068,2068,2074,2154,2066,2051,2048
2059,2060,2058,2069,2124,2064,2054,2037
2058,2052,2057,2067,2083,2062,2069,2040
2056,2054,2053,2070,2037,2057,2041,2035
2041,2048,2059,2062,1936,2038,2071,2030
2049,2046,2069,2063,1929,2041,2058,2032
2049,2039,2067,2069,1972,2038,2047,2027
2051,2045,2073,2076,2003,2043,2058,2023
2045,2044,2075,2072,2014,2039,2053,2015
2037,2036,2065,2070,2027,2037,2048,1998
2026,2025,2055,2066,2041,2031,2039,2003
2022,2021,2052,2054,2037,2028,2052,2011
2033,2032,2054,2056,2045,2037,2039,2022
2037,2032,2051,2064,2072,2054,2049,2027
2047,2039,2048,2076,2084,2062,2048,2026
2056,2042,2038,2076,2076,2057,2050,2035
2053,2035,2034,2067,2061,2054,2036,2035
2043,2032,2020,2054,2055,2052,2029,2036
2035,2030,2027,2042,2046,2052,2033,2036
2042,2036,2036,2039,2044,2050,2042,2042
2045,2052,2051,2038,2031,2055,2069,2052
2050,2047,2043,2030,2040,2052,2069,2063
2055,2054,2032,2016,2035,2055,2065,2072
2061,2062,2040,2031,2048,2047,2072,2076
2064,2064,2055,2039,2045,2049,2063,2074
2059,2065,2048,2041,2055,2053,2063,2070
2059,2052,2028,2040,2052,2051,2064,2072
2051,2039,2022,2038,2049,2054,2062,2066
2047,2048,2032,2047,2043,2057,2047,2059
2052,2052,2036,2041,2035,2057,2056,2061
2053,2058,2033,2041,2048,2057,2041,2062
2059,2064,2044,2048,2045,2058,2060,2060
2056,2059,2038,2042,2043,2056,2062,2054
2054,2056,2038,2042,2035,2043,2058,2047
2049,2048,2033,2033,2038,2031,2037,2042
2044,2042,2021,2025,2038,2028,2055,2038
2049,2045,2028,2028,2038,2040,2046,2035
2050,2051,2038,2046,2042,2052,2037,2036
2056,2063,2064,2056,2049,2054,2036,2034
2045,2056,2077,2052,2035,2049,2048,2035
2043,2047,2079,2054,2025,2043,2055,2031
2045,2052,2075,2054,2015,2048,2048,2031
2046,2056,2074,2046,2008,2042,2050,2025
2036,2041,2064,2040,1999,2045,2057,2028
2036,2049,2063,2053,2009,2047,2061,2031
2050,2056,2072,2059,2000,2046,2066,2032
2046,2063,2067,2059,2014,2058,2066,2037
2049,2063,2060,2064,2027,2065,2048,2039
2050,2065,2059,2064,2029,2066,2047,2050
2056,2065,2065,2067,2033,2065,2072,2048
2051,2070,2065,2065,2035,2065,2067,2051
2046,2067,2065,2061,2040,2067,2057,2052
2049,2061,2061,2052,2048,2057,2040,2052
2047,2062,2053,2041,2075,2057,2044,2062
2045,2047,2044,2045,2097,2063,2079,2068
2048,2043,2037,2040,2111,2076,2059,2076
2051,2050,2037,2035,2101,2065,2063,2078
2048,2043,2034,2037,2095,2063,2049,2075
2048,2047,2028,2047,2076,2057,2030,2076
2040,2030,2029,2053,2079,2063,2032,2070
2040,2031,2026,2058,2089,2064,2036,2072
2046,2040,2033,2064,2096,2069,2033,2081
2057,2048,2039,2058,2062,2057,2053,2081
2060,2047,2028,2038,2010,2045,2053,2065
2055,2037,2022,2018,1950,2010,2023,2059
2056,2044,2025,2021,1916,1976,2034,2052
2053,2043,2023,2023,1945,1978,2032,2040
2047,2035,2016,2024,1992,2008,2050,2025
2035,2027,2017,2028,2031,2034,2045,2020
2034,2020,2025,2043,2051,2049,2044,2025
2033,2031,2034,2052,2061,2056,2050,2024
2042,2035,2037,2050,2065,2058,2051,2028
2038,2026,2030,2041,2040,2046,2052,2021
2031,2018,2032,2029,2008,2030,2034,2021
2036,2026,2038,2035,1999,2024,2016,2020
2032,2020,2040,2039,2015,2014,2020,2017
2027,2022,2032,2040,2009,2015,2043,2017
2038,2028,2030,2037,2014,2022,2041,2029
2047,2036,2028,2029,1992,2024,2051,2034
2041,2031,2028,2015,1984,2018,2038,2026
2032,2026,2027,2004,1984,2020,2037,2032
2041,2026,2030,2016,2051,2041,2059,2040
2046,2045,2057,2036,2091,2047,2054,2051
2053,2053,2068,2041,2069,2046,2054,2059
2059,2054,2057,2043,2058,2043,2051,2059
2059,2057,2054,2049,2045,2049,2059,2064
2054,2056,2039,2058,2017,2040,2045,2072
2059,2052,2035,2043,2003,2028,2038,2071
2062,2053,2029,2039,1990,2013,2014,2078
2055,2051,2028,2032,1981,2015,2015,2073
2054,2049,2036,2043,2043,2060,2057,2085
2055,2045,2039,2052,2069,2063,2043,2081
2046,2034,2043,2065,2062,2046,2045,2078
2047,2037,2039,2062,2028,2038,2066,2074
2036,2039,2041,2058,2035,2045,2057,2069
2033,2042,2056,2074,2100,2045,2040,2073
2043,2044,2073,2080,2131,2050,2061,2068
2053,2055,2086,2087,2141,2067,2036,2067
2050,2054,2080,2094,2147,2069,2034,2055
2047,2047,2071,2072,2157,2069,2048,2039
2036,2031,2061,2056,2146,2064,2056,2039
2042,2041,2069,2049,2129,2064,2054,2043
2046,2050,2098,2067,2138,2068,2057,2040
2051,2068,2109,2076,2136,2078,2069,2043
2058,2063,2091,2057,2071,2080,2049,2043
2053,2054,2066,2049,2025,2079,2043,2029
2051,2045,2056,2036,2036,2062,2048,2022
2046,2040,2053,2034,1983,2034,2024,2018
2023,2030,2040,2031,1939,1999,1998,2019
2031,2039,2043,2027,1907,1980,2009,2030
2042,2040,2032,1985,1839,1963,2026,2026
2032,2030,2016,1950,1804,1952,2021,2029
2041,2025,2018,1961,1861,1977,2039,2036
2046,2037,2030,1991,1930,2032,2047,2043
2064,2060,2061,2035,2034,2082,2074,2056
2067,2065,2065,2062,2090,2104,2084,2055
2059,2056,2058,2068,2115,2119,2075,2057
2053,2051,2054,2075,2117,2111,2067,2055
2046,2049,2054,2072,2096,2097,2051,2064
2051,2052,2059,2062,2084,2065,2041,2061
2045,2050,2060,2054,2074,2012,2036,2060
2037,2043,2057,2044,2070,2013,2034,2068
2046,2040,2046,2043,2056,2028,2036,2078
2044,2041,2035,2048,2045,2028,2031,2073
2036,2031,2030,2044,2045,2035,2022,2068
2035,2021,2020,2050,2043,2041,2035,2071
2045,2027,2033,2064,2044,2042,2033,2070
2044,2028,2052,2081,2042,2036,2047,2063
2038,2030,2062,2087,2039,2031,2033,2053
2045,2037,2067,2093,2038,2033,2038,2049
2052,2041,2062,2095,2040,2034,2054,2042
2055,2048,2057,2100,2043,2044,2045,2048
2053,2044,2066,2127,2043,2057,2048,2049
2058,2045,2076,2145,2049,2059,2065,2040
2055,2037,2076,2150,2053,2061,2056,2043
2051,2038,2076,2156,2057,2058,2051,2036
2044,2036,2069,2143,2057,2065,2043,2021
2040,2030,2064,2133,2059,2068,2060,2013
2041,2038,2073,2125,2050,2058,2056,2024
2042,2048,2069,2110,2041,2049,2053,2021
2048,2046,2057,2079,2028,2043,2037,2020
2043,2048,2050,2048,2022,2041,2025,2028
2050,2061,2061,2049,2036,2052,2043,2040
2066,2080,2082,2056,2051,2062,2045,2040
2077,2088,2073,2047,2054,2065,2073,2036
2076,2087,2051,2023,2048,2062,2049,2036
2065,2071,2037,2002,2027,2050,2065,2038
2060,2064,2048,1981,2014,2044,2059,2046
2056,2057,2051,1976,2016,2040,2045,2051
2057,2065,2066,1976,2021,2041,2050,2054
2065,2071,2062,1983,2028,2047,2048,2065
2062,2068,2053,1990,2033,2051,2056,2071
2065,2063,2052,1998,2039,2054,2051,2071
2060,2059,2048,2014,2051,2053,2049,2082
2063,2053,2041,2026,2064,2059,2050,2072
2059,2049,2046,2033,2060,2055,2043,2079
2054,2045,2043,2035,2065,2054,2036,2074
2052,2036,2034,2034,2038,2043,2031,2072
2049,2041,2036,2038,2033,2055,2042,2076
2064,2050,2042,2052,2058,2060,2049,2074
2061,2052,2043,2051,2094,2065,2051,2060
2059,2057,2047,2054,2115,2070,2047,2065
2062,2052,2048,2040,2085,2072,2052,2062
2063,2056,2044,2029,2047,2080,2052,2055
2064,2058,2044,2029,2004,2086,2032,2049
2063,2052,2051,2034,2064,2098,2051,2054
2066,2054,2055,2041,2097,2101,2045,2049
2062,2049,2040,2031,2078,2092,2050,2047
2057,2045,2038,2021,2045,2074,2048,2040
2057,2036,2040,2030,2046,2086,2069,2037
2067,2043,2040,2036,2032,2085,2070,2040
2065,2043,2042,2032,1991,2058,2064,2034
2065,2048,2043,2020,1921,2011,2052,2033
2052,2041,2039,1996,1846,1970,2031,2025
2051,2039,2039,2009,1906,1978,2048,2024
2058,2054,2057,2036,1974,2005,2064,2026
2061,2055,2050,2035,2023,2017,2053,2029
2061,2056,2052,2041,2030,2025,2063,2036
2054,2053,2050,2043,2048,2026,2038,2040
2057,2046,2053,2055,2098,2028,2058,2042
2060,2056,2056,2062,2091,2034,2060,2049
2057,2058,2060,2061,2071,2039,2071,2057
2065,2049,2055,2068,2090,2057,2081,2065
2062,2050,2056,2086,2113,2065,2067,2058
2061,2043,2053,2073,2061,2048,2061,2064
2062,2047,2054,2069,2061,2056,2046,2069
2063,2053,2062,2062,2040,2067,2057,2072
2050,2047,2056,2052,2023,2072,2044,2068
2043,2039,2044,2040,2049,2070,2042,2067
2028,2017,2015,2011,2044,2072,2049,2056
2022,2006,2004,2036,2120,2080,2022,2054
2026,2007,2011,2059,2206,2096,2035,2050
2031,2017,2021,2074,2239,2106,2061,2063
2035,2035,2030,2071,2264,2102,2050,2053
2040,2039,2033,2072,2250,2071,2031,2054
2040,2030,2028,2057,2177,2011,2038,2053
2045,2031,2022,2049,2047,1983,2031,2041
2042,2031,2023,2038,1861,1973,2036,2029
2049,2035,2018,2048,1828,1992,2042,2029
2043,2027,2019,2062,1903,2012,2053,2027
2047,2029,2020,2063,1954,2023,2046,2033
2054,2028,2026,2050,1942,2013,2045,2033
2049,2035,2027,2030,1964,2019,2043,2033
2045,2037,2033,2031,1988,2029,2055,2033
2047,2042,2040,2036,1991,2039,2055,2025
2051,2034,2034,2027,1989,2046,2046,2023
2042,2029,2028,2036,1988,2054,2054,2024
2048,2037,2041,2053,2061,2068,2050,2021
2042,2034,2036,2061,2097,2062,2052,2018
2032,2031,2032,2060,2104,2060,2045,2024
2046,2036,2032,2072,2123,2076,2054,2027
2060,2056,2051,2078,2110,2089,2058,2034
2064,2058,2054,2085,2072,2085,2069,2034
2062,2050,2052,2071,2043,2080,2060,2046
2059,2050,2042,2053,2044,2066,2068,2051
2054,2043,2033,2030,1999,2052,2071,2049
2054,2042,2023,2036,1988,2043,2063,2050
2048,2037,2014,2028,1963,2026,2067,2056
2038,2026,2006,2026,2005,2016,2060,2060
2043,2038,2020,2028,2052,2027,2059,2064
2043,2046,2028,2048,2129,2058,2081,2069
2037,2041,2019,2067,2235,2080,2064,2070
2034,2030,2012,2070,2305,2093,2064,2071
2034,2029,2008,2064,2275,2099,2050,2067
2038,2029,2018,2055,2218,2091,2045,2055
2035,2035,2032,2051,2153,2079,2042,2054
2032,2034,2048,2033,2021,2061,2044,2035
2025,2032,2050,2008,1859,2003,2006,2036
2021,2025,2050,1997,1823,1979,2013,2032
2032,2038,2063,2016,1845,2003,2024,2031
2040,2042,2072,2034,1903,2016,2042,2029
2046,2046,2081,2042,1891,2012,2047,2025
2051,2070,2092,2026,1883,2010,2060,2033
2056,2072,2096,2036,1947,2029,2072,2032
2058,2070,2093,2050,2005,2045,2063,2028
2056,2068,2094,2065,1997,2042,2065,2033
2063,2069,2087,2056,1959,2010,2054,2021
2053,2053,2061,2023,1910,1991,2040,2014
2047,2041,2041,1998,1896,1984,2026,2020
2052,2045,2044,2012,1906,1998,2041,2030
2061,2045,2050,2038,1950,2017,2050,2036
2052,2053,2061,2047,2007,2026,2042,2029
2050,2059,2055,2057,2060,2038,2045,2035
2056,2050,2053,2053,2055,2038,2050,2029
2055,2046,2052,2048,2066,2037,2048,2033
2046,2045,2048,2065,2126,2051,2061,2034
2039,2031,2049,2068,2116,2060,2066,2040
2042,2035,2042,2070,2093,2061,2058,2038
2038,2038,2045,2066,2079,2058,2057,2046
2039,2044,2050,2062,2059,2052,2044,2057
2043,2047,2048,2068,2075,2069,2058,2064
2042,2042,2047,2067,2104,2073,2061,2056
2038,2050,2056,2077,2125,2068,2046,2063
2042,2050,2045,2078,2140,2062,2035,2051
2027,2036,2039,2074,2147,2046,2038,2048
2030,2039,2040,2074,2114,2022,2049,2066
2044,2049,2042,2073,2104,2040,2065,2074
2052,2057,2054,2070,2099,2052,2069,2063
2053,2057,2050,2067,2086,2047,2062,2063
2053,2051,2047,2060,2077,2055,2063,2056
2048,2053,2044,2066,2084,2065,2052,2050
2056,2054,2048,2070,2106,2068,2064,2049
2055,2057,2054,2066,2079,2062,2033,2040
2046,2051,2053,2062,2069,2062,2056,2034
2040,2055,2055,2068,2090,2064,2064,2035
2054,2065,2061,2074,2134,2071,2056,2039
2054,2064,2068,2090,2151,2087,2074,2046
2060,2071,2068,2100,2176,2117,2086,2046
2060,2062,2058,2104,2222,2130,2087,2048
2056,2060,2043,2105,2249,2124,2068,2043
2051,2056,2040,2112,2269,2133,2084,2039
2058,2058,2052,2125,2284,2145,2086,2050
2065,2068,2051,2127,2307,2130,2092,2048
2057,2066,2052,2122,2340,2114,2081,2045
2059,2057,2046,2071,2194,2077,2047,2036
2047,2053,2039,2004,1945,2024,2039,2034
2038,2044,2030,1994,1849,2020,2034,2033
2041,2041,2038,2008,1847,2051,2050,2034
2042,2052,2052,2033,1950,2076,2045,2037
2042,2044,2055,2070,2124,2090,2046,2041
2038,2037,2057,2072,2184,2089,2037,2042
2035,2036,2053,2068,2203,2095,2045,2055
2030,2036,2049,2054,2220,2091,2043,2063
2039,2038,2053,2030,2153,2060,2036,2072
2037,2032,2051,1996,2017,2009,2042,2068
2034,2025,2047,1984,1901,1975,2029,2064
2034,2024,2036,1982,1810,1949,2000,2051
2015,2017,2029,1984,1798,1965,2006,2040
2015,2021,2033,1989,1727,1982,2017,2036
2021,2032,2046,2000,1760,1993,2042,2048
2034,2049,2055,2026,1894,1985,2046,2059
2039,2039,2044,2039,1985,1992,2051,2058
2042,2050,2052,2044,2036,2014,2056,2061
2051,2056,2063,2069,2054,2049,2069,2053
2044,2061,2062,2064,2001,2032,2044,2048
2049,2060,2050,2046,1953,2011,2041,2034
2045,2056,2049,2042,1977,2010,2024,2027
2042,2053,2055,2053,2035,2020,2037,2018
2040,2051,2052,2047,2039,2021,2034,2015
2030,2039,2042,2042,2055,2033,2053,2019
2038,2035,2044,2060,2052,2045,2058,2022
2040,2035,2044,2063,2053,2047,2060,2021
2032,2023,2036,2062,2058,2034,2062,2009
2026,2023,2031,2051,2055,2026,2058,2023
2036,2042,2040,2039,2019,2023,2041,2026
2044,2045,2040,2021,1987,2029,2034,2021
2039,2043,2036,2028,2056,2037,2051,2029
2042,2044,2040,2048,2097,2037,2026,2030
2053,2048,2049,2044,2044,2021,2048,2032
2049,2052,2054,2068,2078,2022,2028,2049
2058,2055,2059,2087,2092,2033,2057,2054
2063,2065,2062,2091,2076,2046,2054,2066
2054,2068,2067,2088,2018,2051,2053,2066
2046,2070,2071,2092,1986,2055,2073,2077
2055,2071,2071,2083,1919,2060,2055,2084
2060,2062,2061,2051,1775,2040,2059,2088
2058,2056,2053,2024,1646,2030,2060,2093
2059,2054,2050,2015,1705,2014,2068,2091
2056,2047,2044,2020,1881,2016,2056,2082
2061,2044,2055,2020,1917,2032,2060,2091
2062,2062,2066,2018,1936,2035,2062,2073
2055,2050,2051,2035,2113,2081,2055,2058
2040,2038,2046,2082,2335,2122,2059,2060
2051,2051,2061,2112,2472,2135,2065,2052
2052,2049,2056,2078,2402,2104,2064,2043
2037,2039,2037,2004,2181,2086,2045,2017
2035,2030,2024,1968,1935,2058,2028,2015
2027,2019,2020,1992,2012,2084,2034,2021
2039,2030,2032,2054,2226,2137,2058,2030
2054,2033,2037,2091,2317,2108,2052,2027
2057,2041,2040,2093,2258,2069,2059,2023
2058,2045,2051,2076,2160,2026,2042,2016
2053,2053,2045,2031,2014,1983,2035,2007
2051,2043,2041,2016,1955,1980,2035,2011
2034,2028,2031,2026,1985,2019,2041,2013
2029,2032,2039,2043,2058,2049,2055,1999
2027,2039,2043,2049,2109,2034,2043,2003
2032,2039,2043,2057,2137,2041,2032,2011
2047,2050,2048,2062,2154,2044,2044,2014
2049,2047,2053,2052,2098,2043,2041,2014
2037,2044,2051,2028,1957,2037,2046,2022
2040,2046,2043,2029,1962,2041,2042,2028
2038,2051,2042,2034,2004,2044,2046,2032
2034,2042,2041,2057,2058,2042,2053,2040
2036,2041,2046,2069,2125,2040,2060,2039
2034,2045,2048,2069,2121,2039,2049,2044
2037,2038,2051,2075,2124,2064,2065,2047
2033,2032,2044,2080,2142,2073,2073,2047
2046,2034,2045,2093,2159,2089,2069,2060
2047,2037,2057,2111,2162,2088,2065,2065
2036,2025,2061,2115,2126,2090,2050,2055
2041,2022,2070,2107,2065,2102,2049,2056
2044,2036,2064,2075,1901,2078,2052,2048
2052,2037,2055,2083,1988,2068,2056,2041
2043,2023,2042,2075,2023,2032,2016,2043
2042,2033,2040,2092,2078,1994,2018,2052
2049,2049,2040,2111,2104,2006,2038,2048
2054,2055,2036,2093,2036,1993,2037,2043
2055,2051,2028,2085,1993,2001,2027,2034
2054,2054,2015,2073,2000,2023,2030,2024
2049,2048,1987,2029,2001,2014,2029,1997
2034,2024,1959,1963,1887,2011,1994,1989
2021,2015,1954,1954,1939,2024,1998,1987
2016,2013,1963,1970,2072,2073,2023,1985
2026,2014,1965,1935,1914,2038,2008,1976
2020,2004,1959,1912,1855,1991,1987,1988
2018,2006,1975,1944,2004,2013,2024,1996
2028,2024,2012,1994,2138,2044,2024,2010
2044,2052,2060,2026,2161,2047,2035,2047
2062,2077,2095,2067,2134,2023,2049,2064
2084,2083,2118,2085,2135,2034,2055,2057
2079,2081,2125,2071,2120,2031,2062,2062
2078,2074,2110,2060,2107,2029,2065,2060
2076,2073,2101,2054,2095,2026,2056,2042
2056,2068,2098,2048,2068,2028,2071,2035
2048,2061,2089,2050,2057,2033,2075,2038
2050,2066,2090,2051,2049,2032,2075,2051
2048,2071,2086,2047,2033,2037,2063,2054
2047,2061,2085,2048,2032,2035,2052,2056
2041,2049,2067,2032,1986,2035,2046,2066
2040,2047,2067,2037,1958,2050,2051,2064
2042,2053,2069,2050,1946,2054,2053,2077
2055,2067,2075,2050,1912,2041,2059,2077
2045,2058,2068,2050,1915,2037,2024,2070
2044,2053,2072,2051,1862,2034,2031,2074
2050,2057,2062,2039,1845,2022,2026,2069
2046,2053,2052,2037,1884,2012,2012,2053
2038,2048,2042,2029,1906,2000,2035,2041
2037,2035,2037,2007,1922,1986,2000,2035
2041,2034,2048,2027,2027,2011,2029,2039
2043,2051,2057,2055,2143,2053,2057,2039
2049,2070,2065,2072,2182,2077,2075,2037
2055,2068,2067,2067,2134,2082,2051,2028
2048,2060,2056,2066,2113,2057,2030,2018
2037,2054,2055,2055,2136,2049,2029,2008
2043,2056,2049,2053,2146,2054,2006,2008
2038,2050,2049,2070,2171,2078,2020,2015
2042,2054,2054,2082,2165,2082,2020,2019
2044,2051,2050,2088,2178,2079,2021,2019
2049,2041,2048,2078,2184,2075,2021,2017
2043,2039,2041,2079,2220,2088,2042,2027
2052,2046,2045,2079,2224,2081,2051,2023
2044,2043,2031,2047,2088,2057,2034,2018
2039,2033,2029,2050,2020,2068,2038,2018
2027,2040,2045,2076,2084,2097,2046,2007
2020,2047,2050,2083,2130,2105,2045,2012
2042,2060,2062,2077,2129,2080,2042,2042
2065,2053,2064,2072,2100,2061,2045,2051
2061,2053,2058,2068,2074,2057,2042,2053
2053,2057,2055,2055,2058,2043,2053,2054
2051,2055,2053,2052,2048,2037,2041,2055
2049,2065,2062,2043,1916,2022,2042,2065
2057,2064,2055,2021,1875,2003,2023,2077
2053,2049,2044,2012,1881,2010,2023,2060
2046,2041,2042,2043,1952,2037,2037,2063
2046,2043,2042,2072,2008,2046,2019,2062
2047,2048,2046,2104,2098,2054,2032,2054
2047,2054,2054,2130,2227,2082,2030,2053
2040,2055,2060,2130,2288,2089,2033,2046
2034,2051,2063,2135,2305,2091,2038,2047
2030,2041,2051,2127,2295,2086,2044,2038
2030,2035,2045,2099,2287,2069,2036,2031
2036,2042,2049,2064,2160,2036,2030,2031
2046,2053,2049,2047,2068,2024,2020,2034
2051,2061,2055,2057,2042,2033,2018,2032
2050,2050,2050,2012,1882,1995,2037,2021
2047,2043,2038,2004,1937,1998,2040,2019
2044,2044,2039,2045,2045,2022,2044,2017
2049,2046,2040,2046,2027,2023,2009,2014
2048,2044,2034,2030,2022,2031,2012,2011
2055,2040,2027,2024,2012,2026,2003,2006
2051,2045,2031,2015,1982,2012,2007,2006
2052,2044,2034,2033,2005,2007,2015,2015
2052,2052,2048,2060,2060,2035,2024,2014
2053,2060,2056,2059,2095,2066,2018,2009
2049,2051,2058,2045,2058,2075,2020,2007
2050,2047,2046,2049,2057,2076,2033,2012
2046,2045,2047,2058,2102,2084,2030,2017
2042,2049,2042,2062,2094,2075,2035,2023
2036,2046,2043,2052,2074,2051,2006,2025
2036,2051,2046,2054,2066,2033,2025,2037
2048,2050,2045,2046,2064,2043,2041,2047
2046,2051,2037,2047,2059,2045,2036,2040
2042,2046,2044,2046,2056,2048,2051,2050
2053,2047,2038,2046,2058,2057,2055,2063
2052,2041,2039,2049,2065,2063,2068,2070
2055,2043,2038,2054,2077,2073,2064,2074
2056,2038,2032,2050,2091,2078,2049,2072
2050,2034,2020,2048,2103,2083,2041,2067
2054,2044,2028,2059,2108,2086,2042,2062
2046,2051,2031,2063,2105,2075,2033,2057
2053,2053,2028,2056,2087,2066,2025,2052
2046,2043,2025,2059,2076,2060,2017,2053
2051,2040,2031,2058,2051,2041,2042,2042
2039,2039,2030,2051,2013,2009,2025,2027
2032,2034,2032,2045,2020,2017,2018,2018
2027,2039,2034,2065,2051,2035,2040,2026
2034,2050,2045,2077,2065,2052,2038,2020
2049,2044,2053,2072,2072,2055,2031,2013
2050,2044,2055,2065,2062,2054,2030,2019
2045,2038,2055,2054,2045,2046,2027,2016
2046,2037,2050,2044,2038,2047,2016,2012
2042,2040,2046,2037,2030,2047,2024,2010
2040,2033,2044,2026,2012,2037,2023,2008
2031,2028,2046,2030,2027,2019,2018,2019
2041,2046,2055,2036,2044,2014,2029,2032
2047,2058,2068,2056,2049,2036,2054,2019
2040,2046,2065,2044,2055,2051,2047,2026
2042,2045,2061,2052,2064,2064,2062,2035
2040,2042,2063,2049,2068,2065,2052,2032
2039,2046,2064,2058,2055,2067,2044,2036
2041,2052,2067,2052,2059,2061,2056,2042
2041,2054,2065,2052,2070,2057,2065,2041
2050,2056,2072,2052,2088,2072,2070,2054
2044,2052,2070,2058,2093,2072,2069,2049
2048,2051,2064,2058,2088,2080,2062,2056
2047,2041,2065,2052,2088,2087,2062,2052
2039,2040,2058,2052,2099,2069,2050,2056
2041,2045,2061,2068,2113,2071,2035,2061
2047,2044,2058,2061,2104,2064,2025,2062
2033,2037,2053,2059,2080,2050,2040,2061
2040,2041,2052,2066,2086,2020,2044,2061
2041,2052,2057,2068,2096,2034,2043,2058
2044,2052,2056,2070,2130,2063,2041,2058
2044,2045,2054,2062,2117,2074,2039,2051
2037,2041,2045,2037,2014,2064,2036,2040
2035,2037,2044,2005,1887,2027,2036,2035
2029,2039,2044,2012,1942,2039,2035,2033
2036,2039,2048,2045,2087,2064,2034,2031
2046,2041,2048,2051,2087,2059,2039,2026
2054,2043,2049,2045,2025,2029,2024,2024
2048,2042,2048,2054,2013,2016,2039,2030
2042,2042,2053,2047,1997,1999,2036,2018
2038,2036,2036,2036,1951,1987,2021,2012
2039,2036,2031,2027,1964,1996,2022,2010
2038,2027,2021,2025,2002,1995,2017,2009
2023,2014,2009,2018,1997,1992,2011,2002
2020,2021,2015,2014,1988,2006,2008,2013
2033,2035,2030,2042,1990,2026,2053,2021
2044,2042,2040,2060,2039,2039,2045,2023
2038,2034,2038,2055,2054,2047,2038,2021
2035,2038,2038,2077,2089,2062,2042,2021
2036,2036,2054,2086,2088,2070,2059,2031
2036,2033,2050,2076,2078,2056,2035,2022
2035,2024,2041,2066,2076,2042,2019,2026
2035,2023,2036,2046,2058,2033,2006,2032
2030,2016,2034,2046,2087,2045,2021,2040
2031,2020,2031,2054,2099,2058,2014,2041
2035,2022,2027,2049,2064,2055,2008,2046
2033,2020,2032,2046,2041,2054,2031,2049
2031,2035,2042,2057,2060,2050,2032,2058
2035,2033,2042,2059,2059,2043,2026,2061
2034,2017,2035,2051,2057,2044,2014,2058
2032,2024,2030,2050,2064,2043,2036,2061
2042,2029,2027,2047,2057,2046,2052,2066
2038,2030,2024,2042,2039,2045,2052,2062
2043,2032,2028,2041,2047,2046,2048,2051
2042,2038,2033,2040,2054,2056,2036,2037
2032,2036,2033,2035,2052,2068,2042,2041
2058,2050,2054,2047,2085,2076,2065,2044
2060,2052,2074,2063,2087,2078,2072,2049
2057,2050,2065,2054,2074,2083,2073,2042
2052,2049,2060,2047,2080,2086,2077,2038
2051,2052,2059,2040,2071,2070,2065,2035
2050,2044,2067,2039,2071,2057,2054,2026
2050,2052,2079,2053,2078,2035,2049,2035
2060,2066,2089,2070,2083,2002,2042,2034
2058,2065,2087,2074,2094,2005,2017,2028
2049,2051,2071,2070,2081,2031,2037,2018
2049,2049,2067,2074,2106,2061,2026,2015
2054,2054,2069,2048,2078,2046,2025,2012
2050,2045,2067,2047,2044,2034,2035,2019
2055,2055,2071,2063,2076,2043,2037,2018
2057,2062,2078,2078,2109,2042,2027,2026
2057,2060,2070,2071,2108,2033,2040,2035
2058,2057,2059,2062,2106,2024,2046,2033
2056,2046,2055,2054,2073,2027,2033,2032
2047,2048,2053,2038,2012,2039,2043,2034
2051,2046,2064,2042,1995,2075,2054,2048
2049,2050,2065,2047,2005,2085,2054,2061
2056,2050,2064,2054,2018,2077,2048,2067
2052,2053,2061,2051,2025,2055,2049,2062
2049,2056,2058,2052,2034,2050,2041,2063
2052,2050,2057,2053,2027,2043,2020,2058
2045,2041,2046,2046,2036,2041,2012,2056
2043,2034,2044,2045,2043,2049,2016,2059
2047,2047,2048,2052,2051,2056,2023,2060
2053,2046,2043,2048,2061,2055,2015,2053
2055,2044,2046,2048,2062,2057,2046,2052
2055,2047,2048,2054,2055,2049,2031,2044
2056,2050,2047,2053,2057,2045,2042,2037
2054,2049,2047,2052,2050,2048,2051,2035
2060,2046,2050,2050,2054,2049,2042,2038
2059,2044,2053,2043,2048,2054,2025,2038
2063,2040,2046,2049,2047,2053,2023,2036
2061,2042,2039,2041,2049,2055,2053,2036
2057,2038,2034,2041,2047,2065,2060,2030
2058,2046,2040,2046,2055,2061,2051,2023
2061,2051,2039,2045,2050,2045,2028,2018
2055,2050,2035,2045,2044,2042,2032,2014
2052,2038,2017,2045,2040,2037,2049,2014
2050,2035,2010,2043,2050,2043,2044,2021
2065,2037,2011,2051,2055,2051,2043,2028
2055,2044,2010,2049,2060,2053,2035,2020
2050,2042,2008,2059,2068,2063,2045,2018
2047,2036,2021,2064,2078,2076,2055,2030
2048,2035,2029,2072,2076,2074,2026,2034
2046,2037,2033,2068,2062,2040,2030,2037
2047,2031,2031,2068,2051,2013,2034,2043
2047,2036,2030,2067,2049,2016,2034,2043
2055,2033,2031,2070,2050,2007,2033,2049
2050,2035,2032,2070,2041,1994,2028,2041
2038,2031,2027,2066,2045,1999,2023,2053
2039,2032,2034,2067,2050,1995,2028,2055
2041,2034,2044,2064,2049,1999,2033,2059
2041,2036,2061,2066,2049,2003,2036,2065
2036,2035,2066,2060,2052,2003,2038,2060
2033,2041,2076,2065,2053,2009,2044,2056
2043,2054,2097,2065,2053,2027,2031,2062
2052,2061,2084,2064,2052,2038,2066,2060
2052,2056,2081,2055,2042,2044,2070,2060
2053,2058,2074,2033,2040,2059,2067,2049
2053,2055,2070,2025,2034,2066,2074,2051
2057,2060,2066,2020,2041,2067,2069,2046
2061,2054,2059,2025,2044,2081,2077,2045
2053,2053,2053,2028,2052,2085,2072,2035
2059,2053,2057,2040,2045,2072,2062,2036
2049,2052,2060,2042,2040,2050,2051,2032
2048,2042,2060,2047,2041,2041,2054,2028
2049,2045,2057,2043,2044,2042,2049,2032
2056,2048,2051,2048,2050,2044,2053,2029
2053,2047,2059,2056,2054,2040,2054,2025
2045,2043,2053,2048,2052,2036,2043,2023
2040,2041,2051,2053,2053,2038,2045,2034
2054,2055,2061,2063,2064,2048,2045,2035
2054,2062,2060,2058,2062,2046,2047,2028
2053,2054,2064,2063,2056,2042,2028,2024
2043,2053,2063,2062,2056,2044,2030,2020
2046,2048,2058,2058,2045,2044,2029,2019
2039,2043,2050,2059,2053,2059,2051,2028
2044,2049,2050,2056,2060,2065,2045,2034
2046,2051,2050,2056,2062,2066,2032,2036
2047,2046,2051,2056,2054,2059,2036,2043
2050,2047,2052,2056,2063,2059,2042,2045
2046,2050,2051,2053,2061,2042,2035,2055
2044,2046,2048,2051,2055,2028,2037,2064
2042,2046,2051,2053,2054,2036,2043,2068
2044,2048,2050,2058,2057,2047,2053,2066
2038,2044,2043,2048,2052,2040,2043,2065
2038,2043,2038,2050,2046,2033,2041,2063
2053,2055,2047,2056,2054,2039,2053,2058
2051,2053,2049,2062,2052,2041,2055,2058
2054,2062,2052,2062,2057,2045,2056,2051
2053,2054,2044,2058,2054,2041,2057,2047
2049,2056,2045,2059,2054,2033,2042,2043
2048,2053,2044,2064,2052,2027,2049,2038
2055,2056,2049,2063,2048,2028,2045,2031
2055,2051,2043,2067,2054,2030,2034,2024
2056,2048,2046,2067,2047,2026,2039,2021
2054,2043,2039,2066,2059,2032,2049,2020
2046,2045,2048,2063,2063,2040,2064,2024
2050,2046,2048,2063,2058,2040,2062,2025
2050,2046,2050,2062,2061,2041,2075,2024
2036,2033,2047,2060,2051,2036,2066,2011
2029,2030,2041,2052,2047,2030,2043,2015
2033,2025,2031,2053,2044,2029,2052,2021
2037,2039,2036,2058,2055,2030,2046,2026
2045,2043,2035,2058,2055,2028,2043,2024
2044,2041,2034,2058,2055,2041,2042,2025
2041,2037,2028,2058,2057,2035,2054,2033
2039,2042,2027,2048,2050,2040,2052,2031
2041,2036,2025,2039,2052,2032,2049,2035
2037,2030,2022,2030,2047,2032,2051,2035
2037,2025,2018,2029,2042,2033,2068,2036
2036,2033,2028,2032,2048,2037,2045,2040
2044,2038,2040,2036,2043,2038,2034,2047
2040,2040,2050,2050,2051,2045,2044,2061
2044,2052,2062,2054,2054,2045,2058,2075
2052,2065,2068,2064,2057,2047,2058,2069
2047,2060,2066,2062,2063,2052,2074,2074
2049,2058,2060,2056,2057,2042,2063,2067
2038,2051,2050,2045,2050,2035,2058,2065
2044,2053,2054,2054,2053,2036,2048,2072
2048,2050,2051,2056,2055,2045,2048,2069
2048,2053,2054,2056,2046,2042,2054,2061
2048,2051,2051,2053,2047,2046,2065,2053
2037,2053,2054,2048,2045,2057,2057,2054
2046,2052,2048,2049,2042,2060,2054,2040
2039,2052,2047,2051,2047,2074,2025,2032
2040,2051,2047,2051,2047,2074,2028,2027
2046,2049,2044,2053,2048,2069,2061,2029
2043,2051,2047,2056,2046,2044,2050,2029
2046,2053,2045,2060,2042,1997,2044,2028
2040,2053,2047,2059,2039,1990,2040,2026
2044,2052,2048,2053,2037,2006,2039,2030
2046,2051,2049,2053,2041,2027,2044,2026
2044,2049,2046,2048,2041,2023,2045,2018
2040,2041,2034,2045,2037,2025,2052,2022
2040,2046,2042,2048,2040,2032,2057,2030
2044,2049,2041,2056,2044,2040,2048,2030
2048,2050,2048,2052,2042,2042,2065,2031
2053,2060,2050,2055,2049,2044,2066,2032
2055,2055,2050,2053,2048,2042,2057,2039
2055,2061,2047,2061,2041,2044,2056,2042
2060,2060,2051,2054,2046,2048,2044,2050
2050,2056,2050,2054,2058,2053,2060,2055
2052,2054,2052,2058,2062,2057,2062,2062
2055,2060,2051,2058,2050,2059,2058,2059
2052,2057,2049,2058,2057,2061,2038,2066
2056,2056,2057,2057,2052,2052,2024,2067
2063,2058,2055,2057,2043,2047,2047,2076
2058,2058,2052,2051,2037,2044,2047,2075
2054,2055,2049,2043,2039,2035,2034,2070
2041,2039,2038,2045,2037,2042,2023,2070
2048,2045,2042,2046,2043,2050,2018,2076
2046,2053,2054,2053,2046,2057,2046,2075
2054,2060,2057,2062,2041,2064,2061,2070
2059,2056,2058,2066,2049,2071,2064,2068
2054,2056,2060,2067,2098,2080,2074,2068
2048,2057,2054,2065,2120,2082,2064,2063
2056,2054,2053,2065,2119,2089,2063,2057
2058,2057,2054,2066,2119,2087,2069,2052
2061,2056,2056,2065,2083,2080,2064,2047
2070,2059,2054,2055,2056,2069,2060,2040
2063,2059,2057,2051,2020,2058,2056,2042
2056,2059,2054,2044,1957,2044,2058,2035
2051,2055,2044,2035,1858,2031,2055,2035
2056,2056,2043,2040,1915,2037,2057,2029
2049,2057,2042,2050,1984,2034,2049,2027
2046,2051,2047,2056,2024,2029,2048,2023
2050,2052,2048,2049,2057,2017,2051,2036
2054,2046,2052,2045,2069,1991,2030,2028
2049,2050,2052,2047,2069,1999,2028,2042
2057,2052,2047,2055,2071,2022,2030,2040
2063,2061,2047,2060,2070,2040,2040,2037
2059,2061,2046,2054,2054,2046,2054,2045
2063,2056,2045,2045,2036,2044,2040,2046
2056,2049,2040,2032,2026,2040,2042,2050
2053,2044,2034,2032,2030,2040,2043,2054
2051,2042,2037,2042,2053,2048,2049,2054
2053,2049,2041,2047,2047,2047,2049,2062
2044,2046,2034,2040,2036,2029,2015,2060
2044,2031,2027,2043,2039,2032,2020,2064
2041,2036,2030,2045,2041,2030,2037,2069
2047,2035,2041,2047,2042,2033,2035,2067
2036,2038,2041,2042,2041,2039,2051,2073
2037,2042,2056,2059,2054,2053,2064,2089
2051,2065,2063,2060,2073,2057,2057,2091
2050,2055,2057,2056,2088,2070,2056,2082
2042,2055,2047,2047,2079,2066,2048,2064
2048,2053,2043,2042,2059,2066,2047,2060
2045,2048,2042,2033,2059,2075,2038,2058
2052,2048,2032,2040,2072,2091,2062,2058
2051,2047,2034,2044,2077,2102,2063,2054
2053,2054,2034,2042,2061,2090,2065,2049
2050,2047,2037,2047,2038,2083,2070,2042
2053,2048,2036,2045,2061,2075,2073,2042
2056,2049,2040,2047,2047,2067,2064,2041
2056,2051,2042,2051,2040,2067,2070,2039
2058,2055,2045,2052,2023,2058,2070,2038
2057,2060,2035,2052,2026,2047,2053,2030
2047,2049,2033,2054,2029,2028,2043,2019
2044,2041,2043,2055,2006,1993,2032,2017
2045,2053,2065,2043,1978,1994,2017,2027
2047,2056,2076,2052,1996,2006,2033,2034
2058,2063,2086,2064,1997,1995,2032,2034
2063,2069,2091,2074,1996,1999,2028,2038
2061,2070,2088,2075,1992,2003,2026,2040
2057,2075,2090,2076,2002,2010,2026,2036
2052,2069,2082,2075,2018,2010,2006,2045
2052,2067,2079,2077,2056,2022,2010,2046
2048,2064,2073,2088,2115,2044,2012,2047
2046,2060,2066,2088,2118,2035,2043,2052
2045,2057,2063,2088,2098,2042,2050,2061
2046,2053,2050,2076,2075,2040,2032,2071
2041,2049,2041,2070,2058,2040,2040,2072
2043,2052,2037,2058,2045,2041,2051,2072
2046,2049,2034,2052,2046,2055,2038,2073
2041,2043,2025,2033,2047,2050,2029,2072
2036,2038,2015,2026,2040,2046,2044,2071
2042,2043,2025,2031,2039,2046,2054,2076
2044,2045,2033,2042,2049,2052,2047,2078
2048,2038,2033,2043,2053,2059,2050,2063
2047,2028,2018,2032,2030,2054,2035,2056
2036,2016,2002,2028,2024,2054,2012,2053
2033,2017,2004,2025,2024,2058,2034,2042
2033,2017,2019,2031,2035,2063,2049,2041
2039,2031,2028,2038,2039,2061,2039,2037
2046,2040,2040,2049,2041,2061,2049,2033
2046,2042,2044,2047,2046,2057,2043,2030
2040,2043,2033,2044,2038,2057,2049,2032
2040,2035,2019,2042,2035,2045,2041,2023
2040,2030,2012,2042,2049,2046,2039,2024
2039,2031,2010,2038,2056,2044,2042,2020
2033,2018,1998,2024,2054,2040,2036,2019
2029,2010,1993,2002,2034,2037,2034,2023
2031,2017,1997,1998,2038,2051,2043,2026
2037,2031,2012,1978,2009,2059,2058,2021
2038,2033,2011,1965,1992,2073,2034,2025
2041,2034,2012,1957,1986,2081,2016,2035
2046,2035,2022,1961,1970,2080,2036,2036
2047,2048,2043,1981,1986,2064,2060,2043
2058,2063,2072,2014,2034,2048,2067,2055
2059,2070,2087,2055,2119,2073,2077,2062
2063,2066,2083,2084,2183,2090,2089,2066
2052,2053,2071,2091,2166,2079,2067,2062
2051,2051,2062,2077,2134,2059,2066,2065
2049,2047,2045,2069,2114,2058,2064,2070
2047,2049,2044,2070,2111,2063,2054,2074
2047,2050,2041,2072,2119,2072,2058,2083
2050,2049,2039,2051,2106,2059,2046,2077
2040,2038,2022,2012,1998,2017,2029,2075
2039,2034,2022,2000,1910,2009,2021,2083
2051,2050,2030,2004,1910,2016,2049,2075
2054,2050,2030,2006,1989,2042,2043,2067
2051,2042,2025,2000,2016,2047,2067,2058
2046,2035,2023,1995,2015,2051,2038,2048
2037,2033,2017,1991,2025,2056,2055,2043
2045,2035,2016,2002,2042,2064,2054,2049
2050,2035,2025,2024,2060,2066,2060,2042
2056,2042,2035,2025,2054,2062,2067,2051
2059,2044,2030,2020,2046,2060,2052,2051
2056,2039,2033,2025,2043,2058,2051,2048
2050,2039,2028,2027,2063,2054,2049,2048
2048,2035,2025,2029,2078,2036,2041,2050
2044,2030,2019,2029,2113,2031,2046,2050
2044,2028,2018,2043,2142,2042,2036,2039
2036,2019,2005,2033,2132,2038,2037,2032
2033,2017,2011,2042,2106,2049,2037,2036
2043,2042,2027,2064,2136,2076,2060,2040
2047,2053,2043,2068,2143,2080,2054,2034
2051,2066,2065,2069,2065,2062,2055,2042
2055,2074,2068,2043,1947,2041,2052,2051
2054,2071,2066,2028,1937,2046,2054,2055
2049,2066,2055,2007,1901,2048,2047,2052
2049,2072,2065,2002,1892,2051,2054,2067
2064,2087,2088,2032,1978,2061,2058,2070
2073,2099,2100,2043,2050,2069,2044,2073
2066,2095,2087,2034,2074,2065,2065,2071
2052,2076,2074,2026,2064,2058,2052,2071
2059,2071,2067,2020,2037,2043,2053,2074
2058,2077,2061,2027,2026,2037,2048,2080
2052,2064,2055,2028,2027,2029,2032,2074
2039,2050,2052,2027,2012,1995,2002,2065
2026,2037,2042,2027,2008,1988,1990,2058
2024,2038,2046,2038,2007,2004,2028,2069
2038,2035,2051,2036,2005,2025,2024,2071
2038,2044,2047,2036,2004,2025,2036,2062
2035,2042,2046,2026,2008,2032,2033,2055
2040,2048,2045,2030,2010,2042,2046,2054
2042,2053,2052,2036,2027,2050,2048,2054
2043,2058,2047,2040,2035,2044,2039,2052
2040,2051,2041,2046,2033,2050,2033,2046
2046,2050,2041,2050,2044,2052,2051,2041
2051,2058,2027,2052,2059,2058,2044,2037
2050,2058,2033,2052,2067,2060,2050,2043
2049,2046,2020,2052,2070,2053,2032,2040
2047,2047,2018,2050,2063,2048,2029,2028
2038,2042,2014,2047,2043,2043,2019,2030
2035,2040,2012,2040,2016,2030,2034,2025
2037,2030,2004,2032,1996,2029,2040,2014
2037,2031,2010,2030,1980,2032,2028,2021
2046,2038,2032,2033,1969,2057,2027,2030
2052,2053,2048,2043,1957,2072,2058,2038
2064,2065,2065,2049,1962,2069,2048,2040
2072,2069,2076,2058,2010,2066,2056,2049
2065,2074,2081,2073,2058,2038,2066,2052
2068,2069,2079,2067,2059,2030,2061,2059
2066,2063,2077,2054,2029,2036,2062,2061
2055,2058,2076,2047,2026,2038,2068,2061
2062,2063,2079,2027,1996,2017,2068,2066
2060,2067,2082,2010,1975,2012,2051,2071
2057,2075,2088,2034,2075,2070,2063,2084
2066,2081,2100,2047,2107,2094,2061,2084
2067,2078,2094,2043,2090,2083,2046,2078
2060,2076,2089,2036,2067,2064,2058,2084
2062,2070,2095,2037,2058,2054,2045,2082
2055,2058,2078,2037,2074,2056,2061,2078
2051,2059,2075,2044,2098,2075,2045,2080
2049,2062,2073,2039,2059,2070,2033,2077
2056,2062,2068,2032,2002,2039,2020,2075
2054,2058,2070,2030,1992,2034,2062,2072
2059,2060,2065,2042,2004,2049,2063,2066
2059,2058,2065,2039,2009,2051,2078,2057
2054,2063,2064,2042,2028,2053,2062,2056
2054,2063,2064,2044,2055,2044,2063,2050
2057,2053,2063,2048,2070,2034,2042,2043
2049,2057,2075,2062,2075,2028,2033,2031
2054,2056,2085,2068,2046,2014,2043,2032
2051,2054,2083,2064,2046,2010,2058,2035
2050,2051,2076,2062,2063,2017,2060,2025
2047,2050,2070,2061,2054,2034,2059,2026
2045,2050,2067,2069,2066,2075,2072,2031
2049,2046,2058,2064,2049,2078,2058,2025
2050,2036,2048,2050,2010,2072,2019,2014
2049,2040,2048,2049,2011,2077,2029,2018
2044,2046,2046,2049,2029,2072,2030,2014
2041,2054,2045,2049,2034,2060,2046,2021
2048,2062,2054,2053,2040,2038,2054,2040
2055,2068,2055,2068,2051,2030,2055,2040
2061,2070,2061,2071,2073,2045,2048,2038
2053,2058,2054,2070,2110,2067,2051,2041
2045,2051,2042,2066,2101,2072,2051,2038
2044,2047,2035,2039,2063,2067,2030,2046
2039,2052,2038,2010,1966,2047,2023,2043
2038,2054,2038,1996,1915,2030,2052,2060
2044,2049,2028,1992,1958,2037,2066,2057
2032,2047,2016,1994,2006,2054,2051,2054
2026,2035,2012,2003,2025,2050,2022,2061
2036,2039,2016,2003,2023,2053,2023,2069
2037,2040,2019,1994,2015,2055,2046,2073
2040,2038,2025,2003,2016,2045,2050,2075
2046,2049,2042,2027,2061,2028,2065,2077
2053,2056,2054,2036,2108,2042,2058,2071
2052,2058,2056,2044,2120,2061,2055,2064
2051,2054,2059,2064,2128,2077,2057,2058
2056,2058,2074,2071,2102,2083,2054,2056
2048,2063,2084,2061,2058,2074,2059,2049
2050,2058,2085,2065,2024,2075,2067,2049
2052,2064,2082,2083,2052,2079,2035,2048
2053,2057,2074,2080,2044,2072,2040,2049
2053,2053,2065,2071,2010,2050,2044,2041
2056,2053,2052,2038,1967,2027,2018,2035
2050,2050,2045,2009,1855,1999,2031,2030
2050,2058,2050,1991,1772,1978,2031,2023
2059,2060,2061,2025,1979,2011,2030,2022
2052,2054,2050,2062,2179,2042,2024,2018
2053,2043,2039,2090,2281,2080,2028,2018
2053,2050,2043,2094,2264,2090,2044,2021
2050,2050,2040,2073,2222,2074,2054,2026
2056,2054,2053,2072,2175,2052,2042,2032
2049,2056,2053,2056,2156,2053,2048,2038
2046,2055,2050,2029,2115,2050,2052,2039
2046,2051,2034,2001,2016,2036,2047,2040
2044,2039,2009,1973,1901,2010,2047,2039
2039,2045,2027,1973,1904,2011,2051,2034
2040,2048,2041,1994,1942,2021,2050,2049
2053,2050,2050,2002,1964,2033,2064,2058
2055,2051,2044,2010,1969,2033,2053,2069
2054,2046,2038,2028,1992,2032,2054,2066
2050,2041,2031,2035,1992,2031,2053,2073
2049,2044,2028,2040,1979,2017,2048,2077
2047,2040,2020,2044,1980,2015,2030,2073
2034,2031,2010,2037,1990,2030,2042,2075
2024,2033,2010,2037,2018,2042,2049,2070
2038,2042,2010,2050,2056,2055,2049,2069
2042,2047,2020,2062,2077,2065,2057,2059
2042,2043,2023,2044,2085,2060,2069,2056
2038,2039,2021,2040,2074,2039,2051,2052
2032,2026,2003,2020,2028,2036,2042,2042
2031,2026,2002,2014,2040,2047,2045,2032
2033,2032,2008,2013,2033,2058,2044,2029
2030,2039,2013,2014,2005,2048,2047,2029
2042,2048,2026,2011,1996,2029,2038,2025
2043,2057,2045,2025,2031,2026,2055,2028
2056,2081,2066,2060,2088,2047,2070,2038
2062,2080,2069,2076,2116,2064,2065,2040
2057,2066,2053,2055,2085,2059,2065,2036
2051,2060,2039,2016,2049,2055,2060,2025
2044,2049,2026,2005,2035,2050,2064,2030
2037,2050,2023,2005,2027,2050,2070,2025
2043,2058,2031,2016,2028,2049,2064,2031
2044,2057,2033,2031,2070,2055,2056,2028
2046,2056,2033,2037,2121,2052,2044,2032
2036,2047,2029,2033,2114,2053,2033,2035
2035,2036,2038,2029,2106,2051,2069,2035
2045,2036,2043,2033,2091,2060,2048,2044
2046,2048,2053,2039,2082,2057,2044,2055
2044,2056,2062,2036,2090,2054,2064,2066
2050,2065,2071,2028,2065,2038,2046,2069
2044,2052,2066,1999,1943,2026,2060,2066
2041,2049,2082,2010,1925,2033,2078,2083
2043,2058,2086,2034,1992,2032,2070,2081
2045,2059,2071,2045,2023,2033,2067,2081
2046,2058,2063,2046,2055,2044,2068,2077
2047,2039,2045,2052,2074,2057,2074,2077
2040,2039,2032,2057,2069,2076,2080,2088
2044,2056,2039,2062,2060,2082,2077,2083
2056,2060,2036,2056,2050,2066,2049,2075
2057,2058,2037,2043,2053,2079,2038,2068
2045,2060,2025,2011,2017,2081,2024,2061
2042,2061,2024,1994,1919,2036,2022,2056
2053,2062,2032,1978,1901,1996,2019,2056
2057,2069,2040,1982,1936,1986,2022,2045
2053,2064,2033,1971,1871,1981,2019,2034
2038,2046,2030,1971,1837,1999,2013,2021
2043,2047,2036,2007,1907,2040,2017,2029
2053,2063,2062,2059,2053,2090,2046,2035
2057,2076,2075,2079,2082,2096,2047,2043
2070,2080,2077,2061,2064,2106,2064,2046
2059,2083,2084,2065,2076,2101,2074,2040
2064,2080,2084,2055,2064,2084,2059,2034
2058,2072,2077,2056,2043,2071,2037,2026
2052,2078,2080,2063,2071,2073,2048,2032
2058,2077,2076,2058,2085,2060,2045,2038
2060,2073,2061,2067,2115,2063,2032,2043
2061,2067,2056,2063,2132,2059,2060,2041
2060,2059,2050,2049,2112,2052,2050,2040
2054,2055,2042,2057,2126,2071,2044,2052
2051,2051,2043,2067,2120,2086,2050,2050
2048,2044,2040,2066,2104,2084,2054,2053
2041,2041,2037,2044,2088,2081,2049,2058
2047,2042,2047,2039,2037,2080,2042,2060
2054,2054,2056,2035,1998,2069,2037,2070
2055,2055,2054,2020,1994,2053,2030,2070
2051,2054,2051,2019,2002,2037,2027,2066
2043,2061,2058,2019,1997,2042,2022,2068
2047,2064,2058,2028,2018,2050,2049,2060
2038,2054,2050,2035,2042,2047,2034,2068
2042,2050,2047,2026,2044,2040,2037,2076
2053,2066,2052,2031,2071,2054,2046,2071
2049,2060,2055,2040,2080,2072,2068,2084
2055,2064,2059,2046,2105,2089,2066,2080
2061,2062,2060,2043,2113,2091,2073,2071
2056,2066,2059,2043,2132,2093,2081,2065
2060,2062,2058,2039,2111,2079,2037,2061
2056,2059,2049,2027,2039,2071,2049,2053
2060,2056,2050,2024,1958,2083,2047,2049
2060,2062,2049,2016,1905,2059,2045,2037
2053,2052,2038,2019,1843,2030,2039,2032
2052,2050,2042,2042,1917,2032,2045,2032
2047,2049,2052,2049,1980,1995,2035,2020
2054,2047,2059,2053,2015,1971,2041,2023
2052,2046,2070,2068,2079,1987,2036,2020
2042,2035,2062,2071,2062,2015,2050,2018
2036,2030,2071,2072,2031,2041,2056,2018
2046,2049,2069,2069,1976,2051,2066,2031
2048,2055,2064,2061,1963,2045,2060,2018
2043,2047,2050,2048,1938,2031,2042,2015
2033,2042,2055,2056,1999,2050,2055,2023
2043,2049,2080,2090,2088,2062,2065,2038
2054,2060,2079,2076,2104,2068,2065,2048
2062,2054,2076,2078,2131,2078,2058,2052
2068,2052,2065,2077,2114,2081,2058,2048
2052,2045,2053,2060,2132,2081,2062,2037
2033,2032,2043,2048,2151,2090,2048,2043
2033,2036,2046,2045,2127,2092,2061,2055
2041,2046,2054,2048,2113,2086,2067,2064
2045,2054,2061,2045,2074,2063,2060,2066
2035,2053,2068,2023,1997,2032,2035,2072
2032,2052,2051,2003,1952,2010,2010,2069
2027,2034,2038,1990,1937,2011,2016,2070
2031,2032,2026,1990,1934,2007,2027,2063
2022,2033,2022,1974,1892,1975,2008,2053
2022,2026,2018,1979,1894,1934,2014,2061
2035,2050,2050,2030,1927,1966,2047,2068
2043,2066,2064,2057,1999,2022,2039,2072
2045,2059,2044,2066,2121,2064,2046,2053
2042,2052,2036,2062,2140,2073,2036,2043
2033,2044,2039,2051,2108,2071,2027,2028
2025,2039,2024,2043,2064,2070,2008,2036
2031,2038,2037,2047,2072,2096,2036,2038
2047,2063,2057,2060,2092,2113,2060,2038
2047,2079,2067,2060,2073,2098,2063,2038
2051,2065,2071,2055,2062,2086,2038,2040
2054,2062,2079,2067,2118,2054,2048,2041
2057,2073,2082,2074,2144,2031,2049,2046
2057,2066,2079,2068,2126,2024,2043,2048
2046,2059,2066,2070,2109,2039,2032,2044
2044,2056,2071,2073,2110,2048,2039,2044
2055,2066,2075,2082,2102,2047,2032,2043
2056,2054,2078,2087,2076,2056,2035,2049
2049,2052,2080,2088,2054,2059,2049,2038
2044,2051,2067,2064,1956,2046,2053,2037
2049,2052,2059,2043,1859,2043,2071,2047
2046,2052,2064,2054,1901,2044,2068,2049
2046,2057,2062,2055,1927,2039,2057,2047
2045,2053,2053,2058,1928,2017,2042,2046
2039,2046,2048,2060,1970,2023,2041,2055
2046,2052,2050,2076,2045,2058,2051,2069
2046,2057,2053,2093,2089,2072,2056,2077
2047,2050,2045,2079,2080,2068,2028,2075
2047,2042,2033,2076,2074,2063,2049,2073
2037,2043,2019,2066,2079,2060,2048,2072
2036,2031,2004,2060,2080,2053,2042,2063
2027,2024,2001,2052,2078,2049,2035,2062
2034,2032,2007,2037,2015,2048,2027,2069
2038,2041,2011,2019,1988,2044,2047,2068
2038,2041,2008,2002,2039,2045,2046,2068
2035,2041,2012,2005,2051,2058,2044,2063
2039,2042,2022,2019,2079,2077,2051,2065
2046,2050,2025,2038,2099,2088,2070,2063
2042,2049,2021,2036,2136,2090,2070,2067
2043,2047,2025,2036,2154,2085,2051,2058
2045,2042,2046,2054,2157,2086,2052,2059
2049,2041,2056,2060,2179,2100,2053,2061
2053,2047,2061,2065,2207,2096,2037,2050
2054,2046,2060,2051,2127,2063,2049,2040
2046,2055,2060,2036,2066,2039,2046,2033
2042,2047,2060,2014,2024,2032,2034,2038
2048,2050,2061,2012,2019,2031,2028,2034
2045,2044,2054,2015,2028,2022,2012,2034
2046,2042,2057,2049,2033,2017,2022,2039
2052,2052,2067,2091,2114,2054,2055,2042
2059,2060,2069,2085,2071,2066,2058,2045
2053,2055,2055,2053,1856,2041,2037,2043
2046,2050,2050,2051,1865,2054,2060,2049
2052,2059,2052,2077,1970,2095,2053,2053
2056,2055,2057,2079,1996,2104,2059,2060
2047,2050,2052,2056,2005,2086,2035,2058
2045,2042,2044,2011,2017,2040,2015,2041
2029,2029,2026,1984,1918,1988,2000,2044
2042,2036,2041,2038,1979,1971,2034,2060
2051,2051,2049,2100,2099,2011,2044,2073
2054,2050,2052,2092,2106,2049,2054,2071
2044,2034,2037,2064,2082,2059,2037,2073
2039,2036,2034,2043,2083,2068,2036,2076
2045,2044,2043,2037,2020,2055,2040,2072
2042,2035,2034,2021,1970,2049,2041,2081
2048,2037,2030,2026,2028,2049,2051,2085
2057,2049,2039,2040,2046,2040,2056,2084
2064,2058,2054,2051,2035,2029,2061,2090
2069,2074,2061,2043,1973,2023,2052,2086
2064,2064,2049,2018,1944,2039,2061,2072
2060,2064,2057,2017,1911,2056,2056,2059
2063,2066,2062,2038,1932,2077,2045,2054
2060,2072,2069,2056,1978,2093,2072,2062
2060,2066,2068,2049,1981,2111,2069,2058
2052,2064,2069,2051,1968,2138,2078,2057
2047,2060,2061,2063,2026,2162,2068,2054
2044,2054,2040,2069,2095,2155,2055,2047
2041,2044,2037,2068,2109,2113,2052,2041
2040,2034,2028,2057,2145,2065,2048,2038
2044,2037,2036,2065,2158,2001,2041,2056
2058,2054,2044,2062,2056,1971,2041,2054
2053,2036,2040,2036,1954,1969,2056,2048
2052,2047,2045,2018,1918,1978,2058,2044
2055,2050,2040,1994,1869,1944,2040,2029
2035,2038,2030,1991,1925,1948,2031,2031
2028,2035,2036,2019,2014,2008,2057,2049
2044,2051,2054,2059,2113,2066,2064,2053
2045,2042,2042,2050,2019,2060,2032,2049
2046,2038,2027,2039,2031,2083,2049,2053
2039,2024,2014,2051,2122,2105,2049,2049
2039,2021,2008,2056,2162,2120,2056,2057
2041,2028,2014,2070,2238,2119,2066,2057
2041,2029,2026,2074,2244,2091,2048,2046
2051,2037,2036,2073,2188,2039,2033,2044
2040,2042,2043,2058,2128,2017,2033,2047
2043,2034,2030,2040,2068,2035,2021,2055
2044,2029,2024,2037,2060,2056,2043,2066
2037,2028,2016,2050,2089,2073,2054,2072
2033,2022,2016,2051,2097,2064,2037,2062
2030,2021,2014,2029,1976,2050,2035,2061
2024,2018,2008,2028,1988,2072,2049,2069
2039,2025,2018,2054,2060,2080,2053,2062
2038,2034,2030,2068,2062,2054,2043,2057
2047,2041,2029,2062,2045,2021,2036,2056
2042,2035,2022,2046,2032,2016,2020,2054
2049,2041,2039,2049,2011,2029,2034,2053
2055,2060,2064,2060,2036,2042,2049,2056
2065,2072,2077,2059,2061,2065,2046,2051
2063,2076,2074,2067,2061,2060,2057,2051
2063,2068,2064,2062,2036,2058,2053,2043
2053,2057,2058,2056,2015,2049,2023,2038
2056,2049,2052,2049,1968,2049,2051,2043
2052,2050,2049,2048,1947,2047,2039,2037
2047,2042,2041,2030,1937,2041,2025,2026
2037,2028,2028,2013,1941,2027,2031,2027
2042,2035,2041,2013,1941,2025,2021,2037
2048,2054,2046,2014,1923,2004,2028,2038
2056,2055,2054,2028,1983,2012,2045,2056
2062,2056,2058,2061,2070,2010,2049,2068
2060,2044,2050,2064,2176,2027,2043,2064
2058,2051,2055,2073,2271,2059,2034,2064
2057,2047,2056,2087,2302,2080,2049,2068
2062,2052,2061,2092,2260,2077,2041,2081
2064,2059,2059,2085,2243,2078,2052,2086
2067,2059,2061,2080,2210,2074,2041,2070
2056,2051,2053,2055,2093,2063,2043,2055
2042,2053,2054,2038,1957,2062,2043,2058
2040,2054,2062,2036,1887,2056,2041,2063
2056,2065,2060,2028,1753,2023,2023,2068
2055,2051,2052,2009,1696,2002,2027,2081
2060,2050,2055,2022,1777,2001,2035,2090
2063,2043,2056,2040,1865,1990,2052,2094
2058,2042,2059,2050,1889,2011,2084,2101
2070,2047,2052,2040,1917,2035,2064,2092
2044,2029,2042,2024,1938,2053,2078,2072
2036,2027,2035,2017,1988,2052,2057,2057
2040,2025,2037,2030,2028,2057,2058,2044
2033,2027,2037,2064,2133,2091,2064,2028
2036,2033,2045,2103,2243,2142,2071,2037
2040,2042,2052,2116,2311,2147,2067,2043
2044,2042,2052,2095,2227,2134,2047,2040
2041,2041,2051,2086,2178,2117,2049,2045
2041,2048,2052,2088,2135,2102,2043,2042
2036,2044,2048,2065,2094,2069,2018,2038
2046,2050,2044,2005,1879,2024,2037,2041
2047,2057,2041,1981,1774,2022,2039,2037
2047,2054,2041,1979,1730,1988,2043,2039
2044,2046,2045,1972,1757,1946,2041,2038
2044,2046,2052,1993,1873,1959,2056,2061
2062,2068,2069,2043,1951,2010,2079,2082
2083,2084,2080,2074,2015,2069,2100,2081
2079,2080,2075,2090,2056,2096,2084,2081
2081,2076,2067,2116,2121,2125,2076,2082
2071,2070,2061,2124,2132,2133,2078,2075
2068,2061,2062,2120,2088,2112,2081,2077
2066,2064,2056,2110,2045,2090,2053,2068
2058,2049,2043,2068,1977,2050,2021,2048
2041,2041,2031,2044,1994,2025,2010,2037
2033,2033,2030,2041,2119,2026,2025,2033
2023,2031,2028,2060,2208,2032,2015,2055
2026,2037,2033,2055,2190,2032,2043,2068
2042,2042,2032,2044,2175,2032,2034,2076
2049,2048,2043,2045,2177,2026,2042,2078
2049,2048,2038,2021,2034,1995,2042,2076
2041,2031,2034,1997,1950,1992,2039,2084
2048,2034,2032,2013,2077,2023,2041,2070
2043,2036,2032,2035,2190,2067,2056,2064
2029,2034,2039,2054,2238,2073,2066,2061
2026,2041,2038,2053,2204,2056,2070,2063
2033,2052,2047,2063,2172,2063,2083,2074
2050,2052,2047,2078,2204,2088,2082,2058
2047,2045,2044,2080,2149,2102,2069,2046
2041,2041,2039,2064,1938,2097,2052,2039
2032,2044,2050,2072,1963,2093,2064,2041
2039,2050,2050,2083,2104,2106,2066,2046
2047,2055,2056,2080,2159,2092,2045,2055
2052,2048,2045,2062,2185,2057,2042,2046
2044,2044,2037,2026,2133,2002,2018,2035
2043,2036,2026,1979,1949,1962,2015,2025
2041,2033,2035,2002,1887,1980,2010,2015
2028,2036,2043,2033,1921,1976,2015,2006
2026,2033,2034,2026,1937,1968,2019,2012
2040,2031,2037,2032,1905,1960,2008,2034
2060,2044,2043,2044,1955,1977,2040,2032
2058,2047,2038,2049,1953,1968,2036,2032
2043,2032,2026,2032,1927,1963,2032,2028
2031,2024,2025,2030,1930,1994,2053,2036
2038,2036,2041,2049,1988,2047,2056,2044
2053,2050,2047,2053,1977,2072,2057,2056
2053,2052,2044,2041,2016,2075,2060,2067
2045,2053,2044,2024,2034,2056,2046,2070
2039,2051,2040,2029,2115,2072,2066,2075
2054,2052,2050,2061,2254,2109,2078,2084
2062,2062,2057,2075,2282,2132,2085,2086
2064,2057,2049,2061,2252,2133,2085,2094
2059,2052,2045,2056,2199,2116,2070,2078
2044,2039,2032,2044,2092,2123,2086,2080
2044,2036,2033,2058,2149,2158,2065,2072
2038,2038,2041,2081,2256,2180,2058,2064
2025,2034,2042,2095,2249,2130,2051,2062
2033,2047,2040,2056,2090,2070,2059,2064
2033,2037,2036,2015,1943,2011,2044,2054
2034,2039,2034,2001,1859,1921,2045,2061
2041,2058,2053,2026,1933,1924,2024,2060
2051,2064,2057,2039,1993,1968,2035,2052
2051,2059,2056,2046,2018,1986,2030,2036
2051,2052,2052,2036,2024,1986,2039,2024
2046,2040,2036,2025,2012,2000,2021,2020
2031,2025,2033,2026,2031,2043,2029,2021
2030,2029,2033,2038,2067,2061,2032,2029
2038,2030,2038,2040,2082,2079,2035,2035
2047,2037,2045,2046,2071,2102,2045,2031
2043,2036,2043,2056,2091,2082,2042,2029
2036,2031,2042,2058,2084,2051,2011,2016
2027,2030,2040,2049,2026,2033,2014,2012
2024,2032,2036,2043,1980,2010,2007,2023
2037,2051,2053,2081,2080,2021,2034,2039
2052,2055,2061,2106,2142,2050,2068,2040
2050,2054,2061,2080,2095,2045,2070,2038
2046,2044,2048,2039,1972,2035,2049,2035
2041,2040,2038,2019,1966,2043,2046,2031
2038,2039,2033,2023,2049,2047,2058,2034
2032,2031,2026,2038,2075,2050,2060,2042
2029,2032,2032,2040,2064,2053,2072,2048
2045,2053,2052,2050,2075,2057,2069,2057
2049,2060,2059,2047,2060,2051,2062,2065
2050,2047,2050,2040,2048,2035,2052,2060
2036,2031,2031,2022,2035,2021,2031,2063
2025,2026,2033,2046,2080,2053,2039,2070
2033,2036,2046,2054,2063,2057,2031,2079
2044,2052,2061,2052,2015,2004,2023,2080
2047,2036,2052,2039,1986,1976,2027,2077
2038,2035,2047,2033,1956,1996,2021,2080
2054,2046,2048,2037,1920,2043,2023,2066
2048,2043,2045,2021,1881,2072,2028,2059
2036,2046,2038,2015,1868,2073,2036,2047
2031,2039,2037,2009,1839,2059,2037,2041
2029,2031,2033,2020,1869,2028,2039,2049
2038,2039,2040,2060,1977,2038,2063,2060
2049,2044,2055,2080,2091,2073,2063,2060
2051,2051,2060,2089,2218,2101,2071,2060
2052,2059,2066,2110,2269,2115,2074,2061
2054,2059,2072,2119,2280,2110,2063,2051
2056,2057,2060,2103,2285,2094,2072,2050
2051,2050,2053,2089,2341,2077,2056,2041
2048,2047,2047,2089,2347,2052,2040,2033
2044,2037,2034,2048,2217,2030,2026,2018
2039,2027,2021,2000,1898,2001,2014,2008
2037,2023,2027,2015,1942,1993,2022,2013
2044,2027,2034,2049,2079,2016,2040,2018
2038,2037,2047,2069,2163,2045,2036,2030
2035,2039,2042,2084,2064,2050,2036,2027
2040,2041,2044,2069,1955,2044,2057,2025
2050,2035,2048,2050,1922,2038,2047,2030
2044,2033,2043,2038,1912,2037,2050,2033
2040,2027,2039,2013,1883,2049,2029,2026
2040,2031,2033,1993,1885,2084,2021,2026
2039,2031,2030,1991,1944,2095,2026,2033
2041,2032,2032,1990,1979,2082,2025,2031
2049,2033,2032,1995,1992,2050,2016,2027
2038,2025,2031,2005,2015,1996,2028,2055
2046,2036,2044,2063,2136,1995,2072,2084
2061,2048,2060,2101,2206,2053,2076,2096
2069,2055,2063,2101,2185,2100,2084,2089
2070,2044,2057,2100,2139,2134,2094,2084
2062,2033,2049,2087,2111,2129,2087,2088
2060,2040,2060,2087,2112,2111,2070,2078
2050,2048,2068,2083,2083,2086,2055,2076
2047,2050,2063,2067,2070,2077,2063,2068
2043,2051,2065,2058,2121,2096,2075,2061
2043,2049,2064,2047,2194,2084,2063,2056
2046,2042,2051,2025,2156,2046,2044,2050
2051,2049,2052,2029,2096,2046,2048,2056
2049,2047,2060,2035,2063,2042,2040,2050
2042,2034,2043,2001,2029,2023,2025,2033
2031,2031,2029,2000,2074,2019,2028,2031
2034,2034,2036,2058,2168,2022,2017,2019
2032,2042,2047,2105,2233,2023,2028,2012
2046,2043,2044,2102,2248,2023,2029,2014
2048,2045,2048,2084,2136,2002,2031,2014
2043,2039,2058,2056,2012,1987,2021,2006
2032,2033,2040,2012,1870,1994,2016,2005
2035,2030,2041,2014,1835,2005,2011,2012
2034,2036,2046,2036,1888,2008,2024,2014
2038,2036,2040,2042,1957,2017,2034,2021
2045,2041,2044,2043,1981,2038,2040,2034
2042,2039,2045,2044,1985,2066,2066,2048
2036,2031,2041,2038,1993,2077,2064,2043
2039,2048,2049,2046,2024,2103,2075,2048
2054,2056,2066,2076,2086,2126,2102,2060
2060,2062,2065,2094,2113,2128,2083,2070
2056,2050,2064,2081,2113,2094,2087,2064
2051,2042,2054,2053,2035,2032,2080,2051
2036,2029,2041,2056,2116,2036,2066,2052
2037,2026,2053,2081,2155,2033,2047,2060
2033,2024,2051,2072,2137,2024,2072,2060
2030,2019,2045,2063,2132,2041,2062,2068
2029,2022,2040,2062,2097,2038,2070,2061
2028,2018,2034,2054,2055,2032,2028,2059
2028,2016,2033,2045,2012,2031,2035,2061
2036,2022,2032,2023,1917,2037,2046,2058
2041,2031,2032,2015,1941,2062,2075,2071
2054,2039,2050,2048,2005,2073,2062,2062
2055,2042,2051,2056,2068,2091,2077,2057
2051,2038,2046,2062,2092,2112,2070,2048
2054,2034,2044,2069,2072,2088,2052,2037
2043,2028,2040,2057,2045,2055,2036,2016
2033,2031,2047,2054,2037,2037,2034,2021
2026,2035,2043,2043,1995,2024,2055,2026
2026,2033,2047,2036,1968,2028,2045,2028
2026,2034,2040,2034,1991,2034,2044,2021
2025,2027,2036,2027,2017,2040,2032,2021
2026,2033,2043,2043,2096,2061,2034,2016
2028,2041,2049,2080,2159,2076,2049,2024
2033,2039,2049,2073,2118,2073,2060,2020
2025,2029,2043,2065,2105,2075,2044,2018
2032,2031,2052,2060,2086,2067,2066,2023
2039,2047,2057,2058,2078,2041,2037,2025
2044,2051,2059,2060,2105,2031,2041,2028
2047,2055,2064,2069,2133,2039,2044,2041
2051,2053,2062,2071,2107,2040,2033,2039
2053,2053,2067,2069,2056,2041,2075,2045
2051,2056,2062,2062,1980,2035,2073,2058
2056,2052,2058,2029,1905,2028,2074,2065
2062,2047,2058,2035,1949,2042,2077,2061
2056,2048,2057,2029,2012,2068,2072,2072
2056,2040,2057,2049,2112,2111,2070,2072
2053,2040,2049,2069,2196,2124,2061,2077
2050,2035,2052,2069,2186,2114,2069,2084
2053,2033,2045,2062,2140,2093,2057,2067
2047,2032,2045,2062,2091,2081,2058,2057
2042,2031,2049,2062,2055,2073,2062,2060
2041,2032,2046,2043,2002,2064,2061,2056
2043,2037,2037,2008,1898,2052,2039,2050
2032,2031,2035,2003,1881,2038,2032,2044
2038,2034,2039,2032,1962,2034,2036,2040
2044,2037,2049,2051,2000,2015,2023,2044
2045,2037,2046,2040,1999,2002,2027,2035
2048,2035,2042,2035,2036,1999,2032,2036
2050,2042,2055,2068,2182,2036,2034,2041
2053,2053,2064,2082,2221,2063,2046,2042
2065,2062,2069,2076,2186,2059,2038,2038
2062,2058,2061,2061,2133,2047,2048,2036
2055,2047,2056,2058,2098,2043,2058,2036
2048,2048,2055,2057,2082,2048,2049,2031
2056,2054,2055,2057,2075,2042,2062,2026
2054,2053,2054,2053,2075,2027,2049,2020
2047,2049,2053,2056,2079,2026,2013,2012
2042,2036,2046,2048,2079,2029,2021,2019
2044,2040,2044,2056,2075,2049,2036,2031
2050,2045,2057,2066,2082,2058,2050,2037
2043,2042,2054,2064,2084,2072,2049,2036
2044,2039,2049,2063,2085,2077,2030,2038
2046,2037,2047,2062,2084,2072,2056,2049
2052,2042,2049,2065,2084,2067,2045,2042
2051,2044,2046,2057,2076,2072,2037,2044
2045,2032,2044,2057,2067,2077,2045,2048
2044,2032,2047,2056,2067,2074,2039,2040
2032,2030,2038,2059,2067,2071,2044,2040
2035,2027,2040,2057,2063,2036,2038,2052
2039,2030,2040,2061,2075,2013,2063,2066
2044,2034,2045,2062,2077,2017,2087,2070
2049,2037,2046,2064,2078,2031,2048,2076
2047,2040,2046,2064,2074,2049,2055,2077
2041,2033,2044,2061,2070,2045,2061,2065
2031,2019,2040,2057,2059,2039,2059,2060
2028,2024,2034,2054,2051,2039,2068,2064
2032,2031,2038,2052,2042,2036,2056,2059
2032,2029,2032,2052,2041,2038,2060,2057
2039,2027,2039,2052,2042,2048,2044,2059
2041,2029,2040,2047,2033,2048,2053,2057
2046,2042,2041,2047,2034,2041,2040,2048
2042,2039,2045,2052,2038,2043,2051,2039
2047,2043,2043,2060,2048,2058,2048,2033
2044,2041,2048,2065,2057,2053,2033,2033
2039,2043,2050,2063,2058,2049,2054,2027
2034,2045,2051,2066,2054,2042,2038,2022
2029,2052,2051,2069,2055,2039,2041,2016
2036,2048,2052,2068,2062,2044,2040,2022
2043,2050,2054,2071,2061,2054,2061,2023
2048,2046,2059,2074,2065,2057,2062,2027
2050,2043,2044,2069,2059,2066,2072,2029
2046,2039,2046,2068,2053,2074,2056,2025
2050,2040,2045,2069,2059,2086,2050,2028
2055,2046,2050,2070,2057,2080,2076,2034
2053,2041,2041,2066,2068,2081,2070,2034
2052,2039,2034,2062,2067,2075,2035,2041
2050,2037,2035,2059,2062,2065,2041,2038
2048,2047,2032,2065,2054,2060,2047,2042
2045,2051,2034,2053,2058,2051,2072,2042
2042,2050,2038,2059,2064,2032,2049,2045
2044,2047,2042,2067,2061,2023,2055,2051
2051,2045,2035,2066,2060,2006,2042,2058
2047,2042,2031,2058,2056,1996,2036,2064
2044,2039,2034,2055,2049,1983,2034,2071
2042,2037,2036,2046,2051,1994,2034,2066
2040,2040,2044,2052,2043,2012,2028,2067
2042,2039,2052,2046,2048,2026,2049,2064
2025,2027,2048,2044,2044,2032,2012,2052
2028,2029,2044,2042,2041,2031,2043,2062
2041,2041,2057,2038,2044,2044,2057,2069
2042,2041,2059,2039,2048,2051,2055,2058
2043,2039,2067,2039,2058,2061,2058,2065
2044,2046,2076,2050,2060,2058,2062,2061
2047,2055,2079,2052,2057,2061,2064,2057
2052,2056,2072,2051,2059,2052,2036,2049
2044,2054,2068,2055,2042,2030,2024,2040
2041,2046,2064,2047,2041,2019,2016,2039
2048,2047,2065,2048,2046,2029,2041,2040
2051,2049,2071,2054,2055,2044,2059,2032
2052,2052,2073,2058,2062,2042,2050,2032
2046,2052,2082,2060,2060,2044,2034,2028
2043,2045,2072,2056,2054,2047,2045,2023
2034,2044,2070,2059,2055,2048,2045,2016
2042,2045,2069,2060,2053,2041,2035,2012
2033,2028,2057,2049,2045,2030,2029,2012
2034,2025,2050,2043,2044,2047,2044,2023
2041,2034,2045,2050,2048,2071,2062,2030
2040,2029,2037,2040,2039,2071,2052,2036
2036,2020,2027,2036,2034,2067,2046,2033
2036,2021,2024,2038,2031,2055,2036,2042
2040,2023,2036,2052,2038,2026,2026,2041
2048,2031,2042,2075,2061,2006,2046,2052
2054,2030,2037,2088,2070,2011,2041,2055
2050,2034,2034,2088,2070,2022,2052,2055
2039,2033,2030,2088,2086,2050,2044,2044
2038,2035,2021,2088,2076,2080,2034,2046
2033,2022,2016,2080,2074,2094,2064,2052
2031,2020,2005,2069,2069,2067,2057,2056
2027,2020,1998,2062,2059,2038,2052,2060
2026,2018,2000,2057,2033,2035,2058,2070
2030,2025,2005,2056,2007,2042,2063,2069
2033,2027,2024,2064,2022,2060,2065,2080
2040,2034,2041,2077,2060,2076,2095,2091
2047,2054,2058,2089,2064,2086,2080,2094
2050,2057,2077,2087,2067,2089,2081,2078
2056,2059,2082,2076,2076,2100,2073,2072
2055,2056,2092,2059,2115,2128,2057,2062
2057,2060,2112,2066,2166,2144,2060,2057
2054,2072,2124,2061,2120,2103,2051,2043
2054,2070,2117,2022,1969,2000,2038,2032
2046,2053,2108,2015,1986,2016,2052,2025
2039,2053,2106,2033,2094,2060,2030,2024
2042,2060,2111,2057,2158,2075,2041,2024
2041,2068,2105,2068,2149,2083,2049,2021
2045,2070,2092,2045,2035,2059,2020,2021
2044,2062,2074,2038,2007,2049,2018,2015
2043,2061,2073,2054,2014,2062,2028,2016
2048,2051,2062,2054,2003,2053,2022,2012
2035,2041,2050,2051,2012,2044,2022,2018
2030,2047,2048,2057,2016,2015,2015,2027
2041,2053,2056,2041,1966,1998,2016,2032
2051,2058,2052,2026,1964,2025,2020,2040
2050,2058,2056,2043,2078,2066,2060,2037
2048,2058,2061,2061,2118,2084,2061,2037
2051,2060,2067,2068,2087,2077,2058,2038
2048,2054,2061,2053,2067,2073,2057,2037
2038,2047,2053,2048,2086,2067,2054,2036
2037,2048,2063,2054,2092,2058,2058,2048
2044,2057,2078,2064,2133,2064,2054,2054
2046,2062,2077,2048,2089,2040,2038,2054
2029,2054,2075,2040,1990,2022,2035,2058
2040,2058,2077,2048,1944,2020,2040,2063
2039,2052,2079,2043,1959,2031,2017,2064
2035,2055,2070,2038,1983,2057,2024,2049
2029,2045,2061,2023,1956,2059,1990,2044
2024,2038,2052,2007,1909,2049,2015,2050
2033,2044,2052,2009,1878,2020,2023,2042
2028,2040,2049,2011,1908,1979,2003,2043
2029,2041,2052,2027,1968,1948,2021,2054
2044,2050,2067,2070,2077,1994,2052,2071
2058,2067,2081,2110,2146,2069,2055,2070
2067,2068,2085,2122,2188,2121,2070,2064
2065,2061,2079,2115,2192,2132,2066,2056
2058,2060,2076,2098,2162,2104,2051,2046
2051,2056,2063,2062,2101,2073,2045,2042
2050,2054,2068,2050,2084,2045,2039,2036
2049,2052,2061,2044,2027,2002,2024,2032
2043,2054,2055,2043,2016,1987,2031,2028
2044,2041,2057,2048,2020,2015,2032,2028
2044,2045,2057,2070,2041,2045,2044,2031
2050,2051,2053,2058,2040,2053,2044,2029
2038,2041,2048,2045,2019,2053,2034,2017
2044,2039,2050,2048,2056,2067,2045,2028
2046,2049,2054,2060,2099,2089,2054,2027
2045,2049,2052,2060,2109,2094,2065,2030
2048,2049,2050,2059,2077,2072,2055,2029
2045,2053,2051,2052,2041,2041,2054,2036
2050,2056,2052,2056,2033,2031,2066,2041
2050,2055,2050,2056,2039,2033,2059,2043
2047,2053,2050,2052,2040,2040,2062,2042
2040,2052,2051,2050,2046,2062,2044,2047
2041,2050,2047,2053,2062,2077,2043,2058
2040,2052,2050,2059,2057,2076,2041,2065
2046,2054,2053,2059,2055,2040,2056,2071
2050,2056,2055,2059,2055,2033,2061,2064
2036,2051,2050,2056,2047,2032,2055,2067
2043,2050,2053,2056,2051,2032,2044,2068
2041,2050,2049,2054,2043,2027,2037,2057
2035,2039,2039,2047,2038,2035,2045,2064
2031,2041,2043,2055,2029,2043,2032,2072
2042,2049,2045,2055,2042,2060,2050,2063
2039,2049,2052,2052,2043,2067,2035,2063
2044,2049,2050,2053,2041,2060,2033,2054
2046,2051,2049,2055,2047,2024,2038,2042
2043,2051,2050,2053,2044,1997,2018,2043
2049,2050,2049,2052,2043,2008,2024,2040
2051,2049,2040,2045,2042,2029,2038,2035
2051,2052,2043,2044,2042,2038,2055,2037
2049,2050,2041,2046,2045,2031,2044,2025
2047,2046,2039,2037,2029,2010,2039,2023
2048,2045,2039,2032,2005,1995,2032,2016
2044,2042,2045,2029,1986,1982,2042,2009
2051,2047,2056,2024,1976,1983,2041,2003
2044,2040,2053,2018,1978,1997,2031,1997
2038,2039,2053,2029,2008,2025,2033,2003
2042,2044,2053,2046,2057,2055,2054,2012
2045,2056,2059,2063,2099,2093,2080,2030
2049,2057,2059,2068,2114,2099,2076,2032
2054,2060,2056,2063,2109,2090,2070,2027
2052,2053,2053,2053,2080,2073,2050,2025
2045,2050,2050,2053,2068,2062,2050,2032
2047,2052,2057,2049,2054,2046,2057,2028
2048,2056,2049,2045,2053,2044,2050,2034
2051,2056,2050,2045,2048,2036,2043,2036
2046,2049,2050,2041,2041,2035,2038,2037
2033,2044,2052,2047,2044,2033,2059,2050
2041,2047,2051,2043,2045,2045,2060,2057
2042,2047,2046,2046,2058,2055,2082,2065
2049,2058,2054,2050,2061,2072,2070,2078
2053,2060,2061,2052,2051,2067,2058,2075
2044,2061,2062,2055,2050,2066,2053,2067
2041,2046,2047,2044,2042,2060,2050,2070
2033,2039,2038,2041,2037,2058,2059,2078
2043,2050,2047,2042,2034,2062,2060,2074
2049,2051,2054,2048,2051,2058,2052,2070
2043,2049,2052,2046,2043,2048,2037,2061
2046,2048,2054,2046,2051,2049,2029,2059
2048,2052,2052,2047,2042,2054,2056,2058
2045,2053,2053,2050,2038,2057,2056,2056
2042,2051,2052,2049,2035,2059,2060,2044
2044,2045,2049,2043,2038,2066,2039,2036
2051,2051,2056,2050,2047,2052,2046,2039
2048,2047,2058,2051,2043,2028,2032,2038
2048,2051,2053,2049,2041,2014,2036,2028
2051,2046,2050,2050,2039,2022,2029,2027
2044,2048,2049,2050,2046,2034,2049,2025
2052,2047,2052,2050,2043,2042,2037,2026
2044,2044,2055,2051,2037,2024,2034,2019
2036,2033,2045,2035,2026,2014,2027,2022
2040,2033,2046,2039,2033,2025,2049,2031
2047,2050,2056,2051,2041,2030,2056,2036
2045,2054,2051,2053,2044,2032,2046,2035
2048,2054,2051,2054,2043,2039,2052,2031
2052,2057,2057,2053,2044,2032,2062,2034
2054,2056,2054,2053,2045,2045,2070,2040
2053,2056,2058,2049,2043,2054,2056,2048
2055,2052,2061,2049,2045,2057,2063,2048
2053,2055,2058,2052,2044,2064,2030,2059
2062,2058,2059,2056,2043,2062,2040,2064
2056,2056,2057,2053,2036,2049,2038,2066
2048,2055,2051,2043,2034,2033,2032,2062
2047,2052,2052,2043,2038,2022,2052,2068
2045,2052,2057,2041,2039,2026,2054,2076
2044,2053,2052,2040,2044,2024,2038,2083
2049,2049,2047,2034,2021,2015,2024,2080
2040,2036,2045,2024,2008,2004,2027,2071
2032,2040,2053,2026,2016,2021,2029,2071
2043,2051,2058,2037,2034,2053,2034,2071
2046,2049,2061,2048,2060,2054,2034,2068
2041,2056,2059,2056,2053,2053,2031,2073
2048,2056,2057,2056,2042,2051,2026,2069
2048,2052,2057,2053,2029,2053,2032,2056
2047,2051,2053,2050,2024,2052,2037,2048
2046,2053,2056,2047,2017,2056,2013,2043
2052,2050,2056,2030,2011,2049,2019,2042
2045,2047,2053,2030,2007,2037,2036,2046
2045,2044,2045,2021,2030,2034,2043,2043
2042,2039,2049,2026,2035,2042,2048,2037
2049,2049,2055,2029,2029,2037,2052,2037
2056,2055,2061,2036,2024,2037,2050,2039
2061,2051,2056,2037,2018,2043,2058,2037
2050,2044,2047,2038,2023,2051,2064,2036
2052,2042,2048,2041,2049,2059,2094,2047
2062,2054,2060,2045,2051,2062,2096,2051
2061,2051,2050,2045,2030,2052,2087,2050
2059,2047,2048,2043,2029,2021,2086,2039
2050,2039,2050,2044,2027,2003,2063,2036
2048,2042,2043,2043,2024,1997,2060,2033
2048,2045,2046,2055,2034,2009,2065,2028
2054,2047,2050,2050,2031,2030,2037,2022
2044,2043,2053,2050,2030,2067,2036,2030
2045,2042,2044,2054,2038,2093,2056,2044
2045,2041,2036,2049,2062,2094,2073,2055
2048,2040,2038,2046,2072,2064,2066,2063
2051,2043,2028,2044,2080,2038,2050,2063
2045,2038,2026,2048,2056,2036,2045,2062
2043,2033,2025,2058,2057,2039,2048,2068
2048,2034,2025,2048,2023,2036,2053,2070
2039,2027,2021,2042,1997,2044,2040,2069
2037,2019,2026,2037,1987,2052,2040,2068
2040,2033,2026,2033,1998,2057,2039,2061
2039,2035,2019,2030,2002,2047,2049,2054
2040,2024,2011,2018,2001,2045,2055,2051
2039,2029,2008,2022,2037,2068,2039,2048
2041,2029,2019,2034,2054,2062,2033,2038
2043,2025,2023,2029,2046,2024,2046,2040
2046,2028,2022,2029,2060,2012,2029,2033
2043,2035,2027,2034,2083,2021,2039,2035
2050,2038,2029,2049,2111,2039,2052,2034
2055,2041,2025,2054,2098,2052,2054,2034
2050,2036,2028,2064,2091,2053,2047,2031
2048,2034,2030,2071,2057,2044,2046,2023
2043,2027,2041,2081,2042,2039,2028,2024
2044,2030,2059,2086,2036,2051,2026,2019
2038,2031,2066,2096,2057,2045,2029,2013
2039,2029,2067,2101,2072,2054,2027,2010
2039,2027,2081,2114,2084,2051,2045,2019
2049,2041,2091,2122,2070,2048,2035,2026
2042,2043,2084,2118,2050,2045,2032,2028
2041,2042,2085,2111,2057,2040,2031,2025
2045,2043,2075,2098,2055,2038,2036,2036
2040,2043,2073,2082,2071,2041,2054,2043
2043,2051,2072,2078,2081,2037,2042,2046
2053,2059,2069,2073,2076,2030,2047,2051
2065,2067,2073,2088,2104,2045,2039,2062
2071,2081,2066,2089,2118,2058,2052,2066
2059,2080,2061,2066,2115,2047,2055,2066
2059,2073,2044,2032,2102,2033,2047,2076
2054,2063,2031,2008,2078,2020,2032,2077
2053,2055,2027,1976,1987,2008,2031,2076
2047,2052,2020,1952,1920,2012,2035,2080
2045,2046,2005,1939,1966,2035,2025,2075
2042,2044,2001,1943,2003,2056,2045,2080
2050,2054,2002,1951,2022,2057,2064,2088
2056,2054,2006,1961,2029,2077,2060,2083
2053,2051,2012,1977,2035,2090,2058,2071
2053,2049,2012,1986,2034,2088,2064,2067
2050,2047,2011,2001,2031,2084,2056,2068
2055,2046,2010,2003,2029,2095,2061,2055
2060,2049,2010,2004,2032,2090,2073,2046
2057,2050,2012,2012,2043,2092,2087,2048
2055,2046,2011,2007,2051,2087,2084,2042
2051,2043,2008,2008,2052,2084,2076,2037
2051,2046,2020,2014,2054,2063,2079,2039
2054,2053,2019,2020,2053,2043,2052,2036
2049,2051,2029,2014,2039,2025,2031,2028
2056,2047,2032,2017,2048,1990,2040,2038
2051,2058,2044,2034,2061,1984,2066,2035
2042,2051,2053,2022,2058,1993,2065,2029
2047,2050,2062,2026,2072,1998,2053,2026
2046,2053,2076,2031,2082,2004,2043,2026
2052,2056,2085,2036,2093,2006,2045,2020
2050,2067,2099,2046,2108,2020,2036,2026
2052,2065,2108,2058,2118,2033,2043,2031
2050,2069,2107,2062,2108,2045,2027,2031
2052,2069,2101,2061,2085,2049,2035,2040
2057,2060,2100,2046,2020,2036,2040,2049
2055,2054,2086,2026,1908,2030,2042,2052
2057,2051,2081,2026,1939,2058,2060,2053
2063,2057,2088,2044,1987,2075,2062,2054
2067,2066,2091,2047,1966,2064,2053,2054
2060,2061,2088,2036,1946,2040,2023,2063
2054,2056,2074,2027,1922,2012,2031,2056
2049,2043,2062,2007,1919,1949,2023,2044
2037,2031,2053,2004,1946,1938,2026,2042
2042,2025,2056,2042,2010,1986,2043,2059
2050,2045,2074,2081,2088,2031,2069,2075
2057,2062,2075,2081,2072,2044,2056,2077
2066,2062,2071,2057,2055,2033,2033,2066
2067,2070,2068,2038,2080,2021,2017,2059
2064,2066,2066,2040,2093,2023,2020,2057
2053,2070,2065,2053,2092,2020,2020,2055
2057,2068,2069,2046,2048,2020,2032,2045
2056,2057,2065,2044,2037,2033,2035,2033
2056,2055,2059,2054,2059,2058,2037,2028
2049,2048,2051,2052,2058,2090,2059,2022
2043,2048,2055,2064,2065,2113,2056,2016
2044,2044,2050,2050,2073,2146,2035,2024
2046,2045,2043,2042,2086,2154,2052,2022
2041,2043,2040,2039,2115,2140,2049,2021
2050,2045,2044,2056,2163,2120,2081,2035
2057,2052,2046,2058,2157,2058,2083,2050
2059,2050,2056,2062,2097,1992,2082,2049
2056,2057,2058,2059,2048,2018,2093,2051
2064,2064,2054,2046,1990,2056,2062,2042
2058,2066,2058,2038,1975,2076,2057,2041
2051,2058,2052,2041,2029,2106,2057,2031
2044,2050,2047,2048,2041,2131,2062,2035
2058,2047,2047,2048,2046,2106,2030,2039
2052,2054,2055,2050,2039,2018,2011,2039
2054,2058,2047,2044,2027,1946,2016,2045
2057,2054,2048,2044,2036,1970,2033,2054
2051,2056,2048,2049,2039,2006,2048,2062
2054,2057,2054,2047,2045,2024,2040,2071
2055,2053,2052,2049,2048,2034,2046,2071
2050,2049,2047,2047,2038,2032,2052,2063
2052,2046,2043,2047,2047,2047,2053,2074
2059,2046,2037,2049,2050,2055,2060,2072
2048,2041,2033,2038,2037,2039,2048,2069
2038,2037,2035,2033,2015,2026,2036,2072
2050,2046,2049,2043,2013,2024,2062,2065
2050,2053,2050,2043,2038,2034,2058,2070
2061,2058,2052,2049,2037,2040,2060,2067
2066,2064,2064,2058,2036,2045,2070,2079
2072,2071,2065,2062,2028,2058,2073,2075
2075,2071,2068,2067,2040,2058,2070,2065
2068,2068,2059,2055,2029,2048,2042,2041
2051,2055,2049,2027,1965,2030,2035,2024
2040,2047,2048,2013,1925,2022,2038,2023
2047,2054,2047,2019,1922,2039,2039,2033
2056,2051,2043,2021,1939,2009,2027,2025
2044,2051,2036,2012,1958,1963,2030,2027
2052,2054,2044,2049,2068,1995,2076,2043
2061,2060,2053,2076,2153,2033,2072,2053
2061,2060,2061,2090,2201,2050,2082,2053
2061,2058,2057,2082,2197,2068,2081,2046
2058,2050,2060,2078,2165,2078,2062,2043
2057,2059,2057,2071,2078,2066,2077,2042
2057,2049,2046,2045,1927,2061,2079,2035
2047,2050,2045,2055,1969,2072,2082,2043
2050,2050,2047,2064,2016,2075,2075,2052
2052,2044,2036,2053,2030,2069,2076,2053
2054,2038,2030,2046,2021,2068,2073,2054
2047,2032,2026,2038,2020,2069,2074,2064
2051,2035,2030,2030,2010,2073,2079,2070
2052,2042,2024,2024,2031,2070,2088,2066
2050,2040,2021,2017,2035,2076,2078,2064
2048,2043,2020,2014,2052,2095,2088,2075
2057,2046,2028,2025,2070,2106,2086,2086
2062,2050,2027,2024,2040,2115,2080,2097
2063,2062,2037,2025,2007,2101,2064,2103
2069,2068,2052,2036,2005,2094,2054,2094
2059,2065,2045,2029,1972,2059,2064,2087
2054,2058,2046,2018,1862,1997,2050,2079
2054,2060,2044,1998,1767,1956,2030,2065
2055,2060,2042,1988,1839,1963,2025,2069
2051,2054,2034,2001,2035,2000,2042,2061
2051,2053,2030,2027,2180,2037,2055,2055
2047,2051,2034,2040,2198,2061,2065,2053
2041,2047,2039,2040,2151,2058,2057,2053
2041,2051,2044,2052,2109,2049,2047,2045
2053,2056,2054,2055,2073,2037,2055,2053
2059,2059,2062,2059,2050,2024,2057,2047
2062,2063,2061,2055,2057,2027,2061,2047
2056,2061,2060,2055,2066,2032,2046,2043
2050,2061,2053,2047,2068,2034,2048,2043
2054,2057,2046,2051,2068,2047,2041,2036
2060,2061,2047,2046,2059,2052,2075,2044
2056,2061,2044,2049,2053,2052,2059,2040
2050,2051,2040,2046,2051,2056,2076,2031
2057,2052,2040,2051,2056,2066,2079,2041
2055,2057,2045,2050,2049,2064,2078,2037
2047,2051,2043,2046,2051,2062,2086,2048
2052,2047,2042,2054,2056,2054,2066,2047
2051,2046,2049,2046,2052,2051,2067,2051
2047,2042,2050,2052,2056,2053,2067,2053
2054,2049,2047,2063,2064,2062,2065,2059
2053,2048,2049,2066,2064,2053,2050,2059
2054,2045,2052,2066,2055,2042,2049,2059
2063,2046,2054,2060,2047,2030,2041,2065
2057,2048,2055,2055,2048,2024,2052,2068
2050,2057,2052,2064,2051,2033,2059,2066
2051,2055,2053,2065,2070,2023,2052,2067
2052,2051,2050,2075,2074,2023,2046,2072
2047,2049,2050,2077,2079,2059,2041,2069
2042,2036,2037,2065,2064,2066,2056,2069
2047,2031,2034,2062,2065,2054,2051,2074
2047,2046,2042,2066,2098,2053,2050,2083
2054,2049,2045,2068,2129,2062,2057,2086
2056,2056,2046,2057,2121,2049,2057,2079
2059,2064,2044,2051,2132,2055,2051,2075
2062,2058,2039,2048,2121,2054,2051,2065
2061,2059,2037,2043,2083,2051,2049,2062
2062,2056,2036,2036,2036,2053,2050,2054
2057,2056,2026,2031,1959,2046,2040,2052
2058,2053,2030,2014,1891,2031,2045,2046
2056,2054,2031,2015,1920,2036,2051,2050
2049,2054,2031,2021,1971,2040,2053,2046
2055,2061,2030,2026,1998,2042,2066,2047
2055,2059,2032,2034,1993,2042,2039,2041
2055,2048,2039,2037,1983,2043,2047,2044
2055,2050,2048,2037,1983,2044,2043,2033
2050,2043,2061,2043,1981,2045,2045,2035
2050,2048,2070,2046,1976,2050,2052,2041
2060,2068,2077,2054,1968,2050,2057,2050
2065,2069,2081,2054,1955,2043,2064,2042
2061,2064,2078,2058,1963,2046,2063,2037
2056,2064,2075,2062,1980,2059,2056,2036
2051,2058,2081,2075,2016,2063,2048,2040
2053,2052,2083,2091,2076,2045,2027,2032
2047,2050,2082,2097,2093,2048,2029,2037
2040,2045,2080,2098,2104,2058,2047,2053
2050,2048,2075,2087,2130,2069,2052,2060
2045,2052,2068,2079,2165,2070,2058,2060
2044,2053,2064,2069,2124,2057,2055,2067
2047,2056,2060,2066,2066,2048,2064,2072
2052,2054,2051,2050,2035,2050,2061,2075
2045,2049,2037,2037,2054,2051,2076,2074
2043,2047,2035,2031,2058,2055,2066,2076
2041,2036,2029,2034,2071,2064,2068,2077
2043,2036,2025,2033,2084,2075,2076,2076
2053,2044,2024,2026,2068,2068,2060,2076
2050,2047,2013,2018,2032,2068,2064,2069
2056,2051,2012,2012,2012,2054,2053,2073
2061,2049,2017,2013,2038,2044,2053,2068
2055,2049,2013,1999,2012,2016,2050,2062
2056,2046,2005,1975,1947,1990,2036,2053
2045,2035,2003,1967,1936,1979,2032,2050
2051,2033,2002,1969,1934,1986,2033,2043
2054,2033,2006,1977,1965,2003,2032,2042
2058,2049,2022,1986,1995,2023,2031,2045
2052,2060,2035,2001,2024,2056,2028,2041
2057,2067,2045,2027,2036,2067,2048,2044
2066,2070,2049,2038,2038,2065,2061,2035
2065,2068,2050,2033,2047,2021,2042,2049
2060,2062,2046,2034,2056,1993,2045,2040
2050,2053,2037,2024,2069,1994,2024,2034
2062,2057,2043,2034,2090,2021,2039,2039
2064,2058,2052,2039,2056,2020,2056,2037
2058,2059,2048,2028,2028,2035,2072,2042
2059,2054,2040,2033,2044,2064,2054,2048
2058,2058,2037,2036,2055,2120,2074,2052
2062,2061,2037,2036,2060,2112,2069,2052
2056,2049,2032,2023,2050,2069,2062,2053
2054,2046,2024,2013,2044,2063,2063,2049
2051,2037,2024,2017,2073,2067,2052,2061
2053,2037,2019,2020,2068,2076,2068,2065
2054,2046,2019,2021,2059,2086,2063,2082
2062,2054,2022,2024,2056,2074,2050,2077
2061,2053,2034,2029,2051,2059,2060,2081
2067,2055,2024,2026,2050,2043,2061,2085
2068,2056,2023,2036,2043,2040,2031,2083
2056,2044,2012,2029,2043,2017,2037,2077
2048,2039,2009,2039,2039,2016,2019,2074
2055,2048,2015,2042,2030,2024,2027,2072
2059,2049,2019,2048,2034,2041,2039,2079
2064,2050,2031,2053,2030,2055,2055,2068
2058,2047,2033,2055,2027,2057,2052,2068
2058,2050,2026,2050,2015,2059,2053,2059
2058,2046,2026,2044,2016,2068,2056,2048
2051,2042,2017,2041,2017,2093,2047,2042
2051,2037,2018,2039,2014,2099,2046,2039
2050,2039,2018,2040,2012,2108,2047,2031
2048,2039,2029,2041,2029,2095,2046,2033
2052,2042,2039,2044,2064,2065,2053,2042
2054,2055,2046,2053,2084,2037,2054,2048
2063,2056,2048,2059,2053,2048,2076,2056
2065,2056,2042,2055,2056,2082,2081,2040
2056,2037,2024,2024,2024,2074,2069,2023
2043,2020,2010,2000,1997,2047,2056,2014
2037,2023,2020,2002,1997,2033,2041,2019
2044,2036,2034,2023,2031,2028,2031,2026
2035,2031,2032,2021,2032,2024,2030,2028
2041,2032,2030,2008,2025,2028,2037,2036
2041,2032,2037,2008,2030,2024,2040,2043
2048,2047,2059,2016,2034,2016,2036,2051
2047,2062,2080,2034,2062,2037,2051,2053
2052,2078,2090,2043,2085,2063,2054,2054
2055,2078,2087,2058,2100,2069,2050,2056
2052,2068,2084,2062,2106,2080,2077,2064
2052,2067,2081,2054,2098,2080,2059,2060
2046,2066,2073,2055,2089,2089,2074,2070
2047,2060,2064,2046,2074,2077,2080,2078
2048,2061,2069,2039,2067,2064,2065,2086
2048,2062,2069,2044,2054,2068,2031,2088
2053,2064,2064,2046,2048,2056,2037,2076
2046,2060,2067,2052,2035,2044,2034,2073
2051,2064,2071,2051,2020,2029,2017,2073
2057,2072,2072,2046,2016,2027,2033,2070
2056,2067,2065,2044,2020,2015,2032,2075
2056,2067,2073,2046,2015,2014,2039,2071
2057,2064,2081,2048,2017,2026,2050,2068
2058,2064,2077,2047,2016,2036,2015,2059
2058,2067,2074,2049,2019,2045,2050,2056
2055,2071,2071,2049,2030,2043,2031,2053
2056,2069,2067,2045,2024,2035,2024,2045
2056,2063,2067,2047,2028,2037,2031,2045
2057,2062,2068,2055,2048,2047,2045,2047
2056,2059,2068,2061,2065,2050,2048,2045
2057,2052,2069,2064,2086,2054,2043,2041
2053,2055,2061,2067,2103,2066,2059,2030
2053,2052,2052,2067,2087,2080,2038,2018
2039,2043,2045,2057,2076,2078,2041,2020
2036,2036,2042,2052,2057,2084,2073,2030
2048,2052,2050,2058,2072,2089,2081,2042
2050,2056,2050,2050,2043,2075,2056,2037
2054,2059,2051,2026,1942,2051,2070,2039
2058,2055,2052,2018,1952,2033,2053,2041
2054,2055,2060,2028,2029,2037,2063,2048
2055,2063,2063,2045,2045,2046,2037,2063
2060,2062,2069,2051,2060,2048,2076,2070
2064,2058,2064,2056,2076,2064,2048,2068
2058,2056,2059,2054,2088,2065,2070,2064
2050,2049,2054,2047,2065,2060,2065,2063
2045,2049,2050,2040,2065,2061,2064,2068
2052,2046,2043,2034,2051,2057,2054,2069
2051,2041,2033,2027,2044,2050,2054,2064
2044,2041,2029,2017,2004,2019,2049,2071
2042,2029,2021,1998,1934,1970,2027,2064
2032,2021,2011,1998,1914,1958,2006,2062
2029,2016,2010,1995,1932,1971,2005,2056
2023,2022,2008,1990,1947,1985,1989,2043
2013,2020,2011,2003,2012,2026,2016,2049
2032,2036,2037,2052,2096,2074,2036,2048
2048,2045,2044,2073,2135,2096,2068,2056
2049,2050,2048,2066,2129,2095,2059,2056
2048,2053,2037,2056,2078,2071,2062,2041
2053,2044,2027,2038,2042,2036,2064,2048
2054,2052,2041,2044,2048,2037,2061,2043
2059,2052,2049,2049,2040,2036,2060,2045
2056,2058,2053,2048,2034,2034,2035,2040
2058,2052,2049,2049,2017,2034,2050,2036
2050,2046,2046,2044,2016,2033,2043,2031
2054,2048,2042,2045,2029,2041,2054,2036
2054,2050,2040,2047,2040,2037,2032,2032
2042,2047,2039,2041,2064,2039,2042,2029
2044,2058,2043,2030,2044,2032,2056,2029
2045,2060,2049,2035,2007,2033,2064,2039
2048,2062,2052,2045,2030,2047,2051,2039
2048,2063,2049,2052,2058,2070,2068,2042
2050,2061,2046,2050,2132,2105,2080,2049
2056,2061,2045,2036,2108,2110,2067,2050
2059,2070,2047,2031,2027,2112,2068,2056
2054,2067,2050,2032,2013,2102,2056,2052
2048,2059,2050,2028,1993,2088,2064,2049
2044,2051,2044,2026,1953,2069,2057,2050
2045,2052,2047,2041,2024,2051,2052,2062
2055,2064,2060,2063,2062,2049,2052,2075
2058,2065,2067,2069,2098,2056,2077,2082
2054,2062,2064,2069,2097,2057,2082,2090
2058,2068,2059,2066,2090,2051,2097,2090
2055,2064,2064,2066,2087,2034,2085,2090
2052,2050,2044,2065,2106,2043,2067,2083
2049,2049,2049,2079,2124,2083,2089,2092
2047,2050,2052,2073,2120,2094,2088,2085
2048,2049,2051,2043,2049,2067,2035,2070
2050,2048,2050,2005,1933,2039,2043,2061
2044,2049,2060,1995,1843,2008,2052,2053
2048,2061,2073,2033,1909,1993,2052,2059
2056,2072,2083,2063,2028,2030,2065,2055
2057,2064,2082,2071,2091,2060,2045,2058
2056,2064,2083,2072,2089,2072,2031,2051
2056,2064,2068,2061,2079,2062,2030,2047
2050,2058,2060,2050,2058,2050,2053,2045
2059,2048,2054,2052,2038,2031,2050,2047
2058,2050,2049,2041,2035,2026,2055,2047
2061,2044,2052,2041,2039,2030,2062,2050
2054,2046,2052,2045,2039,2038,2049,2040
2047,2050,2054,2048,2033,2031,2039,2040
2050,2044,2046,2052,2056,2032,2029,2026
2045,2052,2049,2056,2078,2040,2013,2027
2049,2059,2052,2058,2066,2060,2018,2027
2051,2050,2047,2042,2049,2085,2024,2024
2037,2046,2044,2036,2031,2074,2034,2034
2043,2046,2042,2039,2044,2063,2032,2034
2038,2050,2045,2054,2050,2052,2039,2040
2047,2051,2046,2047,2036,2041,2008,2046
2049,2046,2038,2043,2029,2036,2030,2054
2044,2053,2044,2047,2035,2055,2043,2055
2047,2050,2046,2042,2040,2045,2064,2057
2040,2041,2040,2045,2031,2037,2055,2064
2041,2041,2037,2032,2042,2039,2057,2069
2043,2038,2036,2034,2054,2039,2043,2064
2034,2033,2036,2042,2057,2035,2039,2061
2037,2028,2034,2048,2056,2030,2031,2070
2034,2023,2040,2044,2061,2037,2030,2070
2034,2023,2039,2053,2078,2048,2032,2074
2037,2036,2046,2052,2084,2050,2048,2081
2043,2042,2042,2054,2094,2060,2052,2071
2043,2045,2045,2054,2092,2059,2051,2071
2044,2039,2046,2053,2090,2060,2055,2060
2045,2047,2052,2055,2094,2057,2037,2048
2040,2051,2054,2063,2110,2056,2030,2043
2052,2049,2053,2064,2111,2058,2026,2037
2046,2049,2054,2050,2049,2044,2030,2030
2057,2049,2049,2034,1973,2033,2020,2023
2050,2050,2053,2034,2010,2043,2020,2036
2054,2048,2052,2047,2044,2052,2039,2041
2053,2045,2048,2041,2029,2045,2017,2040
2059,2048,2051,2042,2030,2050,2032,2035
2067,2048,2052,2038,2034,2059,2017,2041
2058,2044,2049,2036,2035,2047,2015,2026
2048,2033,2029,2023,2020,2042,2039,2019
2047,2032,2027,2036,2032,2051,2049,2028
2054,2044,2040,2054,2048,2061,2042,2031
2052,2045,2050,2064,2049,2061,2054,2035
2050,2041,2067,2075,2043,2061,2046,2051
2045,2045,2075,2076,2036,2044,2050,2059
2058,2047,2068,2086,2044,2040,2057,2062
2057,2055,2070,2096,2047,2046,2054,2061
2057,2045,2070,2103,2041,2049,2061,2055
2053,2048,2066,2095,2031,2043,2042,2050
2054,2047,2062,2091,2022,2035,2027,2054
2048,2042,2056,2086,2043,2032,2040,2054
2048,2042,2060,2084,2060,2038,2030,2062
2044,2042,2050,2093,2065,2051,2041,2062
2046,2043,2034,2081,2054,2053,2047,2064
2040,2040,2028,2078,2048,2045,2038,2068
2034,2029,2015,2054,2031,2033,2029,2066
2029,2024,2005,2042,2018,2030,2033,2068
2034,2031,2014,2034,2057,2051,2047,2070
2034,2041,2007,2024,2072,2048,2038,2066
2035,2034,2003,2007,2049,2033,2036,2058
2035,2029,1996,1993,2027,2024,2028,2053
2037,2026,1999,1990,2020,2026,2027,2054
2036,2036,1997,1992,2033,2037,2039,2051
2044,2036,2000,1991,2036,2040,2044,2052
2036,2036,1998,1999,2042,2045,2056,2044
2035,2035,2014,2011,2037,2043,2029,2042
2036,2038,2020,2018,2028,2044,2047,2050
2038,2053,2035,2028,2021,2046,2054,2045
2047,2061,2046,2041,2015,2042,2047,2036
2042,2054,2040,2029,2019,2050,2029,2028
2043,2051,2036,2037,2025,2071,2032,2034
2048,2050,2040,2048,2060,2085,2045,2031
2049,2048,2038,2046,2048,2077,2027,2028
2039,2049,2037,2034,2034,2073,2034,2032
2047,2060,2057,2040,2045,2066,2057,2043
2055,2063,2067,2050,2063,2024,2066,2052
2054,2059,2070,2062,2072,2009,2049,2044
2047,2064,2080,2061,2080,2010,2045,2050
2052,2061,2077,2066,2082,2022,2048,2052
2057,2068,2080,2073,2093,2049,2060,2061
2057,2065,2077,2067,2087,2061,2057,2069
2056,2062,2074,2065,2083,2069,2053,2068
2056,2061,2078,2066,2078,2072,2049,2070
2050,2060,2073,2058,2051,2066,2064,2059
2045,2050,2067,2041,2028,2077,2043,2062
2040,2054,2061,2036,2039,2091,2050,2070
2044,2050,2060,2042,2044,2105,2050,2081
2044,2047,2058,2046,2049,2105,2062,2076
2045,2050,2053,2045,2038,2098,2043,2068
2043,2042,2055,2033,2023,2083,2029,2072
2038,2042,2049,2041,2025,2064,2025,2072
2044,2047,2050,2038,2017,2006,2040,2063
2047,2048,2050,2040,2016,1991,2022,2057
2051,2047,2051,2042,2012,2024,2026,2055
2041,2046,2059,2041,2003,2054,2044,2049
2045,2048,2057,2039,2006,2064,2044,2045
2045,2050,2055,2035,1996,2059,2031,2038
2046,2050,2057,2037,2007,2031,2039,2045
2051,2052,2059,2051,2021,2010,2041,2046
2045,2054,2057,2054,2030,2022,2057,2044
2054,2057,2050,2049,2029,2028,2050,2040
2051,2053,2053,2053,2029,2032,2045,2036
2054,2056,2051,2057,2025,2028,2045,2037
2056,2058,2043,2051,2035,2028,2031,2035
2054,2056,2054,2054,2044,2038,2039,2033
2057,2048,2047,2053,2044,2041,2046,2026
2045,2047,2042,2053,2045,2037,2026,2026
2041,2045,2044,2053,2038,2042,2040,2034
2054,2053,2046,2053,2040,2044,2048,2029
2049,2044,2046,2052,2034,2044,2058,2031
2050,2047,2041,2057,2033,2049,2065,2043
2047,2049,2042,2060,2022,2054,2058,2045
2048,2045,2049,2055,2016,2057,2071,2055
2054,2043,2053,2055,2039,2063,2060,2050
2051,2043,2047,2057,2048,2069,2062,2049
2041,2043,2044,2057,2042,2080,2060,2055
2045,2047,2049,2049,2020,2082,2047,2050
2043,2038,2050,2047,1993,2077,2051,2058
2046,2042,2056,2057,2010,2063,2036,2065
2053,2046,2063,2068,2040,2029,2042,2076
2054,2057,2066,2077,2055,2013,2052,2082
2061,2056,2066,2083,2083,2003,2051,2079
2056,2039,2051,2076,2089,2024,2042,2072
2047,2030,2050,2075,2113,2042,2035,2079
2042,2040,2048,2070,2088,2030,2034,2075
2047,2042,2042,2049,2028,2004,2028,2070
2050,2045,2045,2054,2053,2012,2036,2069
2045,2053,2053,2066,2060,2018,2031,2068
2050,2054,2056,2070,2061,2017,2050,2072
2051,2054,2053,2066,2057,2026,2048,2059
2053,2048,2048,2055,2042,2037,2047,2050
2053,2049,2045,2052,2007,2022,2037,2044
