CH1,CH2,CH3,CH4,CH5,CH6,CH7,CH8
2055,2062,2055,2049,2037,2038,2051,2074
2060,2056,2054,2040,2033,2041,2040,2068
2056,2047,2049,2042,2042,2040,2044,2063
2056,2050,2044,2048,2026,2036,2055,2055
2056,2053,2044,2039,2028,2043,2057,2046
2058,2046,2039,2040,2030,2047,2053,2052
2051,2043,2036,2036,2030,2055,2050,2049
2060,2037,2029,2028,2035,2056,2049,2033
2057,2047,2043,2037,2041,2045,2040,2022
2047,2044,2037,2033,2055,2054,2023,2010
2041,2037,2029,2021,2059,2054,2021,2001
2039,2028,2027,2023,2040,2048,2038,1996
2046,2039,2031,2019,2023,2046,2030,1993
2044,2040,2029,2021,2019,2039,2024,2002
2036,2031,2021,2026,2051,2025,2017,2013
2048,2047,2032,2044,2090,2043,2060,2021
2056,2045,2031,2057,2113,2050,2077,2032
2067,2049,2042,2066,2120,2032,2063,2029
2066,2051,2055,2067,2114,2047,2064,2025
2059,2049,2053,2071,2100,2047,2049,2031
2053,2054,2045,2058,2081,2048,2054,2037
2043,2045,2041,2050,2067,2066,2068,2038
2047,2037,2041,2049,2052,2069,2057,2042
2047,2040,2048,2046,2041,2055,2060,2056
2052,2044,2055,2050,2043,2043,2065,2065
2052,2042,2065,2064,2050,2039,2059,2070
2048,2045,2072,2062,2046,2037,2056,2073
2052,2045,2069,2061,2056,2045,2060,2076
2047,2044,2070,2069,2055,2047,2048,2083
2053,2043,2055,2062,2038,2043,2029,2088
2053,2041,2040,2056,2041,2058,2014,2086
2049,2044,2036,2059,2036,2065,2024,2066
2036,2042,2032,2057,2041,2077,2008,2047
2030,2036,2025,2064,2039,2076,2037,2036
2027,2028,2019,2054,2035,2047,2040,2036
2029,2025,2006,2044,2033,2015,2044,2041
2029,2021,1996,2030,2032,2019,2039,2031
2038,2012,1981,2022,2023,2032,2033,2031
2033,2006,1983,2010,2026,2066,2031,2027
2037,2017,1986,2009,2030,2088,2056,2019
2041,2030,1986,2003,2039,2097,2059,2004
2050,2041,1994,2008,2040,2094,2056,2009
2045,2037,1997,2017,2043,2090,2052,2007
2033,2033,2012,2017,2042,2079,2060,2011
2042,2030,2009,2016,2036,2072,2057,2012
2041,2020,2010,2012,2027,2060,2047,2014
2041,2036,2038,2017,2032,2054,2051,2020
2056,2056,2080,2038,2047,2056,2058,2030
2062,2065,2098,2044,2046,2043,2054,2026
2058,2068,2102,2040,2022,2035,2046,2027
2055,2062,2093,2046,2025,2029,2049,2014
2048,2054,2085,2056,2037,2021,2043,2010
2041,2054,2089,2058,2013,2018,2033,2012
2036,2056,2080,2055,2020,2025,2047,2021
2036,2050,2084,2057,2026,2038,2054,2027
2045,2061,2088,2059,2045,2054,2051,2040
2054,2057,2089,2058,2050,2066,2059,2042
2046,2061,2076,2040,2050,2044,2030,2046
2039,2045,2066,2040,2077,2045,2041,2060
2044,2050,2072,2048,2086,2041,2040,2060
2044,2049,2070,2045,2071,2037,2052,2069
2044,2050,2064,2054,2060,2034,2026,2069
2029,2046,2053,2045,2051,2027,2008,2070
2027,2044,2045,2033,2042,2023,2018,2072
2034,2053,2046,2030,2043,2028,2030,2072
2036,2047,2040,2030,2051,2036,2030,2074
2037,2050,2029,2030,2051,2044,2047,2071
2039,2054,2032,2024,2053,2045,2035,2072
2051,2050,2034,2023,2054,2041,2018,2070
2060,2057,2034,2020,2046,2034,2049,2055
2053,2053,2039,2029,2044,2038,2044,2044
2045,2051,2051,2038,2049,2040,2039,2036
2050,2055,2055,2041,2038,2049,2056,2033
2053,2055,2055,2036,2018,2067,2049,2025
2045,2057,2048,2031,2015,2072,2044,2021
2041,2049,2042,2026,2002,2064,2040,2020
2046,2046,2030,2020,1981,2051,2043,2016
2045,2042,2026,2013,1975,2027,2038,2019
2041,2037,2011,2029,2002,1999,2040,2021
2048,2036,2028,2048,2038,2018,2025,2012
2056,2053,2060,2073,2069,2047,2044,2018
2058,2061,2067,2079,2078,2065,2039,2020
2056,2057,2062,2075,2075,2068,2038,2023
2058,2053,2057,2072,2062,2061,2060,2025
2051,2044,2052,2069,2059,2054,2045,2030
2046,2040,2064,2076,2077,2048,2046,2035
2046,2042,2069,2081,2093,2047,2044,2034
2038,2040,2059,2085,2094,2053,2048,2038
2034,2029,2050,2082,2082,2044,2051,2044
2037,2030,2036,2076,2068,2046,2066,2053
2041,2031,2015,2070,2060,2044,2039,2059
2033,2025,1992,2053,2054,2039,2031,2057
2035,2016,1983,2036,2044,2038,2031,2072
2035,2023,1984,2021,2045,2034,2033,2073
2035,2027,2000,2016,2058,2036,2020,2076
2028,2024,2016,2018,2064,2039,2019,2082
2031,2042,2037,2025,2063,2042,2026,2078
2037,2058,2045,2017,2049,2049,2048,2073
2043,2063,2044,2008,2045,2045,2050,2069
2036,2056,2037,1998,2033,2040,2044,2064
2042,2045,2037,1986,2023,2039,2022,2066
2045,2042,2030,1974,2022,2040,2016,2066
2050,2053,2043,1981,2036,2049,2030,2057
2057,2072,2069,2007,2049,2053,2026,2047
2066,2077,2074,2020,2046,2056,2060,2041
2055,2077,2077,2029,2049,2056,2049,2039
2059,2071,2073,2032,2044,2054,2047,2034
2049,2065,2071,2034,2050,2049,2050,2031
2054,2065,2074,2039,2064,2058,2060,2032
2053,2066,2074,2049,2077,2059,2058,2025
2055,2062,2079,2047,2074,2056,2060,2019
2053,2058,2084,2045,2066,2048,2054,2020
2053,2061,2078,2043,2059,2043,2046,2023
2058,2072,2086,2051,2066,2051,2055,2027
2057,2073,2078,2056,2063,2050,2060,2022
2059,2071,2083,2055,2066,2051,2053,2030
2063,2073,2080,2056,2063,2049,2069,2033
2063,2073,2086,2049,2060,2047,2058,2035
2066,2066,2071,2042,2052,2047,2060,2034
2064,2060,2059,2030,2049,2050,2045,2043
2050,2052,2055,2031,2058,2048,2055,2055
2051,2062,2057,2039,2070,2050,2055,2061
2055,2062,2056,2034,2071,2056,2059,2060
2066,2063,2053,2034,2072,2056,2065,2074
2063,2057,2051,2036,2064,2052,2058,2085
2065,2056,2049,2041,2069,2052,2048,2089
2061,2051,2050,2045,2066,2053,2070,2083
2057,2047,2048,2047,2058,2049,2052,2079
2043,2040,2054,2053,2059,2044,2049,2082
2040,2041,2056,2060,2056,2051,2055,2086
2035,2042,2058,2058,2052,2049,2059,2081
2037,2046,2051,2060,2052,2048,2054,2073
2042,2046,2049,2062,2054,2041,2057,2065
2050,2046,2041,2062,2046,2043,2051,2061
2042,2055,2041,2066,2049,2048,2038,2058
2056,2054,2039,2067,2050,2055,2061,2053
2061,2053,2032,2071,2055,2053,2054,2044
2063,2054,2022,2061,2051,2057,2061,2042
2057,2043,2017,2052,2043,2043,2045,2030
2050,2035,2001,2032,2035,2038,2049,2026
2052,2030,1988,2018,2031,2038,2053,2020
2050,2025,2004,2008,2029,2040,2049,2010
2053,2018,2010,2001,2021,2038,2048,2010
2047,2021,2021,2001,2013,2031,2042,2015
2042,2021,2022,1990,2019,2029,2040,2010
2040,2032,2037,2005,2030,2042,2054,2017
2048,2054,2064,2030,2053,2061,2063,2025
2060,2069,2082,2042,2063,2066,2072,2023
2060,2071,2074,2045,2060,2075,2069,2023
2047,2058,2061,2043,2058,2069,2076,2029
2057,2060,2052,2043,2048,2072,2060,2032
2048,2064,2050,2043,2049,2070,2062,2036
2055,2060,2050,2042,2034,2067,2047,2040
2046,2051,2039,2037,2034,2066,2049,2043
2044,2045,2034,2035,2033,2057,2066,2057
2042,2044,2036,2031,2031,2056,2054,2063
2047,2045,2042,2032,2024,2040,2054,2068
2052,2049,2049,2032,2021,2036,2064,2074
2055,2049,2052,2039,2034,2041,2073,2088
2055,2045,2051,2041,2042,2042,2049,2080
2048,2049,2055,2046,2052,2038,2070,2068
2031,2045,2051,2042,2062,2033,2059,2078
2041,2039,2046,2044,2064,2037,2057,2085
2047,2048,2060,2049,2060,2035,2053,2084
2052,2057,2065,2054,2059,2039,2054,2080
2052,2056,2067,2048,2049,2042,2059,2072
2054,2054,2057,2044,2046,2041,2058,2067
2055,2052,2053,2043,2041,2039,2041,2056
2057,2047,2046,2044,2040,2046,2059,2054
2047,2044,2039,2042,2044,2047,2053,2050
2046,2039,2042,2047,2040,2052,2051,2051
2049,2047,2039,2044,2045,2055,2051,2038
2051,2050,2050,2049,2050,2060,2052,2032
2053,2054,2046,2044,2054,2061,2066,2029
2050,2053,2047,2050,2058,2062,2053,2024
2051,2057,2046,2046,2055,2058,2058,2020
2047,2058,2046,2053,2053,2052,2047,2024
2054,2062,2053,2052,2050,2050,2034,2023
2057,2059,2051,2053,2054,2052,2039,2017
2054,2057,2050,2054,2054,2045,2059,2019
2061,2059,2046,2052,2047,2032,2057,2012
2044,2054,2046,2047,2047,2044,2063,2010
2048,2054,2043,2042,2044,2045,2058,2019
2049,2044,2042,2039,2034,2037,2050,2019
2047,2050,2044,2042,2018,2036,2049,2039
2049,2053,2050,2047,2015,2025,2058,2042
2052,2056,2058,2052,2013,2014,2045,2052
2057,2057,2053,2044,2004,2019,2026,2053
2054,2051,2046,2042,2019,2039,2042,2063
2062,2048,2051,2053,2047,2060,2064,2064
2052,2050,2048,2058,2059,2060,2057,2060
2047,2051,2048,2057,2061,2067,2066,2068
2038,2047,2048,2056,2082,2072,2068,2081
2033,2037,2042,2056,2093,2086,2068,2093
2048,2034,2046,2056,2098,2086,2047,2084
2042,2034,2037,2054,2096,2070,2053,2083
2046,2039,2045,2053,2076,2048,2040,2079
2046,2049,2051,2050,2060,2048,2047,2078
2045,2044,2048,2038,2045,2048,2057,2077
2047,2047,2048,2045,2036,2049,2048,2074
2044,2043,2042,2039,2020,2044,2058,2062
2041,2039,2034,2032,1989,2036,2062,2053
2047,2040,2028,2031,1991,2040,2049,2047
2046,2038,2038,2035,2003,2039,2044,2035
2048,2041,2039,2043,2012,2039,2061,2031
2044,2046,2047,2042,2034,2041,2054,2030
2048,2042,2046,2041,2052,2046,2055,2029
2051,2045,2047,2048,2076,2053,2060,2027
2046,2042,2049,2047,2073,2062,2052,2019
2041,2039,2043,2043,2068,2052,2041,2008
2039,2039,2047,2046,2066,2051,2060,1999
2032,2026,2048,2043,2060,2047,2026,1999
2037,2019,2041,2041,2060,2042,2020,2002
2026,2023,2044,2040,2062,2035,2051,2012
2034,2032,2046,2033,2054,2019,2038,2015
2035,2025,2042,2036,2050,2012,2024,2023
2034,2027,2041,2033,2047,2020,2041,2022
2037,2035,2046,2037,2056,2040,2046,2032
2045,2039,2052,2046,2061,2053,2054,2032
2043,2042,2058,2045,2066,2062,2059,2030
2050,2049,2061,2047,2068,2059,2053,2036
2044,2044,2057,2047,2070,2054,2052,2050
2045,2042,2059,2058,2066,2052,2071,2056
2047,2044,2058,2048,2067,2054,2068,2068
2050,2045,2056,2051,2062,2047,2068,2079
2048,2045,2049,2045,2056,2036,2069,2082
2042,2048,2054,2046,2040,2035,2061,2084
2047,2049,2055,2043,2026,2032,2066,2083
2042,2039,2055,2038,2022,2031,2050,2085
2036,2046,2060,2042,2023,2041,2042,2092
2042,2056,2067,2046,2036,2044,2057,2092
2037,2053,2066,2049,2032,2042,2068,2092
2046,2052,2058,2048,2029,2040,2036,2082
2053,2051,2051,2051,2033,2043,2036,2077
2041,2051,2053,2048,2046,2048,2044,2070
2049,2050,2054,2046,2053,2056,2036,2057
2047,2050,2054,2050,2063,2068,2049,2045
2041,2038,2059,2052,2068,2067,2050,2041
2048,2046,2054,2053,2056,2060,2050,2038
2050,2046,2057,2054,2032,2049,2043,2031
2047,2045,2060,2047,2015,2032,2043,2027
2051,2049,2060,2040,2000,2020,2036,2021
2047,2037,2053,2033,1986,2029,2030,2011
2043,2036,2039,2030,2006,2055,2035,2014
2049,2042,2052,2040,2036,2072,2044,2016
2042,2043,2052,2056,2056,2077,2049,2018
2039,2039,2059,2062,2079,2088,2078,2029
2050,2057,2069,2067,2106,2061,2059,2036
2058,2057,2066,2074,2100,2049,2059,2037
2061,2053,2067,2063,2084,2048,2062,2039
2061,2055,2059,2060,2066,2053,2072,2045
2051,2047,2057,2055,2057,2058,2065,2046
2054,2045,2049,2050,2050,2055,2056,2045
2052,2040,2036,2038,2040,2050,2057,2054
2052,2030,2031,2039,2035,2050,2065,2063
2055,2032,2030,2036,2072,2048,2055,2067
2051,2039,2031,2036,2099,2043,2036,2074
2043,2039,2028,2041,2109,2040,2031,2073
2036,2040,2036,2045,2123,2056,2057,2073
2048,2042,2040,2050,2139,2060,2047,2075
2052,2036,2034,2046,2116,2053,2045,2082
2048,2024,2026,2033,2080,2044,2040,2088
2039,2018,2017,2031,2053,2043,2030,2087
2038,2027,2029,2034,1979,2037,2032,2095
2043,2043,2035,2031,1913,2031,2027,2088
2054,2050,2038,2040,1967,2040,2029,2082
2052,2046,2034,2049,2014,2045,2030,2075
2048,2041,2037,2050,2043,2049,2031,2067
2039,2049,2056,2054,2050,2053,2028,2059
2054,2055,2073,2060,2047,2060,2056,2052
2062,2059,2079,2065,2047,2060,2047,2055
2057,2060,2082,2052,2050,2056,2043,2045
2056,2054,2078,2054,2041,2056,2047,2042
2056,2050,2069,2055,2040,2052,2037,2041
2048,2049,2064,2055,2029,2048,2044,2037
2049,2043,2060,2051,2029,2048,2030,2026
2050,2043,2060,2056,2031,2040,2031,2028
2046,2041,2061,2054,2032,2042,2035,2020
2044,2030,2050,2038,2024,2028,2040,2017
2038,2032,2049,2034,2019,2035,2057,2030
2049,2048,2065,2048,2035,2041,2063,2028
2050,2058,2071,2053,2036,2044,2055,2032
2054,2053,2066,2050,2039,2036,2063,2032
2053,2052,2059,2052,2042,2033,2056,2037
2051,2048,2058,2060,2044,2038,2038,2033
2052,2051,2063,2056,2042,2040,2016,2044
2050,2050,2060,2056,2043,2049,2010,2038
2048,2049,2058,2051,2044,2061,2041,2043
2050,2049,2060,2049,2039,2070,2039,2054
2048,2043,2060,2043,2034,2078,2043,2056
2044,2043,2053,2045,2037,2084,2049,2070
2049,2043,2057,2054,2042,2063,2036,2079
2047,2049,2060,2049,2048,2066,2043,2092
2044,2046,2056,2046,2047,2087,2044,2090
2043,2043,2050,2038,2063,2095,2045,2092
2034,2028,2040,2034,2058,2090,2051,2081
2032,2036,2039,2031,2038,2032,2038,2082
2040,2035,2044,2028,2029,2018,2039,2076
2043,2032,2045,2024,2026,2026,2048,2073
2045,2042,2044,2026,2027,2021,2032,2075
2044,2042,2041,2036,2050,2012,2039,2075
2052,2044,2043,2053,2076,2004,2062,2071
2056,2046,2052,2055,2084,2023,2068,2061
2056,2049,2047,2042,2042,2034,2064,2051
2052,2050,2047,2039,1999,2045,2059,2047
2051,2039,2045,2031,2010,2044,2035,2043
2045,2043,2047,2035,2024,2040,2016,2031
2049,2043,2045,2039,2037,2048,2065,2029
2047,2042,2039,2034,2037,2044,2061,2025
2050,2040,2043,2035,2041,2047,2076,2041
2047,2043,2047,2032,2042,2054,2054,2022
2039,2031,2039,2024,2038,2059,2061,2022
2039,2026,2035,2026,2043,2056,2052,2020
2043,2040,2045,2033,2049,2052,2057,2024
2047,2043,2038,2040,2055,2043,2054,2025
2052,2043,2037,2037,2056,2034,2049,2026
2044,2046,2037,2041,2048,2027,2033,2030
2047,2040,2039,2036,2046,2018,2056,2038
2045,2040,2029,2042,2052,2019,2048,2043
2052,2036,2031,2042,2056,2029,2066,2043
2046,2038,2033,2050,2064,2052,2071,2048
2048,2039,2033,2053,2064,2065,2057,2056
2050,2039,2030,2050,2060,2065,2048,2059
2043,2038,2032,2045,2052,2053,2054,2064
2039,2032,2035,2040,2054,2049,2049,2070
2037,2031,2030,2041,2049,2035,2039,2075
2039,2033,2029,2037,2046,2027,2050,2080
2036,2024,2026,2034,2041,2026,2046,2086
2034,2024,2025,2030,2036,2023,2026,2084
2036,2037,2033,2034,2037,2038,2053,2086
2043,2043,2042,2032,2037,2038,2031,2081
2043,2046,2044,2030,2029,2041,2032,2076
2039,2050,2051,2030,2026,2044,2025,2076
2042,2047,2061,2033,2041,2043,2029,2072
2044,2049,2073,2034,2036,2043,2023,2062
2058,2061,2081,2044,2039,2049,2019,2053
2054,2061,2089,2047,2043,2061,2038,2050
2056,2062,2084,2050,2039,2069,2049,2046
2055,2054,2068,2046,2041,2066,2043,2036
2049,2047,2065,2039,2038,2059,2040,2039
2048,2043,2053,2036,2027,2048,2025,2033
2050,2048,2060,2041,2019,2038,2036,2030
2049,2046,2056,2042,2020,2028,2056,2027
2058,2047,2063,2045,2024,2029,2062,2029
2050,2045,2057,2040,2037,2045,2040,2027
2049,2047,2061,2056,2079,2071,2062,2034
2058,2063,2061,2058,2096,2081,2077,2031
2060,2056,2056,2053,2088,2083,2063,2029
2057,2050,2047,2049,2071,2073,2070,2021
2053,2042,2042,2033,2054,2063,2067,2026
2051,2048,2044,2027,2051,2062,2064,2027
2048,2045,2045,2031,2064,2060,2047,2030
2048,2044,2049,2033,2063,2057,2042,2033
2037,2041,2045,2037,2063,2051,2066,2038
2034,2045,2046,2033,2062,2047,2069,2040
2032,2042,2042,2043,2061,2035,2064,2046
2034,2045,2044,2041,2058,2024,2046,2058
2035,2044,2046,2039,2048,2032,2058,2064
2037,2041,2043,2041,2046,2045,2059,2068
2044,2045,2039,2040,2053,2058,2035,2074
2035,2032,2034,2030,2042,2057,2024,2069
2034,2025,2031,2032,2044,2060,2062,2073
2038,2033,2043,2038,2051,2064,2072,2076
2045,2041,2042,2041,2045,2054,2056,2069
2046,2041,2034,2035,2039,2050,2062,2070
2047,2037,2040,2032,2037,2040,2066,2064
2051,2040,2035,2037,2042,2051,2043,2058
2045,2044,2040,2033,2043,2056,2060,2058
2055,2042,2041,2033,2037,2064,2060,2059
2064,2047,2034,2029,2039,2058,2056,2053
2061,2046,2039,2036,2046,2060,2065,2047
2060,2044,2041,2042,2049,2058,2057,2038
2062,2045,2054,2042,2041,2058,2064,2015
2060,2044,2049,2037,2046,2050,2054,2011
2047,2041,2046,2042,2045,2040,2059,2008
2052,2045,2050,2043,2041,2038,2072,2017
2044,2039,2045,2034,2041,2026,2060,2016
2030,2032,2043,2038,2036,2011,2036,2021
2039,2044,2046,2048,2044,2016,2052,2022
2052,2056,2057,2043,2048,2012,2074,2030
2059,2062,2058,2049,2056,2024,2070,2039
2063,2064,2057,2049,2049,2040,2064,2043
2066,2064,2055,2045,2045,2056,2045,2037
2067,2056,2056,2043,2043,2050,2053,2041
2063,2054,2055,2046,2037,2020,2062,2042
2057,2056,2052,2045,2039,2001,2062,2048
2062,2057,2055,2044,2026,2012,2056,2058
2064,2060,2061,2048,2015,2008,2053,2067
2054,2057,2054,2050,2008,2021,2037,2064
2055,2060,2053,2049,2005,2027,2052,2063
2048,2059,2047,2040,2019,2042,2054,2070
2047,2055,2042,2039,2037,2038,2055,2077
2054,2056,2043,2055,2062,2041,2053,2078
2045,2044,2036,2054,2064,2049,2053,2082
2040,2041,2034,2048,2078,2064,2055,2081
2055,2053,2041,2053,2078,2065,2067,2080
2050,2047,2042,2052,2064,2051,2066,2072
2048,2057,2042,2050,2058,2032,2046,2071
2052,2049,2044,2051,2040,2029,2051,2061
2053,2043,2045,2049,2035,2017,2047,2051
2052,2054,2047,2052,2045,2031,2056,2042
2050,2056,2052,2056,2061,2044,2064,2042
2056,2052,2060,2052,2063,2048,2066,2034
2059,2052,2060,2051,2057,2066,2044,2034
2064,2050,2061,2049,2052,2080,2054,2027
2061,2050,2055,2045,2051,2113,2052,2033
2071,2052,2042,2039,2050,2103,2062,2027
2066,2045,2037,2037,2040,2088,2047,2017
2064,2041,2039,2037,2046,2069,2062,2006
2050,2030,2036,2033,2040,2055,2041,1998
2038,2029,2036,2040,2041,2050,2054,2001
2050,2042,2047,2041,2044,2058,2064,2007
2049,2042,2043,2043,2041,2053,2052,2017
2040,2050,2043,2042,2046,2059,2056,2017
2033,2050,2046,2042,2044,2059,2063,2027
2037,2044,2043,2040,2049,2055,2065,2040
2047,2049,2042,2044,2044,2047,2064,2045
2052,2057,2046,2049,2051,2048,2055,2044
2057,2064,2054,2049,2052,2060,2060,2048
2056,2061,2051,2049,2059,2075,2076,2051
2061,2058,2048,2055,2059,2083,2070,2060
2055,2052,2038,2047,2066,2100,2080,2071
2048,2047,2038,2045,2055,2094,2065,2070
2047,2044,2035,2040,2048,2085,2054,2081
2041,2045,2028,2042,2044,2087,2053,2076
2043,2042,2029,2037,2041,2073,2052,2082
2047,2050,2032,2048,2045,2042,2044,2095
2048,2054,2041,2052,2042,2042,2021,2083
2040,2063,2044,2056,2046,2048,2026,2082
2045,2060,2046,2051,2052,2057,2056,2082
2055,2063,2044,2052,2058,2074,2058,2069
2060,2061,2041,2049,2057,2081,2063,2065
2060,2060,2040,2046,2052,2072,2055,2058
2057,2061,2041,2045,2046,2070,2067,2048
2052,2057,2035,2040,2046,2072,2057,2043
2050,2058,2034,2038,2044,2080,2049,2035
2051,2051,2032,2034,2045,2080,2056,2022
2045,2051,2034,2036,2040,2091,2062,2023
2050,2055,2038,2033,2043,2088,2065,2024
2059,2062,2044,2040,2042,2079,2062,2023
2055,2062,2049,2039,2037,2065,2056,2016
2053,2057,2048,2032,2024,2038,2038,2013
2048,2047,2039,2030,2030,2019,2043,2010
2052,2042,2030,2023,2020,2021,2042,2025
2051,2050,2033,2015,1995,2010,2055,2021
2052,2049,2031,2013,1987,2008,2048,2028
2044,2057,2034,2016,1986,2010,2038,2018
2046,2055,2035,2013,1987,2012,2028,2020
2043,2052,2032,2017,2006,2032,2033,2020
2042,2061,2040,2042,2051,2052,2023,2028
2045,2067,2051,2052,2088,2066,2032,2046
2054,2068,2045,2059,2110,2077,2042,2057
2049,2061,2042,2055,2101,2073,2063,2062
2046,2058,2035,2042,2071,2057,2055,2050
2045,2060,2040,2045,2064,2054,2063,2058
2041,2063,2049,2050,2059,2060,2047,2068
2039,2061,2050,2049,2055,2063,2047,2073
2038,2059,2053,2047,2056,2068,2033,2083
2033,2048,2042,2040,2048,2053,2052,2078
2032,2041,2042,2037,2043,2044,2044,2078
2032,2049,2041,2038,2041,2045,2034,2070
2035,2048,2045,2035,2035,2047,2012,2067
2036,2045,2046,2037,2037,2045,2025,2062
2037,2045,2054,2035,2041,2051,2045,2054
2035,2053,2056,2032,2038,2066,2035,2045
2038,2052,2051,2037,2033,2086,2053,2043
2042,2046,2052,2043,2043,2102,2048,2045
2054,2056,2049,2050,2042,2106,2049,2045
2051,2049,2042,2042,2038,2086,2046,2030
2047,2053,2049,2048,2045,2040,2038,2036
2052,2055,2050,2053,2051,2014,2039,2035
2053,2054,2048,2048,2042,2033,2030,2032
2049,2050,2042,2045,2034,2046,2023,2023
2045,2051,2039,2043,2040,2075,2045,2018
2053,2051,2039,2036,2042,2069,2052,2014
2042,2043,2030,2030,2038,2043,2058,2016
2041,2038,2031,2035,2043,2040,2065,2022
2056,2044,2035,2038,2047,2060,2060,2014
2046,2046,2036,2042,2046,2072,2048,2018
2053,2049,2042,2043,2051,2073,2067,2028
2053,2056,2050,2047,2045,2064,2062,2028
2052,2049,2049,2050,2052,2068,2052,2028
2053,2049,2046,2044,2046,2088,2050,2034
2051,2053,2049,2036,2030,2100,2051,2027
2050,2056,2040,2029,2022,2090,2039,2040
2052,2059,2048,2029,2017,2088,2054,2047
2060,2067,2048,2040,2007,2070,2053,2062
2059,2072,2053,2054,2022,2000,2037,2089
2071,2074,2054,2072,2044,1972,2045,2087
2061,2064,2050,2061,2026,2005,2042,2085
2055,2060,2048,2055,2032,2029,2037,2076
2045,2042,2037,2046,2032,2038,2028,2078
2040,2038,2034,2041,2018,2038,2041,2074
2044,2051,2039,2039,2017,2038,2027,2071
2048,2056,2040,2040,2002,2040,2018,2074
2058,2051,2043,2039,2007,2041,2022,2071
2051,2048,2040,2043,2024,2052,2028,2068
2054,2053,2041,2038,2045,2059,2043,2056
2046,2051,2042,2028,2030,2052,2031,2052
2048,2047,2041,2026,2060,2057,2046,2053
2048,2054,2040,2024,2050,2062,2047,2047
2044,2050,2037,2023,2031,2076,2039,2036
2038,2043,2043,2019,2010,2065,2035,2020
2038,2039,2044,2015,1997,2034,2019,2022
2040,2043,2048,2028,2014,2020,2026,2027
2038,2049,2043,2041,2058,2033,2064,2035
2041,2050,2045,2047,2086,2048,2077,2032
2045,2041,2045,2047,2097,2069,2075,2026
2051,2047,2050,2050,2092,2078,2078,2035
2060,2062,2065,2056,2092,2080,2090,2035
2063,2062,2061,2057,2075,2065,2079,2023
2052,2056,2061,2055,2065,2034,2068,2020
2049,2053,2053,2046,2045,2016,2054,2015
2042,2054,2048,2045,2037,2018,2048,2019
2051,2055,2047,2044,2044,2042,2052,2022
2048,2050,2041,2042,2033,2031,2041,2022
2043,2048,2044,2044,2031,2020,2034,2028
2042,2045,2050,2044,2036,2040,2024,2035
2041,2046,2053,2043,2047,2063,2023,2037
2043,2045,2052,2036,2052,2061,2024,2054
2050,2056,2059,2047,2048,2056,2040,2071
2055,2061,2055,2049,2049,2057,2027,2072
2057,2061,2061,2046,2054,2060,2038,2078
2051,2060,2056,2046,2049,2056,2039,2077
2052,2050,2048,2041,2036,2052,2048,2084
2047,2044,2046,2041,2030,2045,2047,2088
2054,2047,2051,2042,2023,2044,2042,2081
2055,2055,2054,2038,2023,2046,2054,2068
2052,2059,2050,2035,2034,2053,2061,2062
2054,2060,2049,2045,2042,2062,2061,2065
2060,2070,2056,2051,2053,2057,2052,2064
2059,2064,2053,2048,2051,2056,2053,2046
2053,2056,2045,2045,2051,2066,2056,2034
2043,2051,2041,2043,2094,2075,2066,2017
2045,2045,2040,2041,2103,2074,2068,2014
2040,2047,2047,2050,2110,2070,2058,2013
2045,2054,2050,2048,2114,2071,2049,2014
2049,2060,2052,2052,2111,2050,2047,2013
2052,2059,2055,2051,2082,2022,2033,2021
2056,2061,2048,2044,2053,1997,2021,2016
2048,2045,2033,2034,2016,2004,2009,2014
2042,2047,2034,2030,1995,2015,2041,2026
2048,2066,2055,2026,1900,2016,2019,2016
2052,2066,2052,2023,1902,2020,2042,2014
2056,2064,2057,2030,1940,2028,2036,2011
2048,2055,2046,2027,2006,2033,2033,2003
2038,2050,2041,2038,2065,2049,2025,2004
2035,2056,2043,2044,2070,2056,2020,2012
2039,2047,2054,2047,2059,2076,2037,2023
2040,2048,2044,2046,2064,2083,2037,2035
2037,2045,2036,2050,2064,2087,2044,2048
2030,2035,2024,2043,2066,2089,2032,2044
2031,2032,2014,2038,2062,2106,2045,2051
2039,2035,2021,2042,2058,2132,2049,2055
2039,2038,2019,2039,2054,2116,2043,2064
2044,2032,2015,2032,2045,2048,2033,2071
2033,2010,1993,2020,2017,1942,2028,2062
2028,2000,1986,2012,2023,1942,2034,2060
2034,2017,2005,2029,2026,1998,2046,2057
2033,2030,2020,2031,2029,2013,2043,2058
2028,2032,2024,2034,2022,2018,2038,2043
2020,2031,2031,2032,2024,2010,2036,2043
2019,2028,2032,2032,2021,2009,2049,2035
2032,2026,2030,2024,2014,2001,2040,2038
2032,2022,2025,2025,2016,2005,2049,2034
2028,2031,2042,2033,2027,2023,2049,2036
2047,2050,2063,2048,2036,2036,2049,2035
2053,2072,2084,2057,2049,2037,2054,2037
2059,2081,2088,2060,2056,2043,2056,2041
2064,2070,2090,2061,2055,2057,2072,2035
2056,2064,2079,2056,2060,2073,2069,2026
2057,2068,2078,2053,2060,2100,2069,2022
2049,2074,2078,2053,2061,2099,2058,2023
2056,2066,2079,2046,2062,2103,2069,2020
2059,2079,2087,2056,2067,2095,2058,2015
2053,2067,2080,2051,2067,2092,2046,2025
2052,2065,2075,2056,2073,2103,2062,2027
2057,2064,2072,2053,2072,2102,2063,2036
2060,2062,2075,2053,2069,2082,2058,2041
2055,2064,2067,2055,2059,2066,2072,2043
2058,2062,2064,2044,2035,2038,2073,2042
2051,2062,2064,2033,1995,2005,2030,2054
2053,2060,2058,2028,1974,1982,2034,2058
2053,2053,2047,2023,1969,1968,2010,2055
2044,2050,2050,2024,1972,1970,2018,2061
2046,2049,2052,2034,2002,1986,2028,2074
2046,2063,2063,2055,2031,2013,2038,2089
2054,2059,2068,2053,2040,2048,2045,2080
2044,2053,2064,2041,2042,2078,2041,2083
2046,2048,2066,2050,2033,2083,2054,2080
2053,2059,2070,2049,2028,2062,2046,2090
2052,2056,2067,2049,2018,2032,2030,2083
2054,2059,2062,2035,1986,2021,2010,2079
2056,2055,2057,2034,1984,2016,2028,2072
2054,2061,2062,2049,2020,2028,2056,2067
2052,2054,2060,2058,2057,2072,2052,2050
2044,2053,2051,2058,2072,2100,2074,2045
2049,2047,2050,2054,2070,2110,2084,2048
2052,2043,2056,2053,2092,2120,2088,2044
2052,2050,2052,2054,2106,2111,2079,2039
2042,2054,2048,2042,2090,2092,2074,2020
2040,2048,2039,2040,2055,2068,2059,2013
2041,2046,2042,2036,2039,2060,2073,2016
2036,2042,2037,2037,2051,2060,2055,2008
2038,2035,2030,2027,2056,2044,2052,2002
2026,2027,2032,2029,2077,2034,2048,1999
2033,2037,2038,2038,2089,2044,2049,2014
2039,2047,2035,2039,2088,2047,2065,2012
2045,2047,2049,2050,2086,2047,2058,2016
2045,2049,2049,2047,2064,2049,2064,2018
2042,2043,2042,2045,2049,2041,2058,2018
2038,2047,2046,2039,2038,2043,2053,2027
2044,2043,2045,2039,2035,2046,2051,2026
2044,2049,2044,2035,2041,2055,2058,2040
2050,2053,2037,2033,2037,2082,2067,2046
2047,2050,2039,2028,2030,2100,2056,2054
2053,2051,2040,2033,2032,2116,2054,2071
2050,2045,2040,2032,2028,2118,2051,2066
2046,2045,2033,2032,2031,2088,2035,2080
2048,2050,2037,2035,2045,2012,2025,2090
2045,2047,2028,2037,2054,1975,2015,2076
2035,2037,2026,2034,2080,1993,2017,2066
2037,2041,2026,2033,2089,2026,2015,2067
2046,2046,2036,2035,2095,2052,2026,2057
2043,2048,2040,2042,2089,2061,2018,2059
2047,2055,2037,2048,2096,2067,2026,2059
2041,2049,2043,2053,2090,2066,2032,2059
2051,2054,2052,2057,2089,2036,2015,2060
2065,2060,2053,2061,2087,2034,2021,2059
2060,2056,2059,2060,2087,2037,2016,2050
2061,2051,2054,2043,2055,2032,2023,2044
2058,2051,2056,2034,2003,2027,2031,2035
2054,2052,2060,2032,1999,2017,2021,2033
2050,2058,2068,2032,2009,1996,1990,2021
2041,2054,2069,2032,2009,1987,1994,2018
2038,2047,2062,2028,2011,1994,2019,2014
2040,2050,2060,2032,2019,2001,2004,2008
2031,2034,2049,2024,2016,2004,2005,2003
2025,2041,2048,2027,2026,2013,2013,2016
2041,2049,2051,2032,2035,2024,2027,2022
2051,2054,2052,2041,2046,2037,2044,2023
2054,2051,2060,2039,2043,2049,2030,2035
2058,2061,2058,2047,2048,2064,2061,2043
2062,2058,2056,2043,2048,2072,2078,2041
2054,2064,2058,2043,2047,2062,2057,2049
2049,2055,2053,2041,2058,2074,2070,2052
2047,2053,2053,2034,2054,2082,2076,2057
2040,2048,2045,2028,2041,2089,2057,2050
2040,2041,2039,2021,2027,2086,2057,2062
2043,2047,2042,2022,2020,2082,2054,2065
2052,2051,2046,2024,2020,2073,2069,2076
2047,2051,2053,2034,2030,2032,2064,2094
2064,2062,2058,2043,2046,1999,2053,2102
2058,2049,2051,2043,2038,2015,2047,2096
2056,2051,2046,2036,2024,2023,2079,2099
2056,2058,2056,2034,2014,2032,2056,2087
2056,2057,2057,2034,2005,2040,2033,2080
2053,2060,2052,2037,2002,2026,2004,2071
2053,2060,2063,2043,2006,2020,2029,2058
2053,2057,2064,2045,1998,2053,2046,2058
2054,2058,2067,2045,2003,2079,2063,2061
2050,2059,2066,2040,2035,2080,2068,2043
2046,2056,2062,2048,2026,2075,2062,2031
2048,2051,2052,2045,2013,2093,2073,2028
2037,2051,2049,2041,1989,2108,2045,2023
2042,2050,2042,2028,1962,2118,2041,2024
2052,2045,2037,2022,1967,2111,2057,2021
2053,2046,2034,2020,1985,2081,2058,2019
2058,2054,2041,2028,1998,2059,2054,2010
2052,2049,2047,2038,2062,2038,2051,1993
2036,2052,2051,2054,2094,2002,2033,2002
2040,2050,2056,2054,2098,2000,2015,2008
2044,2040,2041,2058,2136,2031,2025,2018
2032,2031,2035,2055,2157,2049,2026,2010
2029,2026,2024,2043,2127,2045,2026,2009
2027,2027,2017,2040,2107,2019,2020,2013
2031,2032,2020,2044,2104,2022,2031,2020
2041,2039,2029,2050,2114,2012,2050,2033
2044,2040,2032,2044,2095,2013,2030,2036
2034,2037,2034,2043,2073,2016,2036,2047
2040,2041,2038,2033,2052,2020,2043,2066
2039,2042,2046,2018,2027,2046,2057,2080
2045,2048,2045,2026,2005,2054,2058,2087
2046,2052,2051,2034,2050,2072,2069,2094
2054,2049,2049,2037,2081,2065,2065,2101
2053,2041,2042,2023,2094,2058,2056,2097
2048,2042,2046,2022,2089,2062,2084,2092
2061,2059,2055,2031,2110,2075,2081,2091
2065,2065,2057,2038,2099,2088,2086,2082
2065,2065,2053,2032,2076,2087,2060,2071
2063,2059,2056,2031,2036,2086,2064,2065
2057,2055,2055,2031,1979,2087,2056,2057
2055,2057,2055,2024,1892,2093,2049,2048
2047,2052,2047,2025,1918,2104,2033,2043
2048,2042,2041,2024,1971,2078,2025,2030
2048,2041,2046,2035,1994,1994,2025,2025
2052,2045,2046,2044,2006,1935,2022,2023
2058,2047,2053,2045,2048,1988,2025,2021
2061,2048,2054,2043,2066,2023,2029,2014
2062,2045,2049,2027,2028,2013,2025,2009
2052,2041,2044,2004,1985,2003,2020,2002
2039,2033,2038,2008,2029,2026,2024,2000
2027,2037,2041,2026,2115,2059,2054,2008
2030,2039,2034,2029,2150,2058,2056,2013
2031,2048,2039,2021,2099,2025,2055,2012
2038,2056,2045,2022,2044,2010,2063,2018
2037,2047,2041,2022,2005,2020,2062,2017
2028,2038,2037,2010,1965,2053,2094,2023
2035,2043,2037,2018,2011,2080,2096,2037
2046,2055,2052,2041,2054,2068,2098,2042
2053,2055,2053,2048,2079,2043,2088,2047
2047,2045,2052,2057,2126,2066,2084,2056
2045,2049,2049,2057,2128,2074,2056,2057
2034,2042,2044,2051,2098,2058,2030,2065
2037,2044,2041,2041,2067,2017,2046,2073
2041,2051,2044,2043,2075,2000,2044,2072
2041,2040,2042,2048,2084,1985,2026,2080
2032,2039,2040,2034,2048,1975,2010,2086
2032,2041,2046,2042,2049,2007,2043,2091
2044,2056,2062,2064,2106,2026,2058,2087
2045,2061,2061,2064,2113,2032,2056,2077
2045,2065,2057,2061,2091,2027,2024,2064
2038,2050,2050,2047,2058,2026,2042,2044
2030,2044,2049,2043,2010,2042,2046,2031
2028,2048,2051,2018,1889,2050,2030,2033
2040,2044,2041,2004,1862,2063,2039,2033
2043,2036,2024,1999,1869,2046,2036,2025
2029,2025,2013,1988,1906,2033,2042,2021
2027,2030,2031,2001,1968,2055,2044,2014
2040,2042,2044,2030,1992,2068,2051,2026
2052,2062,2063,2038,1968,2049,2054,2027
2066,2066,2067,2047,1946,2042,2036,2024
2062,2064,2056,2035,1977,2061,2031,2020
2070,2047,2044,2040,2038,2070,2054,2016
2068,2045,2045,2042,2079,2076,2077,2021
2052,2052,2053,2028,2062,2085,2077,2021
2047,2062,2055,2031,2082,2101,2054,2018
2042,2065,2058,2049,2135,2104,2066,2029
2049,2078,2068,2049,2133,2095,2064,2042
2073,2088,2067,2037,2124,2091,2075,2047
2083,2086,2058,2010,2079,2089,2045,2046
2072,2061,2042,1976,1966,2076,2026,2043
2061,2050,2034,1974,2010,2065,2042,2043
2049,2041,2032,2012,2153,2075,2022,2042
2042,2041,2038,2038,2191,2072,2039,2061
2044,2056,2051,2053,2163,2057,2053,2077
2042,2061,2053,2055,2142,2051,2054,2077
2034,2040,2043,2041,2135,2060,2054,2077
2024,2037,2026,2027,2094,2057,2040,2070
2019,2027,2023,2024,2010,2066,2041,2069
2029,2038,2033,2029,2031,2095,2046,2075
2034,2049,2049,2036,2032,2104,2051,2064
2036,2049,2051,2034,2015,2111,2058,2069
2041,2051,2053,2029,2009,2121,2058,2066
2044,2051,2048,2024,2017,2104,2053,2053
2040,2052,2045,2022,2008,2036,2050,2042
2036,2047,2037,2012,1960,2008,2037,2031
2036,2042,2030,2012,1942,1997,2039,2034
2038,2044,2041,2017,1966,1970,2026,2041
2048,2048,2041,2036,2006,1964,2018,2037
2049,2049,2044,2062,2058,1994,2032,2034
2052,2046,2053,2085,2125,2042,2053,2028
2051,2042,2040,2067,2161,2075,2038,2009
2036,2029,2026,2049,2153,2068,2014,2005
2021,2019,2014,2029,2056,2034,2023,1997
2017,2012,2010,2016,1980,1987,2016,1999
2028,2022,2024,2032,2005,1987,2039,2001
2038,2043,2044,2056,2042,2006,2039,2018
2052,2051,2051,2066,2082,2032,2031,2034
2063,2052,2050,2066,2100,2030,2043,2040
2062,2050,2043,2057,2109,2025,2026,2043
2061,2047,2043,2048,2122,2029,2032,2037
2056,2056,2046,2035,2063,2034,2047,2026
2032,2058,2038,2025,2061,2024,2026,2012
2037,2044,2032,2016,2052,2018,2037,2040
2056,2043,2037,2021,2059,2044,2040,2054
2056,2049,2033,2030,2078,2076,2050,2066
2053,2051,2043,2039,2047,2081,2053,2068
2047,2056,2046,2028,2006,2059,2047,2068
2047,2059,2050,2029,2061,2046,2021,2066
2053,2058,2044,2040,2068,2019,2014,2065
2043,2046,2033,2026,2017,1961,1994,2077
2041,2022,2022,2026,2009,1958,2010,2078
2042,2025,2032,2033,2055,1975,2008,2064
2030,2027,2028,2057,2116,2016,2029,2053
2024,2035,2040,2082,2183,2059,2048,2046
2018,2044,2044,2079,2167,2074,2050,2037
2017,2046,2052,2062,2145,2085,2065,2041
2022,2053,2053,2061,2136,2106,2074,2050
2040,2059,2052,2054,2127,2101,2073,2049
2045,2059,2047,2049,2122,2093,2073,2039
2046,2052,2044,2035,2018,2073,2049,2035
2045,2045,2036,2013,1926,2052,2040,2023
2044,2048,2040,2021,1958,2024,2051,2025
2049,2050,2047,2021,1962,2022,2055,2020
2051,2053,2047,2025,1988,2037,2056,2025
2052,2051,2048,2030,2000,2046,2056,2028
2059,2045,2044,2027,1994,2044,2084,2020
2050,2034,2037,2035,2018,2053,2082,2024
2061,2038,2042,2042,2036,2067,2082,2024
2063,2035,2038,2038,2009,2044,2074,2011
2051,2028,2027,2024,1974,2017,2064,2016
2055,2026,2021,2021,1976,2004,2060,2018
2060,2031,2028,2025,1991,2014,2042,2009
2041,2034,2037,2034,1993,2030,2047,2013
2029,2042,2038,2056,2080,2056,2057,2029
2025,2046,2047,2076,2123,2087,2070,2037
2029,2044,2050,2066,2099,2108,2050,2032
2022,2049,2052,2057,2076,2102,2038,2027
2024,2060,2052,2056,2092,2118,2033,2040
2040,2065,2051,2040,2082,2099,2044,2057
2042,2055,2039,2032,2066,2043,2033,2071
2044,2045,2033,2022,2018,1993,2033,2072
2034,2031,2024,2019,2042,1984,2033,2069
2037,2022,2019,2013,2018,1992,2029,2064
2037,2027,2016,2001,1977,2039,2038,2056
2031,2028,2020,2014,1994,2083,2060,2047
2040,2041,2025,2025,2034,2099,2056,2058
2059,2062,2042,2055,2082,2093,2072,2075
2070,2072,2051,2086,2158,2057,2080,2066
2067,2062,2056,2097,2193,2082,2090,2044
2056,2054,2051,2082,2128,2085,2075,2031
2031,2045,2035,2047,2052,2040,2051,2014
2039,2038,2034,2030,2032,2015,2058,2025
2051,2037,2035,2023,2015,2000,2061,2018
2049,2017,2030,2023,1974,1980,2033,2013
2045,2021,2035,2021,1989,1973,2040,2015
2047,2038,2049,2036,2018,1989,2038,2015
2040,2065,2062,2047,2057,2027,2046,2015
2040,2066,2065,2049,2129,2062,2054,2013
2035,2060,2070,2050,2173,2089,2060,2018
2041,2055,2063,2044,2129,2089,2045,2012
2050,2047,2068,2042,2084,2082,2065,2004
2042,2042,2071,2051,2094,2083,2078,2002
2044,2048,2071,2040,2073,2091,2067,2014
2053,2048,2070,2055,2110,2073,2059,2019
2049,2041,2048,2044,2047,2026,2040,2025
2048,2026,2036,2026,1915,1987,2018,2029
2044,2009,2031,2027,1926,1991,2018,2030
2040,2016,2049,2042,1980,2014,2034,2016
2031,2037,2067,2042,2002,1999,2013,2001
2014,2045,2068,2043,2043,2013,2007,2034
2037,2035,2059,2045,2089,2037,2024,2062
2040,2044,2061,2068,2139,2094,2042,2061
2004,2044,2062,2073,2203,2120,2037,2072
1998,2047,2049,2084,2278,2139,2055,2073
2034,2051,2056,2102,2341,2143,2054,2076
2043,2051,2053,2101,2321,2128,2051,2074
2056,2059,2058,2086,2236,2110,2065,2081
2069,2061,2056,2074,2182,2092,2067,2079
2064,2051,2048,2061,2132,2084,2060,2068
2036,2031,2033,2027,1983,2029,2043,2047
2023,2027,2034,2007,1864,1986,2046,2015
2023,2045,2058,2034,1907,2000,2047,2027
2052,2066,2057,2033,1901,2013,2040,2042
2068,2053,2040,2021,1908,2043,2013,2030
2058,2049,2038,2018,1989,2082,2038,2026
2068,2055,2044,2023,2012,2106,2030,2014
2049,2040,2047,2030,2028,2072,2038,2007
2036,2041,2066,2050,2033,1961,2034,2012
2045,2044,2065,2057,2061,1927,2034,2014
2038,2038,2048,2064,2101,1979,2012,2005
2030,2042,2050,2070,2150,2002,2023,2007
2044,2044,2045,2057,2114,1996,2009,2013
2041,2040,2042,2073,2077,2015,2032,2026
2047,2054,2049,2106,2103,2052,2060,2058
2060,2062,2053,2116,2152,2082,2085,2048
2061,2064,2043,2115,2207,2110,2082,2031
2049,2059,2028,2095,2129,2130,2089,2030
2034,2046,2014,2056,2060,2136,2066,2030
2022,2034,2002,2050,2069,2143,2064,2034
2033,2034,2006,2031,1926,2070,2049,2052
2037,2042,2008,2043,1947,2041,2054,2072
2039,2035,2009,2046,1984,2052,2061,2072
2038,2022,2011,2027,2002,2057,2052,2074
2033,2016,2005,2007,2016,2039,2031,2072
2018,2016,2018,2010,2018,2042,2018,2078
2025,2027,2036,2021,2008,2046,2030,2066
2026,2030,2040,2017,1990,2055,2031,2058
2033,2046,2052,2021,1995,2054,2035,2059
2041,2071,2076,2059,2046,2020,2039,2066
2041,2084,2098,2072,2035,2002,2044,2060
2047,2072,2096,2060,1998,2009,2052,2061
2049,2069,2076,2045,1996,2023,2054,2050
2046,2064,2062,2022,1947,1987,2045,2055
2054,2053,2045,2014,1961,1965,2043,2049
2054,2051,2040,2036,2032,1988,2032,2024
2047,2038,2043,2044,2053,2016,2036,1999
2034,2035,2048,2053,2078,2041,2049,2008
2034,2039,2056,2076,2103,2061,2065,2018
2050,2041,2053,2085,2131,2063,2055,2025
2071,2042,2046,2076,2145,2051,2059,2030
2072,2042,2032,2051,2122,2049,2054,2028
2060,2022,2020,2039,2149,2059,2035,2002
2024,2018,2015,2047,2184,2076,2054,1989
2010,2034,2008,2037,2173,2083,2053,2012
2024,2037,2000,2020,2142,2076,2061,2021
2039,2029,2003,2030,2149,2073,2053,2013
2023,2025,2007,2038,2141,2070,2050,2022
2029,2036,2029,2053,2108,2064,2062,2029
2030,2041,2029,2052,2062,2061,2044,2038
2055,2052,2042,2032,1952,2038,2033,2038
2065,2075,2068,2030,1920,2002,2031,2034
2060,2069,2071,2038,1989,1995,2038,2046
2044,2044,2057,2038,1990,2005,2028,2064
2028,2021,2052,2008,1820,1981,2027,2073
2032,2009,2058,1977,1758,1980,2054,2080
2042,2013,2073,2010,1881,2017,2076,2091
2047,2034,2090,2042,1947,2048,2079,2090
2029,2032,2081,2036,2001,2055,2058,2082
2030,2025,2069,2026,2080,2056,2052,2063
2024,2026,2059,2043,2182,2058,2017,2058
2019,2026,2048,2069,2225,2047,2010,2054
2014,2041,2054,2076,2122,2029,2026,2049
2035,2059,2061,2082,2110,2080,2032,2044
2054,2064,2053,2097,2163,2109,2028,2026
2051,2066,2052,2082,2133,2075,2029,2019
2021,2063,2050,2070,2113,2034,2017,2021
2025,2070,2059,2098,2264,2098,2039,2027
2035,2084,2064,2125,2290,2134,2044,2037
2057,2078,2060,2099,2158,2086,2038,2035
2058,2069,2053,2080,2102,2069,2042,2030
2052,2052,2044,2084,2144,2067,2037,2012
2037,2035,2030,2066,2115,2052,2010,2003
2040,2037,2028,2041,1983,2012,2010,1992
2036,2032,2032,2029,1879,2048,2039,2002
2052,2045,2052,2016,1817,2073,2039,2028
2078,2058,2050,2017,1910,2082,2041,2029
2073,2052,2041,2009,1969,2052,2031,2022
2078,2057,2059,2043,2016,2024,2035,2017
2084,2054,2067,2069,2051,1989,2047,2030
2080,2044,2077,2083,2072,2002,2047,2027
2076,2049,2087,2090,2073,2025,2052,2017
2035,2043,2077,2090,2062,2046,2045,2021
2030,2037,2064,2070,2026,2047,2065,2029
2022,2033,2056,2063,2038,2055,2049,2046
2007,2032,2053,2074,2088,2069,2066,2061
2016,2048,2065,2086,2102,2070,2069,2075
2024,2051,2075,2090,2140,2061,2063,2088
2027,2051,2063,2090,2124,2022,2016,2082
2021,2034,2045,2083,2088,1998,1980,2052
2017,2019,2043,2083,2072,1995,1978,2061
2040,2027,2057,2097,2080,2008,2017,2083
2063,2047,2074,2094,2088,2039,2025,2077
2044,2053,2068,2091,2080,2066,2056,2079
2059,2050,2057,2069,2043,2064,2055,2088
2066,2036,2032,2038,2014,2064,2023,2068
2049,2025,2018,2038,2037,2065,2047,2048
2048,2045,2035,2055,2054,2078,2060,2046
2074,2080,2077,2082,2037,2080,2061,2024
2063,2090,2086,2100,2043,2061,2061,2004
2048,2076,2085,2095,2078,2066,2068,1998
2034,2054,2059,2072,2098,2076,2070,2019
2032,2053,2054,2066,2061,2066,2079,2016
2023,2060,2056,2072,2065,2042,2040,2008
2036,2057,2061,2065,2044,2023,2038,2006
2042,2060,2051,2053,2013,1974,2006,1984
2038,2044,2045,2037,2000,1937,1995,1984
2042,2048,2036,2014,1930,1956,2012,2006
2045,2038,2030,2009,1919,1994,2021,2023
2044,2039,2033,2038,2075,2000,2025,2043
2045,2049,2036,2064,2148,1983,2025,2038
2036,2045,2030,2051,2111,2001,2036,2011
2017,2045,2040,2056,2140,2051,2023,2006
2022,2057,2062,2065,2152,2075,2034,2025
2029,2052,2055,2054,2091,2093,2037,2041
2021,2054,2048,2043,2052,2106,2044,2036
2019,2047,2047,2036,2029,2102,2035,2038
2022,2039,2042,2023,2022,2075,2022,2030
2016,2032,2034,2022,2004,2039,2016,2043
2018,2044,2049,2062,2051,1992,2031,2057
2032,2049,2054,2072,2064,1996,2036,2052
2027,2039,2054,2078,2081,2030,2044,2069
2023,2039,2061,2084,2104,2055,2056,2068
2035,2048,2073,2106,2103,2068,2059,2076
2045,2041,2073,2110,2073,2059,2053,2070
2037,2039,2063,2104,2071,2058,2056,2068
2036,2037,2056,2107,2064,2052,2058,2050
2023,2038,2052,2114,2059,2036,2050,2045
2038,2045,2050,2111,2041,2025,2058,2033
2051,2054,2042,2102,2025,2004,2029,2017
2039,2040,2025,2101,2019,1992,2010,2008
2032,2024,2010,2106,2075,1992,2013,2012
2037,2021,2002,2112,2127,2012,2024,2009
2032,2014,1989,2099,2114,2037,2016,2000
2033,2009,1979,2077,2096,2057,2013,2006
2043,2005,1974,2058,2077,2050,2004,2000
2031,2010,1979,2046,2077,2041,2011,1986
2018,2018,1988,2035,2068,2052,2006,1973
2007,2024,1994,2032,2068,2021,2013,1973
2008,2026,2000,2018,2085,2014,2044,1989
2023,2034,2011,2014,2070,2020,2053,1999
2018,2039,2043,2013,2060,2053,2046,2003
2027,2055,2081,2007,2045,2071,2034,2014
2040,2066,2089,2006,2032,2074,2031,2037
2049,2058,2082,2001,2041,2077,2062,2050
2051,2064,2095,2023,2046,2089,2048,2039
2049,2075,2108,2039,2043,2084,2051,2049
2075,2090,2112,2042,2021,2076,2045,2053
2086,2085,2102,2038,2012,2070,2050,2058
2073,2062,2086,2032,2008,2075,2016,2044
2038,2041,2058,2008,1954,2082,2012,2039
2027,2023,2042,1992,1929,2043,2009,2048
2026,2031,2033,1983,1886,2010,2029,2068
2031,2031,2028,1985,1852,1980,2026,2071
2038,2045,2050,2015,1893,1960,2047,2084
2049,2073,2071,2032,1985,2022,2024,2089
2047,2069,2058,2032,1993,2068,2038,2083
2052,2073,2043,2027,1979,2086,2036,2054
2040,2071,2052,2042,1993,2077,2040,2061
2071,2054,2061,2057,2016,2032,2046,2084
2086,2033,2054,2054,2027,1976,2037,2062
2063,2016,2033,2060,2118,2012,2039,2044
2052,2000,2007,2063,2112,2038,2030,2007
2034,1997,1991,2076,2152,2050,2018,1999
2010,1993,1993,2095,2154,2031,2034,2007
2005,2007,2002,2103,2162,2035,2023,2024
2018,2040,2023,2126,2180,2059,2041,2015
2036,2072,2047,2132,2186,2094,2043,2020
2045,2089,2046,2133,2174,2097,2041,2015
2036,2065,2032,2110,2158,2095,2050,1997
2030,2050,2021,2105,2145,2093,2039,1995
2033,2052,2031,2097,2145,2105,2049,2005
2022,2053,2039,2094,2154,2112,2036,1996
2009,2051,2050,2076,2151,2114,2038,2002
2025,2050,2052,2053,2144,2104,2017,2010
2047,2064,2068,2047,2158,2052,2018,2016
2044,2066,2092,2062,2177,2012,2008,2030
2042,2078,2108,2055,2130,2030,2041,2043
2053,2089,2106,2044,2082,2060,2052,2054
2050,2082,2084,2030,2067,2032,2034,2043
2033,2071,2069,2029,2023,1986,2034,2041
2022,2058,2064,2033,1977,1965,2026,2042
2026,2046,2063,2050,1938,1960,2017,2060
2024,2042,2071,2052,1876,1964,2017,2058
2022,2039,2059,2028,1912,1996,2005,2064
2037,2038,2050,2042,2001,2021,2003,2065
2034,2039,2066,2091,2106,2046,2002,2059
2037,2038,2063,2097,2168,2055,2048,2056
2039,2036,2061,2113,2244,2038,2036,2071
2031,2045,2076,2133,2257,2080,2050,2076
2024,2046,2072,2129,2260,2138,2050,2063
2017,2045,2067,2134,2245,2159,2060,2048
2017,2051,2074,2127,2231,2153,2076,2049
2014,2060,2099,2131,2224,2123,2064,2044
2021,2047,2100,2119,2179,2089,2046,2043
2036,2037,2088,2093,2094,2067,2041,2033
2036,2027,2064,2023,1844,2027,2034,2031
2046,2032,2055,2009,1855,2041,2031,2011
2032,2029,2052,2049,1992,2081,2042,2009
2057,2039,2048,2057,1990,2102,2057,2027
2062,2032,2029,2049,1949,2126,2052,1981
2001,2004,2007,2027,1949,2108,2022,1969
1997,2020,2016,2047,2030,2050,2025,2001
2031,2055,2047,2055,2040,1989,2053,2016
2032,2058,2052,2045,2032,2015,2057,2025
2031,2053,2046,2051,2062,2061,2067,2026
2048,2069,2057,2060,2080,2082,2068,2029
2066,2066,2055,2052,2072,2086,2053,2019
2054,2066,2051,2048,2047,2070,2034,2024
2039,2055,2049,2048,2031,2047,2025,2028
2031,2052,2046,2041,2036,2047,2058,2035
2027,2048,2043,2047,2062,2048,2063,2041
2029,2049,2050,2070,2108,2051,2058,2047
2051,2057,2066,2093,2113,2048,2061,2063
2066,2058,2058,2095,2089,2026,2057,2052
2057,2053,2056,2095,2077,2014,2026,2052
2054,2053,2047,2084,2038,2010,2019,2065
2072,2044,2042,2090,2057,2019,2025,2061
2048,2025,2028,2090,2075,2030,2011,2070
2052,2037,2016,2092,2073,2033,2007,2080
2041,2033,2004,2080,2064,2040,2027,2068
2021,2027,2012,2088,2070,2048,2039,2052
2017,2028,2015,2089,2075,2054,2038,2047
2027,2036,2027,2094,2081,2067,2018,2052
2021,2039,2022,2090,2073,2068,2058,2031
1999,2020,2007,2080,2071,2065,2056,2030
2007,2016,1990,2066,2062,2054,2021,2023
1997,2009,1984,2051,2064,2054,2031,2011
2002,2011,1986,2042,2064,2064,2058,2013
2011,2001,1985,2032,2068,2068,2059,2027
2038,2008,1974,2026,2065,2071,2087,2040
2064,2021,1975,2011,2064,2069,2066,2019
2060,2035,1994,2009,2056,2061,2075,2007
2050,2027,1980,2009,2056,2063,2063,2003
2029,2017,1972,2028,2062,2068,2053,2002
2029,2024,1978,2053,2081,2067,2073,2010
2045,2039,1991,2069,2085,2062,2072,2013
2066,2070,2029,2093,2088,2067,2061,2011
2064,2071,2039,2107,2088,2054,2057,2007
2042,2057,2046,2110,2076,2052,2064,2012
2031,2047,2041,2111,2079,2048,2047,2012
2026,2042,2046,2111,2079,2050,2052,2020
2032,2056,2088,2116,2075,2046,2058,2023
2040,2078,2126,2132,2073,2035,2059,2035
2042,2093,2161,2132,2076,2036,2069,2042
2033,2092,2176,2135,2079,2052,2062,2043
2033,2103,2187,2126,2069,2076,2058,2055
2040,2105,2200,2119,2047,2064,2051,2054
2027,2093,2181,2094,2008,2032,2028,2055
2025,2087,2157,2084,1986,2006,2032,2057
2024,2072,2139,2065,2004,1996,2040,2075
2033,2078,2124,2056,2042,2005,2050,2084
2049,2085,2123,2069,2107,2028,2067,2088
2052,2083,2118,2063,2114,2038,2066,2082
2045,2074,2115,2051,2109,2054,2057,2064
2037,2071,2109,2027,2100,2057,2053,2054
2035,2064,2084,2007,2082,2051,2067,2046
2034,2051,2064,1981,2057,2040,2061,2037
2035,2050,2063,1994,2054,2039,2062,2044
2041,2056,2062,2010,2060,2063,2070,2037
2032,2043,2045,2009,2057,2083,2067,2051
2038,2038,2040,2002,2055,2073,2065,2039
2047,2048,2043,2020,2066,2077,2062,2029
2060,2060,2049,2052,2074,2087,2083,2027
2050,2035,2057,2074,2082,2072,2077,2016
2041,2017,2056,2092,2077,2049,2053,2006
2028,2015,2066,2104,2074,2028,2052,2006
2024,2019,2067,2114,2086,2037,2043,2004
2029,2036,2072,2118,2096,2044,2061,2002
2029,2036,2061,2124,2097,2051,2076,1996
2029,2038,2074,2152,2110,2065,2076,2006
2022,2024,2066,2167,2104,2054,2070,2001
2026,2017,2039,2170,2095,2050,2067,2009
2033,2009,2024,2168,2091,2054,2056,2021
2031,2005,2002,2171,2106,2058,2069,2029
2039,2001,1975,2161,2105,2058,2075,2040
2041,2002,1946,2154,2058,2053,2069,2047
2030,1989,1902,2122,2056,2054,2053,2038
2021,1983,1870,2100,2044,2071,2040,2036
2021,1994,1864,2069,2018,2064,2023,2032
2022,2000,1864,2036,1995,2054,2032,2027
2015,2000,1874,2014,1999,2033,2013,2027
2001,1983,1880,2021,2021,1997,2027,2058
2012,1999,1906,2039,2051,1988,2043,2072
2026,2031,1952,2065,2127,2023,2053,2083
2033,2048,1971,2065,2128,2033,2041,2072
2031,2033,1972,2027,2050,2017,2033,2061
2022,2015,1974,1970,1982,1997,2009,2038
2011,2014,2004,1946,1996,1996,2004,2030
2009,2043,2092,1971,2024,2004,2014,2041
2033,2105,2185,2011,2040,2023,2024,2043
2052,2131,2211,2038,2059,2034,2043,2044
2048,2116,2204,2049,2052,2027,2029,2055
2050,2114,2184,2065,2071,2045,2036,2047
2066,2108,2164,2068,2071,2060,2039,2043
2067,2115,2171,2053,2062,2049,2036,2046
2069,2108,2172,2029,2048,2039,2025,2037
2068,2106,2165,2031,2049,2038,2022,2019
2060,2105,2156,2016,2052,2044,2044,2020
2055,2108,2153,2023,2052,2052,2043,2025
2060,2115,2138,2029,2060,2064,2052,2040
2065,2105,2123,2031,2058,2067,2060,2038
2068,2100,2107,2039,2061,2069,2042,2035
2069,2089,2098,2058,2062,2063,2066,2043
2067,2085,2092,2079,2075,2067,2059,2046
2064,2083,2083,2080,2078,2066,2046,2043
2061,2075,2081,2085,2081,2070,2061,2050
2054,2071,2072,2078,2080,2078,2075,2063
2054,2050,2062,2076,2098,2076,2056,2069
2045,2061,2068,2083,2111,2082,2071,2071
2055,2060,2065,2077,2095,2067,2082,2069
2061,2071,2078,2087,2090,2068,2069,2087
2056,2073,2076,2076,2072,2061,2068,2097
2041,2069,2067,2065,2030,2049,2054,2095
2022,2054,2058,2053,2019,2045,2066,2099
2027,2041,2046,2061,2037,2057,2073,2094
2033,2041,2046,2066,2052,2055,2077,2098
2065,2044,2058,2070,2065,2057,2064,2095
2068,2044,2056,2068,2060,2049,2055,2074
2066,2056,2063,2076,2062,2046,2058,2055
2062,2055,2064,2066,2059,2003,2045,2041
2043,2044,2044,2064,2049,1983,2006,2023
2031,2030,2043,2066,2062,2012,2036,2018
2020,2065,2059,2082,2075,2046,2034,2023
2044,2088,2056,2080,2080,2058,2065,2044
2061,2092,2050,2073,2077,2064,2049,2051
2071,2092,2036,2072,2070,2063,2047,2043
2060,2080,2032,2064,2067,2062,2042,2018
2064,2076,2039,2052,2061,2060,2041,2000
2064,2072,2047,2046,2046,2051,2036,2001
2044,2045,2034,2041,2017,2029,2002,2000
2037,2044,2041,2048,2000,2025,1999,2014
2052,2058,2062,2062,2012,2039,2016,2027
2061,2057,2084,2079,2020,2043,2047,2011
2042,2051,2083,2082,2020,2042,2028,2013
2037,2040,2083,2082,2026,2032,2033,2027
2032,2044,2072,2089,2036,2042,2020,2020
2022,2051,2082,2092,2047,2045,2036,2021
2026,2055,2092,2102,2068,2063,2051,2034
2032,2063,2100,2106,2097,2072,2069,2049
2049,2082,2109,2124,2124,2078,2078,2065
2069,2099,2102,2123,2121,2072,2063,2080
2084,2094,2093,2107,2094,2048,2026,2065
2063,2075,2072,2086,2073,2033,2032,2050
2034,2057,2070,2069,2063,2054,2031,2045
2030,2050,2072,2052,2051,2071,2035,2054
2033,2030,2038,2019,2026,2067,2037,2069
2034,2020,2015,2000,2006,2074,2035,2075
2041,2028,2020,2002,2008,2073,2053,2070
2020,2030,2026,2025,2037,2042,2047,2072
2024,2041,2021,2038,2069,2048,2046,2081
2046,2052,2021,2036,2063,2049,2064,2085
2069,2064,2035,2044,2043,2040,2034,2076
2078,2066,2048,2040,2009,2016,2037,2054
2058,2070,2043,2040,1985,1992,2036,2035
2041,2061,2031,2044,1965,1976,2034,2023
2040,2054,2026,2032,1959,1992,2046,2007
2036,2061,2044,2041,1998,2012,2037,2009
2032,2063,2073,2078,2039,2038,2061,2007
2030,2056,2074,2095,2043,2054,2074,2015
2041,2065,2079,2110,2071,2049,2085,2027
2067,2064,2080,2110,2102,2064,2082,2029
2076,2060,2080,2109,2111,2059,2047,2026
2063,2058,2086,2114,2117,2074,2052,2007
2052,2052,2091,2116,2122,2085,2052,2000
2047,2055,2080,2110,2096,2074,2068,2002
2046,2052,2063,2099,2078,2061,2054,2020
2058,2055,2054,2089,2075,2059,2058,2034
2068,2056,2055,2091,2076,2060,2055,2031
2063,2056,2052,2092,2076,2050,2049,2030
2049,2054,2047,2083,2082,2047,2046,2039
2047,2057,2039,2080,2085,2044,2055,2050
2040,2057,2026,2065,2076,2046,2046,2059
2050,2053,2007,2052,2058,2056,2067,2056
2045,2045,1993,2043,2058,2055,2057,2064
2035,2036,1978,2032,2055,2055,2044,2070
2035,2024,1960,2013,2038,2066,2065,2075
2036,2025,1960,1996,2011,2062,2036,2076
2036,2029,1955,1983,1987,2043,2021,2073
2031,2023,1969,1986,1982,2052,2024,2077
2032,2038,2000,2008,1993,2064,2042,2075
2042,2052,2029,2019,2021,2048,2050,2092
2051,2046,2028,2025,2053,2050,2058,2091
2052,2057,2046,2032,2066,2063,2061,2083
2055,2071,2078,2049,2078,2077,2065,2077
2062,2100,2107,2060,2058,2080,2062,2058
2061,2100,2101,2052,2017,2068,2057,2054
2062,2084,2082,2045,2002,2043,2040,2046
2057,2076,2073,2053,2007,2030,2033,2048
2061,2069,2068,2050,2019,2008,2046,2038
2052,2061,2056,2058,2037,1968,2028,2033
2057,2062,2042,2066,2056,1970,2044,2025
2053,2065,2030,2069,2046,1982,2044,2025
2044,2059,2022,2061,2014,2018,2042,2016
2035,2054,2008,2037,1966,2047,2028,2008
2031,2029,1998,1999,1942,2064,2036,2000
2035,2036,2006,1996,1970,2083,2046,2007
2052,2050,2014,2004,2012,2087,2065,2021
2056,2050,2011,2022,2052,2056,2083,2041
2063,2051,2031,2058,2124,2058,2093,2050
2066,2051,2091,2112,2166,2088,2096,2051
2067,2049,2119,2125,2161,2114,2100,2044
2066,2052,2119,2116,2124,2099,2081,2039
2064,2052,2113,2101,2098,2080,2087,2047
2060,2052,2104,2098,2100,2071,2074,2059
2056,2039,2080,2106,2112,2075,2079,2060
2038,2039,2072,2111,2113,2071,2069,2055
2034,2048,2070,2121,2100,2069,2064,2075
2052,2047,2072,2113,2084,2077,2062,2093
2060,2065,2060,2114,2080,2080,2067,2107
2062,2065,2044,2103,2070,2091,2060,2097
2053,2050,2027,2082,2049,2093,2054,2090
2062,2057,2033,2079,2063,2072,2042,2087
2062,2068,2046,2082,2079,2000,2023,2084
2058,2065,2044,2066,2077,1960,2042,2079
2038,2065,2041,2039,2063,1975,2046,2064
2015,2066,2045,2014,2048,2009,2037,2069
2041,2070,2039,1995,2044,2030,2045,2063
2051,2065,2039,2000,2049,2024,2042,2065
2056,2076,2058,2017,2045,2036,2064,2053
2055,2060,2058,2028,2046,2038,2049,2046
2056,2063,2068,2042,2039,2036,2054,2049
2052,2064,2082,2057,2028,2035,2048,2040
2058,2070,2086,2053,2024,2032,2042,2035
2055,2077,2077,2050,2030,2039,2053,2037
2056,2074,2064,2058,2044,2048,2042,2035
2050,2062,2052,2060,2046,2046,2043,2034
2051,2045,2037,2066,2049,2040,2046,2022
2044,2042,2040,2078,2057,2044,2047,2023
2055,2052,2043,2087,2068,2041,2053,2022
2042,2050,2036,2087,2075,2046,2044,2024
2044,2051,2024,2089,2086,2053,2049,2019
2047,2051,2015,2077,2083,2046,2060,2029
2056,2053,2010,2076,2075,2050,2056,2034
2053,2050,2003,2070,2068,2042,2062,2040
2052,2047,1983,2069,2060,2035,2039,2050
2046,2044,1978,2061,2057,2042,2055,2051
2047,2044,1964,2054,2049,2043,2056,2049
2040,2036,1947,2046,2040,2021,2037,2055
2031,2014,1934,2026,2019,1996,2042,2071
2028,2000,1942,2016,2001,1989,2034,2082
2032,2010,1960,1992,1980,1976,2040,2083
2034,2018,1977,1970,1969,1953,2030,2083
2026,2005,1987,1963,1968,1957,2030,2071
2016,2026,2039,1987,1998,1987,2058,2090
2040,2077,2073,2010,2016,2011,2070,2105
2058,2080,2061,2010,2029,2028,2078,2116
2072,2081,2069,2033,2048,2041,2059,2113
2079,2084,2086,2056,2072,2041,2042,2095
2074,2086,2097,2075,2075,2053,2038,2080
2066,2072,2090,2064,2055,2056,2042,2068
2062,2069,2067,2055,2048,2060,2038,2060
2056,2063,2055,2048,2051,2039,2036,2041
2059,2061,2058,2048,2052,2015,2013,2042
2057,2065,2058,2047,2051,2012,2040,2036
2061,2061,2057,2051,2055,2036,2046,2037
2063,2055,2047,2053,2056,2065,2041,2029
2051,2043,2035,2054,2052,2084,2019,2019
2040,2036,2029,2062,2046,2070,2021,2015
2051,2049,2055,2071,2065,2067,2025,2023
2047,2043,2049,2066,2054,2059,2029,2017
2049,2036,2055,2070,2060,2056,2040,2019
2054,2047,2069,2082,2062,2041,2036,2013
2041,2051,2074,2082,2058,2024,2034,2021
2048,2053,2072,2076,2049,2020,2015,2035
2044,2059,2078,2076,2036,2021,2034,2031
2047,2060,2094,2080,2044,2037,2036,2038
2052,2069,2104,2083,2051,2052,2037,2048
2061,2063,2100,2079,2046,2056,2039,2054
2068,2065,2100,2072,2047,2066,2060,2061
2072,2070,2104,2078,2047,2060,2038,2060
2072,2078,2092,2076,2051,2051,2041,2061
2066,2077,2076,2070,2042,2047,2038,2068
2052,2063,2058,2069,2039,2045,2050,2083
2057,2053,2045,2058,2040,2049,2061,2088
2048,2050,2039,2048,2033,2037,2051,2086
2029,2029,2027,2030,2023,2032,2034,2098
2034,2035,2022,2030,2029,2035,2022,2105
2053,2051,2032,2039,2035,2044,2026,2100
2052,2056,2030,2041,2038,2046,2030,2092
2051,2053,2029,2037,2044,2054,2043,2086
2054,2053,2033,2032,2041,2049,2036,2071
2042,2047,2033,2031,2037,2045,2048,2070
2044,2045,2030,2032,2036,2045,2048,2062
2041,2029,2026,2035,2034,2042,2047,2056
2045,2029,2011,2046,2037,2043,2021,2054
2057,2020,2009,2038,2033,2047,2017,2047
2068,2015,1996,2038,2029,2037,2013,2046
2065,2006,1989,2030,2035,2033,2013,2036
2060,2020,1995,2027,2034,2027,2027,2025
2050,2014,2005,2033,2044,2036,2025,2023
2059,2041,2018,2039,2048,2050,2055,2022
2051,2027,2016,2028,2034,2042,2029,2023
2043,2016,1996,2018,2022,2035,2042,2023
2047,2024,1998,2018,2023,2039,2045,2028
2047,2030,2002,2024,2020,2040,2038,2022
2026,2015,1998,2024,2022,2034,2062,2021
2019,2007,1981,1999,2015,2034,2046,2032
2036,2017,1992,2001,2018,2046,2057,2040
2056,2035,2005,2009,2026,2057,2056,2047
2054,2036,2016,2012,2040,2064,2065,2065
2057,2044,2026,2026,2048,2074,2054,2072
2058,2050,2040,2038,2049,2076,2055,2077
2059,2059,2059,2048,2051,2068,2044,2085
2069,2070,2085,2062,2059,2057,2045,2103
2070,2074,2097,2059,2046,2044,2041,2101
2071,2072,2095,2052,2026,2030,2054,2108
2068,2064,2094,2043,2017,2019,2036,2111
2058,2065,2099,2046,2017,2011,2043,2087
2035,2071,2116,2054,2024,2020,2053,2075
2028,2090,2138,2070,2033,2044,2057,2093
2047,2090,2140,2071,2032,2026,2027,2104
2062,2082,2115,2066,2028,2010,2025,2113
2082,2083,2115,2063,2012,2010,2025,2108
2081,2094,2111,2077,2024,2023,2030,2086
2080,2100,2109,2083,2031,2046,2038,2073
2072,2084,2086,2090,2028,2063,2026,2063
2064,2074,2064,2074,2003,2091,2033,2058
2065,2072,2062,2060,1990,2108,2035,2043
2069,2072,2061,2055,1978,2120,2042,2049
2060,2063,2048,2046,1971,2137,2043,2046
2055,2067,2049,2054,1983,2121,2043,2046
2056,2074,2066,2063,2018,2095,2046,2039
2069,2078,2068,2073,2058,2051,2057,2042
2066,2071,2067,2067,2055,1952,2043,2038
2068,2059,2047,2056,2049,1951,2039,2029
2053,2054,2050,2055,2045,2001,2052,2036
2053,2055,2054,2050,2046,2021,2071,2035
2057,2051,2045,2042,2033,2022,2059,2034
2061,2049,2033,2049,2041,2026,2055,2036
2064,2057,2042,2064,2047,2033,2046,2042
2063,2054,2043,2069,2053,2037,2041,2048
2061,2058,2049,2071,2055,2042,2058,2049
2056,2050,2044,2075,2058,2048,2054,2060
2064,2054,2041,2078,2059,2060,2077,2065
2072,2053,2039,2078,2063,2065,2077,2078
2072,2051,2043,2076,2055,2053,2071,2072
2059,2056,2054,2090,2053,2046,2037,2081
2061,2054,2066,2096,2058,2049,2044,2076
2060,2044,2061,2095,2061,2045,2040,2084
2059,2041,2040,2096,2048,2032,2058,2089
2057,2030,2027,2104,2045,2030,2025,2079
2050,2018,2003,2106,2043,2032,2020,2085
2044,2004,1992,2116,2037,2034,2018,2080
2052,2013,1990,2121,2037,2044,2021,2077
2056,2003,1987,2119,2028,2047,2019,2072
2053,2006,1973,2113,2028,2048,2024,2065
2049,2027,1971,2112,2028,2054,2039,2066
2050,2037,1976,2121,2032,2059,2047,2061
2063,2052,1977,2117,2026,2054,2054,2055
2061,2061,1969,2102,2026,2044,2046,2049
2052,2056,1957,2081,2015,2041,2051,2044
2055,2056,1960,2074,2015,2041,2040,2042
2057,2061,1972,2050,2006,2035,2021,2035
2050,2056,1976,2021,1993,2027,2040,2031
2042,2041,1982,1991,1975,2020,2019,2020
2034,2046,2004,1970,1965,2016,2038,2017
2035,2047,2042,1947,1963,2015,2032,2023
2028,2036,2055,1923,1960,2009,2021,2028
2029,2044,2073,1925,1988,2015,2009,2036
2048,2067,2104,1961,2025,2048,2049,2051
2072,2089,2109,1982,2047,2061,2065,2063
2081,2089,2096,1996,2060,2061,2071,2065
2082,2088,2101,2007,2045,2061,2064,2061
2076,2074,2103,2014,2045,2061,2063,2067
2070,2065,2087,2018,2033,2053,2063,2067
2061,2061,2095,2020,2024,2055,2057,2071
2057,2068,2103,2031,2011,2062,2075,2062
2058,2071,2101,2033,2020,2066,2088,2074
2062,2070,2081,2032,2011,2066,2087,2088
2064,2062,2074,2027,2012,2063,2077,2098
2057,2055,2070,2020,2011,2060,2062,2101
2057,2057,2059,2026,2016,2047,2057,2100
2058,2052,2067,2022,2014,2047,2035,2099
2058,2054,2061,2016,2005,2048,2045,2100
2043,2041,2051,2016,2006,2030,2036,2096
2053,2036,2042,2022,2030,2042,2053,2104
2062,2043,2035,2029,2046,2044,2062,2106
2062,2038,2040,2031,2038,2019,2040,2097
2058,2036,2034,2025,2006,2007,2029,2092
2061,2039,2032,2023,1999,2012,2034,2087
2059,2044,2045,2026,2007,2025,2028,2069
2062,2044,2049,2036,2023,2045,2032,2062
2062,2056,2057,2044,2037,2058,2041,2057
2056,2060,2052,2038,2033,2060,2036,2054
2051,2057,2046,2032,2018,2057,2032,2049
2050,2057,2033,2015,1993,2049,2031,2044
2056,2048,2016,2009,1972,2048,2050,2046
2064,2049,2023,2011,1969,2031,2031,2048
2062,2041,2038,2029,1973,1999,2030,2039
2059,2036,2048,2040,1997,2004,2044,2028
2052,2038,2059,2066,2031,2031,2041,2020
2040,2032,2044,2089,2061,2049,2022,2026
2042,2034,2042,2098,2090,2067,2040,2040
2048,2049,2038,2107,2104,2082,2056,2040
2052,2047,2024,2100,2089,2073,2029,2039
2058,2039,2011,2088,2082,2071,2039,2051
2062,2039,2006,2085,2075,2064,2046,2053
2056,2046,2019,2086,2057,2056,2030,2063
2063,2054,2044,2090,2063,2055,2043,2064
2067,2058,2043,2082,2054,2053,2043,2064
2066,2041,2030,2066,2041,2042,2063,2062
2060,2041,2016,2046,2021,2033,2042,2082
2063,2042,2024,2041,2021,2032,2064,2072
2058,2054,2054,2049,2031,2037,2064,2076
2052,2050,2069,2047,2035,2034,2050,2091
2047,2058,2084,2062,2057,2049,2042,2103
2064,2064,2093,2068,2070,2055,2051,2107
2068,2063,2072,2058,2047,2047,2049,2105
2057,2054,2055,2042,2036,2049,2069,2105
2051,2061,2056,2029,2028,2059,2059,2108
2057,2076,2075,2015,2022,2058,2053,2112
2064,2090,2076,2017,2008,2050,2050,2095
2061,2080,2063,2023,2012,2050,2038,2077
2053,2069,2056,2036,2017,2044,2033,2076
2049,2057,2042,2030,2002,2043,2050,2061
2052,2047,2039,2018,2002,2038,2056,2063
2053,2044,2037,2022,2002,2033,2050,2062
2047,2044,2039,2024,2001,2025,2040,2059
2048,2056,2054,2028,2007,2027,2039,2054
2053,2058,2060,2031,1998,2038,2041,2041
2049,2048,2054,2021,1979,2041,2049,2023
2051,2051,2069,2025,1983,2060,2039,2027
2062,2073,2096,2029,1998,2085,2074,2036
2057,2084,2103,2029,2008,2068,2062,2048
2053,2074,2096,2040,2031,2021,2079,2053
2057,2067,2082,2046,2060,2015,2083,2057
2060,2065,2070,2039,2056,2031,2085,2058
2059,2056,2052,2049,2048,2054,2085,2051
2058,2052,2050,2038,2040,2073,2074,2046
2057,2054,2050,2046,2049,2082,2053,2051
2057,2051,2053,2043,2045,2074,2079,2050
2056,2057,2056,2045,2038,2068,2085,2053
2059,2061,2059,2050,2033,2068,2097,2059
2051,2058,2066,2051,2040,2073,2086,2068
2061,2056,2057,2053,2042,2068,2091,2073
2058,2057,2061,2050,2044,2064,2074,2078
2051,2058,2060,2049,2040,2049,2059,2084
2053,2048,2050,2043,2037,2038,2050,2091
2051,2047,2048,2043,2022,2027,2044,2105
2056,2054,2053,2049,2024,2026,2051,2102
2056,2045,2043,2044,2023,2026,2045,2107
2057,2038,2039,2041,2013,2039,2031,2101
2050,2036,2039,2042,2020,2043,2048,2091
2048,2032,2038,2039,2028,2048,2044,2092
2054,2028,2039,2046,2026,2058,2048,2088
2055,2022,2044,2049,2025,2052,2058,2082
2055,2029,2050,2055,2023,2050,2051,2080
2059,2046,2051,2058,2020,2048,2048,2068
2056,2041,2043,2073,2020,2026,2056,2072
2063,2036,2038,2087,2018,2037,2064,2072
2064,2034,2035,2090,2021,2036,2054,2068
2063,2034,2030,2085,2017,2027,2015,2056
2059,2024,2017,2076,2014,2037,2037,2047
2055,2022,2009,2072,2011,2045,2035,2044
2049,2026,2019,2071,2010,2045,2042,2034
2046,2033,2031,2069,2011,2034,2056,2028
2039,2028,2026,2057,2011,2033,2046,2023
2038,2029,2024,2044,2012,2029,2040,2036
2054,2031,2035,2037,2015,2044,2054,2053
2063,2046,2043,2032,2018,2046,2070,2049
2061,2057,2052,2021,2018,2052,2069,2043
2059,2056,2054,2022,2030,2061,2064,2045
2045,2047,2050,2019,2026,2056,2036,2051
2047,2030,2032,2006,2020,2053,2041,2056
2039,2026,2020,2012,2017,2046,2037,2061
2036,2032,2017,2017,2022,2043,2064,2069
2045,2042,2037,2032,2033,2048,2048,2087
2060,2070,2059,2053,2042,2048,2064,2092
2068,2066,2062,2061,2046,2043,2069,2101
2070,2064,2064,2072,2039,2039,2067,2101
2064,2069,2078,2080,2038,2038,2062,2106
2066,2068,2085,2086,2041,2044,2042,2106
2058,2067,2086,2088,2036,2039,2023,2100
2051,2053,2070,2072,2023,2040,2067,2105
2049,2051,2061,2070,2028,2045,2053,2108
2056,2045,2049,2077,2016,2040,2054,2096
2052,2049,2031,2066,2002,2034,2036,2095
2058,2053,2036,2057,1996,2040,2037,2091
2069,2049,2022,2043,1993,2060,2040,2084
2071,2049,2024,2042,1995,2066,2037,2080
2064,2052,2033,2045,2006,2082,2053,2072
2059,2053,2026,2039,2006,2086,2062,2064
2047,2051,2029,2060,2013,2101,2056,2069
2048,2065,2057,2077,2020,2080,2066,2061
2059,2070,2073,2083,2014,2021,2048,2057
2066,2073,2067,2077,1993,2020,2052,2050
2065,2069,2051,2062,1965,2033,2053,2050
2059,2066,2038,2064,1953,2045,2048,2036
2054,2060,2050,2072,1980,2054,2042,2033
2055,2047,2044,2072,1983,2032,2037,2036
2057,2055,2062,2071,2018,2009,2061,2048
2064,2065,2063,2045,2066,2005,2067,2050
2057,2058,2061,2035,2102,2023,2066,2048
2060,2065,2076,2042,2118,2050,2079,2050
2064,2072,2088,2055,2122,2068,2093,2050
2061,2063,2073,2035,2107,2074,2074,2053
2056,2057,2038,1998,2085,2076,2063,2057
2057,2040,2025,1979,2086,2084,2072,2058
2052,2031,2022,1976,2096,2097,2058,2066
2045,2032,2028,1984,2042,2083,2059,2072
2046,2039,2053,2015,1970,2057,2055,2092
2056,2044,2038,2018,1860,2038,2059,2105
2058,2045,2020,2017,1814,2014,2071,2103
2059,2037,2016,2032,1902,2032,2048,2116
2062,2048,2014,2072,2002,2074,2087,2128
2063,2051,2003,2086,2018,2085,2084,2119
2062,2055,2006,2068,1947,2066,2065,2114
2065,2056,2007,2049,1944,2049,2030,2094
2056,2043,1985,2031,1958,2032,2012,2078
2038,2015,1953,1989,1967,2011,1977,2063
2025,1994,1940,1979,1982,1968,2017,2064
2041,2014,1974,2001,2041,1932,2030,2084
2057,2044,2021,2006,2097,1985,2073,2082
2062,2057,2047,2000,2081,2029,2071,2075
2058,2059,2081,2015,2099,2065,2067,2074
2065,2066,2113,2033,2084,2063,2058,2066
2066,2077,2129,2036,2061,2058,2061,2053
2061,2078,2142,2040,2061,2047,2056,2044
2045,2065,2132,2040,2062,2050,2049,2037
2047,2057,2117,2051,2074,2080,2070,2044
2051,2065,2107,2053,2106,2104,2080,2042
2056,2049,2080,2034,2097,2095,2069,2032
2050,2041,2064,2050,2091,2102,2072,2035
2057,2045,2049,2068,2108,2098,2081,2047
2054,2034,2031,2065,2069,2081,2068,2056
2053,2026,2021,2049,2032,2063,2053,2044
2048,2016,2007,2031,2047,2038,2044,2034
2044,2032,2031,2029,2049,2010,2050,2039
2045,2050,2045,2026,2037,2008,2053,2044
2048,2046,2028,2024,2018,2000,2054,2065
2058,2030,2006,2001,1936,1993,2066,2069
2064,2032,2006,2027,1990,2012,2057,2078
2064,2034,2018,2047,2033,2016,2060,2078
2054,2029,2017,2046,2006,2026,2074,2085
2056,2032,2042,2036,1965,1996,2060,2107
2060,2021,2041,2026,1968,1989,2034,2114
2052,2021,2053,2042,1986,1995,2043,2120
2044,2040,2062,2049,1997,2007,2023,2119
2058,2063,2091,2065,1993,2044,2041,2116
2062,2077,2111,2083,2036,2084,2069,2118
2056,2058,2089,2072,2020,2087,2055,2106
2051,2048,2072,2064,2020,2078,2047,2099
2044,2039,2061,2052,2029,2062,2031,2084
2037,2037,2060,2045,2065,2059,2046,2077
2045,2038,2064,2044,2112,2073,2038,2073
2060,2062,2087,2055,2165,2069,2048,2075
2059,2066,2089,2048,2126,2042,2054,2085
2068,2054,2062,2035,2041,2011,2044,2077
2060,2036,2043,2029,1999,1991,2024,2058
2056,2039,2042,2046,2013,1995,2024,2047
2062,2048,2059,2077,2016,2020,2059,2039
2065,2059,2072,2072,1951,2018,2039,2040
2057,2059,2065,2053,1917,2025,2054,2049
2065,2056,2058,2043,1902,2040,2047,2036
2050,2033,2041,2024,1913,2043,2023,2039
2051,2036,2033,2014,1955,2061,2043,2042
2053,2042,2040,2025,2005,2065,2046,2038
2051,2042,2057,2039,2002,2038,2042,2045
2059,2047,2065,2035,2059,2026,2066,2050
2067,2068,2079,2054,2082,2049,2084,2061
2091,2074,2079,2066,2063,2052,2064,2073
2094,2075,2071,2064,2065,2047,2064,2084
2086,2070,2066,2048,2064,2052,2057,2071
2074,2053,2053,2044,2088,2061,2066,2085
2062,2050,2056,2059,2124,2079,2075,2093
2055,2048,2061,2069,2125,2085,2070,2097
2061,2033,2048,2067,2124,2080,2063,2081
2043,2023,2035,2054,2082,2060,2077,2109
2043,2007,2015,2026,2041,2042,2057,2125
2033,2021,2020,2029,2032,2035,2064,2119
2040,2028,2034,2028,1996,2036,2068,2125
2048,2031,2040,2025,1978,2036,2074,2119
2059,2037,2039,2036,2006,2041,2081,2116
2059,2045,2043,2044,2046,2049,2072,2119
2052,2047,2044,2053,2073,2060,2069,2113
2053,2055,2056,2070,2113,2076,2080,2101
2059,2062,2067,2063,2163,2083,2073,2088
2052,2059,2052,2037,2162,2082,2070,2075
2049,2050,2050,2040,2138,2087,2057,2079
2064,2049,2051,2047,2142,2072,2049,2075
2050,2044,2037,2043,2128,2051,2038,2063
2047,2040,2027,2038,2022,2038,2047,2054
2053,2040,2021,2015,1974,2042,2046,2050
2049,2032,2010,2025,2079,2050,2041,2039
2042,2023,2001,2026,2022,2033,2047,2030
2032,2015,2011,2011,1889,2035,2042,2034
2031,2018,2016,2029,1958,2021,2036,2029
2038,2012,2008,2044,2012,2014,2045,2035
2041,2023,2016,2065,2038,2031,2039,2043
2046,2031,2018,2075,2056,2034,2029,2044
2049,2033,2023,2058,2050,2032,2052,2050
2053,2028,2021,2046,2086,2050,2054,2057
2062,2036,2016,2027,2072,2053,2053,2060
2061,2037,2011,2011,2067,2062,2040,2067
2051,2023,2002,2009,2062,2058,2042,2056
2045,2026,2005,2021,2094,2078,2032,2064
2067,2031,2029,2065,2120,2082,2053,2079
2077,2044,2052,2085,2134,2073,2035,2098
2079,2055,2064,2088,2133,2074,2060,2111
2085,2057,2063,2072,2093,2054,2036,2102
2060,2037,2048,2027,1983,2038,2054,2108
2045,2029,2033,1988,1883,2001,2036,2098
2023,2028,2042,1980,1848,1990,2032,2092
2024,2037,2057,1992,1858,1999,2044,2104
2046,2051,2076,2026,1926,2025,2062,2110
2059,2064,2080,2049,2017,2081,2063,2101
2052,2066,2079,2030,2009,2088,2024,2088
2043,2063,2085,1992,1913,2076,2024,2070
2043,2068,2078,1977,1894,2064,2030,2072
2045,2076,2076,1979,1930,2033,2055,2090
2064,2085,2074,2005,2010,1985,2046,2089
2068,2091,2077,2032,2073,2009,2064,2075
2075,2089,2083,2051,2093,2045,2071,2063
2067,2081,2080,2051,2070,2037,2052,2065
2069,2066,2079,2056,2069,2018,2052,2057
2066,2054,2066,2059,2060,2009,2056,2056
2062,2049,2045,2065,2104,2040,2034,2045
2058,2032,2030,2065,2109,2061,2037,2028
2033,2014,2020,2074,2136,2062,2047,2024
2031,2014,2020,2087,2132,2039,2052,2029
2046,2027,2023,2063,2033,2028,2068,2032
2037,2042,2037,2062,1921,2034,2050,2033
2034,2046,2043,2056,1869,2027,2056,2020
2033,2047,2046,2041,1854,2008,2045,2020
2032,2035,2033,2023,1886,2002,2043,2020
2042,2036,2028,2033,1961,2016,2038,2037
2044,2042,2033,2023,2025,2026,2042,2039
2044,2052,2045,2026,2084,2047,2062,2050
2049,2054,2048,2020,2075,2059,2071,2070
2052,2051,2036,2011,2107,2084,2058,2066
2051,2042,2021,2001,2096,2094,2044,2068
2045,2027,2015,1994,2017,2082,2043,2060
2037,2023,2009,1989,1929,2054,2030,2061
2030,2012,2004,1997,1972,2031,2026,2074
2037,2024,2024,2035,2030,2012,2041,2099
2044,2046,2059,2077,2093,2005,2076,2122
2047,2046,2063,2091,2114,2019,2063,2129
2054,2049,2045,2086,2125,2046,2065,2118
2057,2044,2041,2086,2115,2067,2055,2124
2058,2042,2044,2091,2101,2069,2052,2114
2064,2033,2039,2084,2064,2066,2069,2115
2070,2030,2038,2085,2073,2074,2079,2106
2072,2026,2038,2089,2060,2063,2056,2076
2058,2014,2028,2076,2064,2071,2071,2072
2057,2022,2032,2079,2091,2095,2056,2070
2061,2018,2028,2070,2100,2105,2049,2059
2062,2021,2035,2076,2156,2120,2058,2058
2059,2023,2034,2046,2139,2108,2064,2048
2046,2021,2027,2019,2113,2085,2033,2035
2027,2025,2023,2012,2088,2053,2045,2031
2029,2037,2022,1983,2019,2022,2032,2034
2043,2040,2026,1959,1963,2005,2024,2027
2033,2043,2042,1968,1973,1997,2030,2030
2048,2064,2078,1991,1996,1988,2047,2053
2080,2084,2107,2018,2004,1982,2051,2060
2080,2073,2098,2019,2000,1986,2036,2046
2068,2057,2080,2020,1984,2000,2056,2037
2062,2061,2076,2027,1990,2010,2059,2036
2056,2061,2078,2035,2016,2039,2059,2044
2050,2052,2076,2035,2057,2058,2071,2053
2046,2051,2073,2043,2102,2042,2063,2049
2043,2050,2069,2060,2178,2035,2055,2062
2053,2046,2061,2064,2178,2040,2056,2068
2053,2050,2051,2029,2042,2082,2052,2075
2053,2041,2045,2036,2066,2093,2046,2090
2046,2050,2056,2064,2110,2091,2062,2097
2055,2052,2060,2067,2107,2079,2064,2107
2057,2059,2055,2059,2121,2081,2063,2097
2048,2046,2049,2045,2099,2080,2056,2097
2042,2039,2052,2019,2003,2081,2062,2097
2044,2044,2054,2015,1966,2068,2050,2089
2058,2047,2050,2012,1961,2051,2042,2086
2048,2030,2031,2001,1957,2036,2039,2075
2056,2035,2033,2021,1994,2058,2050,2088
2069,2053,2057,2043,1989,2072,2054,2082
2069,2050,2071,2059,1974,2079,2064,2076
2072,2056,2069,2049,1958,2064,2071,2073
2067,2048,2058,2033,1939,2051,2053,2076
2060,2032,2046,2025,1963,2062,2062,2051
2049,2034,2045,2028,1971,2071,2072,2039
2059,2053,2060,2047,1998,2097,2066,2052
2059,2059,2060,2056,2012,2096,2061,2047
2062,2054,2068,2049,2014,2075,2063,2034
2060,2061,2065,2053,2085,2047,2044,2029
2048,2046,2048,2065,2122,2058,2038,2024
2053,2046,2043,2082,2133,2078,2062,2028
2055,2046,2052,2082,2164,2071,2036,2029
2049,2050,2062,2072,2140,2038,2051,2029
2052,2053,2074,2063,2006,2009,2040,2040
2051,2061,2067,2064,2011,2010,2056,2043
2064,2069,2066,2086,2080,2022,2041,2051
2068,2068,2058,2077,2023,2009,2044,2058
2064,2066,2042,2034,1843,1988,2034,2057
2065,2058,2026,2017,1815,1969,2047,2065
2068,2057,2031,2021,1852,1970,2040,2069
2063,2054,2026,2032,1926,2009,2042,2070
2056,2041,2021,2060,2150,2076,2046,2068
2050,2042,2022,2091,2323,2125,2061,2067
2044,2027,2021,2100,2350,2141,2048,2078
2031,2026,2024,2083,2228,2152,2061,2090
2031,2030,2036,2014,1934,2117,2051,2082
2039,2036,2041,1939,1746,2109,2050,2081
2043,2048,2053,1975,1804,2131,2057,2092
2065,2072,2087,2033,1911,2113,2075,2111
2069,2084,2107,2057,1939,2030,2064,2118
2071,2075,2105,2059,1932,1960,2066,2102
2072,2072,2112,2058,1926,1944,2044,2089
2076,2068,2109,2089,2066,2004,2048,2078
2072,2068,2103,2081,2041,2028,2051,2062
2069,2053,2082,2057,1990,2030,2069,2047
2059,2048,2072,2054,2083,2045,2043,2042
2058,2045,2069,2040,2047,2050,2053,2038
2048,2047,2062,2033,1990,2069,2069,2042
2040,2044,2060,2030,2019,2109,2049,2036
2045,2036,2053,2042,2086,2134,2048,2028
2048,2038,2047,2028,2026,2104,2049,2022
2043,2022,2031,2007,1973,2073,2014,2005
2034,2012,2022,1991,1976,2012,2020,2007
2037,2011,2023,1994,1978,1974,2057,2022
2046,2023,2034,2061,2218,2032,2080,2040
2058,2032,2044,2078,2257,2057,2067,2034
2058,2028,2039,2070,2270,2051,2059,2026
2050,2036,2056,2080,2230,2029,2034,2019
2051,2040,2065,2068,2148,2037,2043,2027
2050,2030,2054,2054,2111,2035,2062,2035
2047,2034,2052,2053,2103,2037,2068,2043
2040,2041,2056,2053,2102,2038,2058,2052
2034,2042,2049,2052,2096,2035,2053,2070
2052,2051,2055,2053,2094,2028,2032,2074
2050,2049,2050,2047,2072,2025,2040,2076
2047,2043,2052,2042,2070,2018,2030,2086
2049,2041,2042,2040,2061,2017,2022,2082
2046,2028,2029,2035,2053,2026,2011,2084
2040,2020,2025,2035,2052,2027,2044,2086
2051,2030,2033,2043,2051,2041,2054,2084
2054,2035,2034,2041,2058,2049,2052,2080
2047,2023,2015,2048,2054,2056,2036,2068
2049,2020,2016,2050,2058,2057,2046,2062
2040,2024,2025,2062,2058,2069,2069,2057
2045,2024,2028,2066,2069,2074,2059,2042
2046,2015,2028,2069,2063,2075,2053,2043
2044,2017,2024,2065,2072,2082,2034,2037
2047,2022,2038,2073,2076,2089,2048,2026
2051,2036,2052,2083,2098,2099,2053,2028
2058,2054,2068,2088,2098,2086,2040,2025
2049,2045,2055,2084,2084,2074,2039,2021
2045,2039,2044,2074,2067,2066,2042,2012
2051,2037,2044,2073,2053,2074,2048,2019
2049,2040,2054,2067,2038,2082,2039,2019
2042,2034,2061,2063,2022,2083,2052,2021
2049,2055,2084,2061,2003,2052,2067,2041
2068,2070,2088,2055,1953,1982,2041,2032
2065,2063,2085,2048,1932,1974,2046,2022
2054,2062,2076,2046,1997,2022,2032,2031
2050,2055,2051,2043,2027,2040,2050,2039
2042,2047,2035,2025,2037,2039,2037,2039
2049,2045,2028,2037,2064,2057,2038,2046
2053,2055,2046,2058,2080,2064,2044,2052
2056,2060,2070,2044,2075,2061,2042,2057
2053,2055,2070,2032,2092,2071,2045,2072
2053,2048,2062,2032,2109,2088,2041,2084
2059,2053,2065,2042,2140,2099,2036,2090
2056,2060,2073,2037,2124,2116,2057,2090
2059,2059,2062,2024,2070,2116,2039,2080
2059,2051,2043,2013,2037,2116,2039,2087
2060,2044,2051,2007,2014,2045,2035,2097
2058,2037,2049,2023,2051,1964,2020,2074
2044,2029,2046,2036,2068,1974,2026,2070
2045,2022,2031,2030,2016,1999,2034,2081
2056,2033,2048,2056,2042,2004,2044,2087
2074,2037,2049,2075,2070,2064,2029,2057
2053,2024,2050,2084,2091,2114,2040,2026
2036,2011,2045,2075,2080,2128,2042,2012
2029,2015,2033,2054,2038,2128,2033,2012
2006,2011,2030,2034,1989,2100,2009,2012
2008,2026,2041,2051,2058,2054,2022,2021
2035,2042,2056,2052,2068,2013,2035,2023
2044,2050,2059,2040,1997,2005,2030,2026
2052,2059,2065,2033,1962,2022,2039,2024
2056,2052,2052,2033,2041,2042,2037,2017
2050,2042,2046,2036,2066,2036,2038,2025
2057,2056,2058,2032,1989,2036,2040,2023
2067,2071,2064,2036,1922,2022,2043,2027
2057,2068,2055,2032,1867,1992,2043,2014
2055,2060,2053,2029,1846,1974,2030,2024
2056,2060,2060,2034,1861,1981,2044,2030
2057,2060,2054,2040,1899,1988,2044,2047
2056,2058,2048,2040,1940,2005,2043,2045
2052,2053,2041,2050,1985,2023,2041,2052
2049,2043,2036,2053,2043,2046,2049,2058
2047,2037,2032,2069,2150,2068,2061,2067
2049,2040,2038,2100,2273,2089,2057,2081
2048,2043,2035,2112,2275,2091,2078,2092
2055,2038,2033,2108,2255,2067,2072,2093
2053,2027,2033,2091,2152,2027,2044,2092
2051,2023,2028,2065,2029,1985,2037,2085
2036,2012,2021,2056,2010,1969,2014,2065
2015,2008,2012,2042,2019,1994,2036,2061
2028,2025,2031,2064,2083,2036,2054,2069
2050,2030,2053,2083,2089,2065,2082,2080
2059,2042,2059,2092,2078,2076,2077,2088
2070,2039,2037,2055,2051,2064,2069,2090
2081,2037,2026,2028,2065,2057,2035,2072
2067,2028,2015,2036,2117,2061,2052,2050
2065,2025,2027,2048,2124,2079,2048,2039
2058,2032,2041,2042,2124,2088,2055,2029
2049,2036,2050,2039,2118,2088,2061,2016
2032,2048,2066,2038,2104,2089,2050,2013
2034,2046,2076,2039,2060,2079,2060,2033
2052,2048,2071,2049,2035,2071,2060,2032
2043,2053,2071,2050,2000,2043,2056,2029
2034,2050,2053,2041,1996,2035,2037,2016
2033,2033,2045,2044,2002,2047,2039,2013
2022,2031,2042,2056,2021,2058,2057,2022
2046,2041,2045,2048,2037,2057,2049,2019
2044,2042,2043,2043,2056,2064,2041,2017
2043,2050,2055,2052,2123,2104,2053,2022
2054,2059,2064,2059,2152,2120,2063,2023
2054,2055,2065,2064,2139,2106,2025,2027
2041,2048,2047,2051,2071,2068,2034,2023
2031,2030,2038,2037,2014,2040,2043,2030
2043,2032,2036,2039,2029,2026,2043,2042
2048,2028,2038,2044,2071,2017,2050,2051
2055,2035,2049,2054,2102,2023,2056,2075
2062,2051,2052,2046,2028,2024,2064,2077
2056,2039,2043,2021,1936,2030,2040,2092
2052,2047,2047,2048,2025,2046,2068,2092
2058,2060,2056,2065,2088,2056,2061,2088
2046,2040,2032,2058,2082,2055,2055,2084
2044,2039,2030,2049,2037,2040,2052,2084
2044,2040,2033,2052,2029,2047,2057,2083
2043,2043,2036,2061,2029,2046,2068,2079
2062,2063,2042,2061,2026,2044,2052,2074
2060,2051,2027,2064,2025,2035,2031,2061
2045,2037,2011,2061,2021,2027,2037,2059
2044,2036,2021,2072,2026,2031,2051,2049
2049,2043,2030,2077,2028,2029,2038,2049
2052,2049,2041,2080,2028,2017,2022,2040
2046,2040,2050,2081,2020,2018,2023,2035
2044,2036,2051,2074,2024,2026,2034,2029
2043,2037,2050,2072,2029,2035,2050,2030
2043,2034,2044,2076,2045,2045,2056,2019
2051,2034,2040,2078,2074,2056,2050,2013
2045,2027,2036,2071,2073,2056,2049,2012
2041,2024,2046,2061,2044,2040,2046,2016
2044,2040,2066,2054,2029,2044,2057,2024
2057,2065,2083,2064,2041,2063,2063,2032
2068,2067,2079,2071,2049,2061,2054,2014
2058,2059,2071,2070,2061,2078,2056,2006
2041,2054,2073,2069,2086,2096,2071,2018
2037,2056,2068,2066,2065,2084,2071,2030
2035,2051,2052,2051,2027,2078,2065,2045
2037,2053,2047,2042,2004,2061,2073,2059
2052,2069,2071,2061,2007,2036,2084,2072
2057,2074,2072,2054,2012,2013,2065,2076
2050,2063,2053,2016,1967,1989,2040,2058
2039,2044,2031,1993,1890,1989,2046,2050
2037,2041,2042,2020,1963,2010,2018,2075
2042,2054,2065,2044,2037,2018,2020,2086
2046,2057,2073,2045,2011,2035,2004,2085
2047,2048,2062,2038,2014,2029,1987,2066
2037,2039,2049,2052,2089,2041,2016,2068
2036,2046,2059,2066,2129,2077,2036,2077
2051,2050,2067,2066,2090,2058,2033,2070
2044,2045,2066,2063,2067,2026,2045,2077
2061,2042,2061,2084,2108,2027,2055,2083
2074,2055,2059,2098,2134,2047,2053,2072
2079,2056,2052,2073,2085,2059,2056,2066
2086,2054,2041,2044,2069,2103,2043,2051
2089,2057,2037,2025,2033,2154,2045,2031
2066,2037,2032,2005,1904,2176,2048,2013
2038,2034,2033,2035,2015,2179,2030,2003
2010,2014,2026,2049,2178,2127,2030,2000
2006,2024,2030,2064,2237,2050,2036,2014
2034,2050,2054,2088,2280,2045,2060,2032
2051,2073,2065,2096,2268,2073,2079,2040
2056,2067,2056,2084,2177,2075,2056,2025
2046,2043,2031,2044,1976,2040,2058,2009
2037,2032,2024,2024,1885,2026,2028,1997
2034,2031,2028,2040,1956,2038,2023,2003
2037,2031,2035,2040,1972,2041,2020,1996
2031,2022,2029,2037,2020,2031,2019,1997
2033,2028,2042,2056,2030,2009,2033,2010
2038,2042,2059,2065,2042,1993,2034,2019
2050,2050,2075,2079,2049,1985,2034,2022
2050,2047,2069,2073,2057,2001,2034,2022
2046,2052,2070,2069,2056,2026,2038,2028
2044,2050,2070,2070,2085,2047,2043,2044
2034,2048,2063,2066,2091,2051,2048,2045
2027,2037,2053,2064,2102,2050,2040,2059
2021,2040,2053,2072,2102,2054,2043,2064
2034,2040,2056,2071,2108,2057,2042,2072
2042,2047,2060,2067,2114,2058,2037,2076
2052,2045,2054,2057,2076,2047,2035,2078
2044,2034,2049,2054,2055,2038,2037,2079
2048,2044,2056,2050,2024,2041,2037,2084
2046,2041,2041,2021,1943,2036,2051,2070
2047,2027,2035,2037,2014,2044,2038,2066
2043,2021,2020,2047,2078,2047,2024,2055
2044,2013,2021,2051,2097,2058,2037,2058
2045,2019,2022,2054,2110,2068,2044,2047
2049,2029,2030,2058,2108,2064,2033,2035
2044,2023,2024,2060,2095,2060,2043,2028
2051,2026,2028,2071,2090,2064,2022,2006
2041,2022,2025,2047,2052,2048,2028,1989
2032,2012,2026,2045,2015,2038,2030,2001
2032,2014,2030,2043,2006,2034,2026,2006
2028,2016,2022,2048,2009,2039,2032,2015
2039,2029,2010,2057,2022,2044,2049,2015
2037,2020,2005,2067,2032,2031,2018,2004
2028,2002,1996,2070,2030,2024,2009,1992
2018,1989,1987,2068,2040,2027,2016,1993
2025,2004,2014,2086,2048,2040,2022,1996
2033,2029,2033,2097,2067,2046,2030,2006
2045,2046,2054,2107,2072,2049,2031,2007
2047,2055,2070,2105,2067,2037,2020,2011
2039,2055,2074,2100,2061,2032,2021,2006
2041,2049,2066,2096,2063,2036,2012,2024
2052,2047,2056,2084,2053,2033,2004,2022
2040,2039,2048,2065,2049,2023,2002,2016
2032,2034,2037,2048,2043,2029,2025,2028
2032,2028,2041,2049,2042,2036,2020,2035
2041,2035,2057,2057,2043,2047,2026,2057
2048,2042,2076,2065,2050,2053,2023,2062
2058,2052,2093,2066,2053,2059,2021,2062
2051,2065,2104,2062,2051,2066,2060,2071
2051,2065,2084,2052,2045,2057,2059,2073
2051,2062,2059,2047,2054,2058,2037,2087
2060,2060,2041,2038,2072,2070,2050,2085
2067,2072,2024,2046,2094,2084,2066,2084
2064,2067,2018,2047,2100,2073,2064,2074
2055,2063,2016,2045,2075,2057,2049,2052
2058,2048,2009,2035,2054,2032,2038,2047
2053,2043,2009,2033,2045,2030,2022,2041
2055,2047,2007,2036,2050,2050,2047,2030
2054,2054,2020,2046,2052,2056,2034,2029
2056,2062,2047,2053,2055,2047,2042,2024
2057,2062,2056,2050,2054,2054,2024,2020
2052,2054,2050,2042,2051,2045,2039,2020
2046,2047,2046,2034,2049,2050,2031,2014
2046,2051,2063,2031,2042,2049,2028,2015
2048,2052,2063,2040,2051,2057,2038,2007
2049,2049,2079,2053,2059,2063,2045,2003
2052,2049,2097,2067,2059,2060,2022,2011
2051,2050,2103,2074,2055,2058,2013,2013
2049,2056,2100,2083,2063,2056,2026,2021
2051,2055,2094,2082,2060,2042,2040,2015
2049,2053,2082,2082,2062,2033,2024,2009
2052,2049,2078,2077,2057,2021,2043,2011
2060,2057,2082,2063,2040,2020,2052,2021
2067,2062,2082,2060,2030,2030,2052,2028
2064,2064,2083,2073,2040,2034,2037,2027
2056,2060,2082,2072,2045,2035,2046,2036
2064,2059,2072,2056,2024,2043,2056,2051
2061,2055,2060,2037,1995,2053,2053,2058
2061,2056,2066,2026,1973,2056,2061,2056
2052,2056,2071,2028,1989,2079,2046,2057
2043,2043,2053,2014,1972,2088,2020,2066
2036,2036,2046,2005,1994,2070,2025,2056
2035,2042,2047,2013,2062,2092,2030,2067
2039,2035,2052,2029,2131,2146,2057,2070
2036,2037,2051,2046,2158,2176,2048,2079
2046,2054,2061,2058,2138,2158,2056,2072
2046,2045,2068,2060,2153,2081,2048,2067
2043,2043,2078,2071,2238,2033,2023,2061
2050,2051,2084,2085,2292,2056,2029,2061
2059,2051,2077,2085,2264,2075,2034,2056
2054,2052,2067,2080,2239,2080,2049,2048
2046,2050,2064,2080,2207,2078,2038,2041
2050,2052,2050,2031,2014,2037,2030,2033
2048,2043,2051,2010,1958,2008,2021,2029
2048,2040,2047,1999,1911,1980,2031,2025
2039,2038,2041,2002,1866,1977,2048,2021
2045,2045,2038,2025,1937,2016,2059,2020
2053,2052,2044,2038,1999,2040,2039,2010
2050,2047,2039,2046,2018,2057,2039,2000
2047,2043,2030,2037,2015,2050,1998,1988
2038,2037,2028,2038,2017,2047,2019,1989
2038,2034,2033,2039,2019,2072,2037,1997
2057,2043,2042,2041,2012,2085,2043,2003
2055,2040,2039,2036,2005,2075,2039,2004
2051,2038,2045,2039,2002,2064,2040,2008
2051,2044,2054,2044,2007,2044,2024,2012
2051,2050,2063,2057,2026,1988,2030,2029
2054,2044,2063,2061,2044,1965,2020,2036
2047,2034,2054,2059,2039,1980,2038,2039
2051,2042,2054,2074,2073,2023,2050,2036
2045,2041,2061,2077,2037,2025,2044,2040
2043,2043,2065,2065,2042,2010,2041,2036
2038,2036,2057,2061,2053,2003,2053,2050
2037,2033,2055,2058,2020,1994,2035,2053
2039,2025,2045,2041,1988,1983,2035,2053
2034,2013,2035,2013,1968,1988,2021,2052
2038,2016,2039,2031,2039,2039,2050,2066
2045,2025,2058,2075,2110,2076,2046,2078
2053,2036,2060,2070,2140,2090,2054,2081
2054,2037,2053,2069,2152,2094,2050,2079
2058,2033,2047,2060,2098,2082,2044,2073
2054,2034,2044,2057,2088,2063,2034,2061
2054,2029,2049,2054,2081,2045,2029,2038
2048,2040,2056,2062,2092,2040,2045,2026
2030,2046,2050,2063,2071,2057,2047,2026
2049,2052,2055,2064,2075,2069,2053,2034
2064,2061,2055,2064,2090,2083,2063,2035
2058,2057,2055,2060,2091,2079,2046,2025
2053,2052,2047,2050,2080,2079,2058,2022
2056,2041,2038,2056,2097,2089,2052,2019
2062,2038,2023,2035,2098,2088,2049,2013
2052,2032,2015,2038,2125,2094,2040,2004
2036,2044,2026,2049,2113,2083,2037,1998
2033,2046,2036,2047,2060,2050,2038,1986
2033,2052,2040,2064,2042,2047,2021,1989
2040,2053,2041,2072,2049,2059,2051,1991
2037,2049,2044,2079,2021,2062,2055,1991
2040,2045,2038,2057,1926,2044,2022,2002
2038,2041,2034,2031,1882,2026,2016,2010
2050,2054,2042,2034,1945,2021,2034,2019
2062,2053,2055,2057,2063,2010,2040,2013
2048,2046,2050,2068,2139,1995,2033,2006
2041,2035,2042,2061,2152,1992,2009,2012
2038,2032,2051,2074,2139,2017,2021,2020
2040,2031,2062,2061,2118,2060,2042,2036
2049,2049,2086,2083,2106,2086,2038,2055
2052,2062,2096,2086,2092,2081,2036,2063
2049,2068,2085,2076,2105,2077,2034,2059
2039,2049,2064,2050,2089,2084,2035,2059
2030,2039,2047,2042,2084,2081,2024,2049
2023,2023,2034,2024,2042,2077,2014,2042
2019,2015,2029,2004,1940,2070,2017,2052
2023,2036,2045,2022,1938,2065,2049,2066
2050,2060,2068,2075,2058,2042,2054,2078
2065,2074,2089,2102,2116,2004,2054,2073
2063,2069,2083,2098,2143,2011,2050,2065
2060,2058,2075,2092,2165,2027,2039,2051
2046,2052,2061,2078,2155,2010,2036,2037
2047,2048,2060,2072,2134,1998,2033,2033
2048,2050,2059,2056,2086,1990,2028,2027
2048,2048,2054,2033,1979,1988,2022,2019
2046,2039,2047,2017,1888,1992,2032,2020
2038,2045,2046,2040,1982,2029,2046,2018
2048,2045,2061,2075,2086,2053,2054,2014
2049,2050,2059,2068,2073,2054,2042,2015
2050,2048,2059,2060,2043,2048,2061,2006
2048,2051,2055,2062,2021,2045,2045,2002
2042,2038,2043,2066,2033,2048,2052,2004
2045,2028,2037,2068,2045,2049,2062,2007
2056,2037,2048,2078,2067,2057,2058,2013
2058,2043,2052,2081,2076,2065,2077,2003
2057,2056,2051,2076,2058,2059,2066,2010
2057,2049,2047,2064,2048,2033,2032,2006
2045,2041,2052,2059,2045,2026,2047,2002
2040,2050,2065,2068,2059,2017,2042,2000
2041,2053,2070,2062,2056,2013,2014,2009
2038,2053,2054,2055,2066,2010,2024,2022
2041,2049,2035,2048,2055,2001,2019,2033
2044,2044,2019,2044,2053,2009,2025,2042
2042,2039,2009,2046,2046,2025,2024,2042
2044,2037,2011,2041,2036,2038,2032,2049
2040,2045,2022,2039,2032,2055,2048,2052
2041,2043,2028,2028,2019,2063,2028,2060
2032,2033,2021,2010,2012,2052,2007,2062
2029,2027,2028,2001,2012,2057,2021,2062
2020,2031,2037,2010,2036,2046,2042,2058
2026,2034,2039,2014,2056,2054,2050,2070
2043,2055,2052,2030,2080,2058,2054,2070
2056,2072,2064,2038,2093,2084,2071,2069
2058,2068,2052,2044,2087,2087,2070,2051
2053,2061,2046,2048,2086,2088,2066,2044
2052,2059,2040,2046,2065,2080,2062,2032
2058,2055,2037,2046,2061,2057,2038,2030
2053,2059,2046,2053,2064,2026,2032,2037
2050,2052,2050,2054,2059,2023,2040,2030
2051,2042,2045,2039,2041,2023,2038,2024
2049,2042,2041,2030,2044,2036,2041,2008
2046,2041,2036,2026,2055,2056,2035,1999
2038,2039,2035,2024,2063,2073,2049,2003
2042,2045,2036,2039,2073,2074,2059,2001
2035,2040,2041,2038,2064,2062,2055,2000
2044,2034,2044,2033,2052,2061,2060,2006
2049,2044,2052,2040,2052,2064,2071,2009
2059,2046,2052,2039,2043,2061,2049,2009
2049,2042,2050,2038,2044,2055,2052,2014
2054,2046,2067,2049,2054,2063,2066,2021
2060,2060,2093,2070,2056,2070,2057,2027
2059,2067,2109,2083,2060,2069,2039,2027
2049,2070,2100,2072,2058,2074,2050,2032
2052,2064,2083,2068,2055,2075,2066,2034
2054,2058,2080,2069,2070,2081,2073,2041
2051,2052,2067,2058,2083,2098,2061,2042
2044,2043,2050,2057,2080,2123,2069,2038
2026,2037,2029,2046,2068,2129,2064,2042
2023,2031,2011,2038,2055,2122,2051,2038
2028,2029,1999,2038,2045,2118,2052,2051
2029,2030,1994,2043,2062,2062,2049,2071
2037,2026,1999,2045,2085,2018,2056,2079
2040,2024,1993,2048,2086,2006,2053,2077
2041,2030,2012,2048,2076,1990,2044,2062
2036,2025,2020,2045,2063,1999,2039,2049
2024,2024,2029,2051,2069,2007,2029,2045
2029,2024,2032,2050,2072,2013,2034,2043
2033,2030,2029,2049,2066,2028,2027,2040
2030,2032,2019,2036,2058,2017,2023,2036
2041,2030,2009,2039,2049,2020,2017,2032
2042,2030,2015,2042,2045,2024,2023,2022
2041,2029,2018,2040,2029,2019,2034,2027
2042,2036,2020,2040,2018,2023,2034,2015
2039,2042,2028,2037,2020,2033,2051,2012
2044,2053,2033,2037,2051,2049,2037,2015
2049,2060,2041,2021,2050,2053,2047,2004
2051,2060,2038,2014,2060,2052,2051,2000
2046,2051,2039,2005,2071,2050,2040,2005
2045,2044,2045,2011,2082,2064,2067,2013
2047,2045,2045,2004,2067,2089,2073,2025
2066,2058,2053,2006,2030,2108,2061,2019
2060,2058,2044,1996,1996,2096,2058,2023
2061,2057,2055,1999,1964,2065,2053,2024
2060,2063,2050,1992,1910,2016,2031,2015
2059,2065,2064,1993,1892,1960,2041,2017
2048,2071,2089,2016,1905,1970,2053,2030
2056,2076,2100,2034,1988,2022,2068,2031
2047,2073,2092,2052,2032,2082,2078,2046
2052,2074,2098,2085,2064,2118,2088,2064
2056,2069,2090,2086,2089,2118,2086,2071
2053,2070,2084,2077,2114,2094,2082,2072
2050,2063,2077,2069,2121,2059,2066,2078
2041,2057,2074,2038,2085,2013,2040,2067
2042,2055,2066,2018,2071,2015,2052,2063
2034,2043,2070,2025,2109,2041,2033,2070
2035,2043,2071,2023,2060,2033,2038,2070
2037,2046,2066,2017,1994,2022,2041,2069
2038,2049,2062,2022,2009,2026,2050,2068
2043,2047,2053,2034,2058,2032,2050,2069
2041,2044,2058,2035,2075,2043,2049,2067
2042,2050,2061,2040,2064,2041,2051,2065
2046,2060,2072,2045,2047,2042,2048,2058
2049,2059,2066,2042,2023,2038,2031,2049
2050,2060,2064,2044,2041,2055,2025,2038
2048,2060,2062,2038,2056,2051,2036,2037
2050,2055,2060,2037,2049,2049,2044,2030
2047,2060,2064,2049,2040,2053,2043,2017
2038,2058,2069,2045,2030,2050,2037,2012
2050,2064,2064,2037,2000,2041,2040,2014
2052,2060,2058,2030,1981,2026,2039,2015
2045,2056,2051,2033,1994,2042,2044,2009
2047,2052,2041,2033,2039,2058,2035,2001
2050,2043,2040,2037,2054,2069,2053,2013
2047,2045,2034,2041,2088,2082,2070,2016
2043,2050,2035,2056,2143,2100,2079,2011
2041,2047,2038,2058,2167,2130,2078,2005
2040,2046,2046,2082,2173,2142,2092,2003
2040,2045,2045,2085,2165,2120,2071,2013
2039,2037,2035,2080,2129,2059,2043,2017
2042,2031,2027,2071,2076,1980,2014,2022
2037,2034,2031,2080,2121,1970,2040,2028
2043,2044,2047,2076,2086,1999,2062,2041
2034,2040,2033,2039,1966,2026,2064,2042
2035,2039,2028,2018,2018,2046,2060,2052
2028,2034,2032,2023,2047,2046,2034,2054
2027,2030,2022,2022,2037,2038,2052,2052
2016,2022,2018,2027,2018,2035,2036,2052
2023,2023,2017,2031,2027,2038,2050,2059
2026,2031,2022,2038,2032,2039,2040,2059
2033,2042,2026,2043,2032,2038,2047,2061
2032,2047,2027,2047,2052,2043,2058,2058
2034,2047,2039,2054,2085,2046,2043,2054
2032,2047,2058,2052,2098,2039,2058,2049
2035,2055,2066,2045,2103,2043,2067,2053
2042,2051,2054,2032,2103,2039,2055,2048
2036,2045,2047,2027,2099,2039,2062,2038
2032,2045,2050,2027,2090,2041,2058,2038
2044,2053,2063,2032,2095,2050,2054,2031
2046,2066,2071,2032,2039,2050,2038,2025
2048,2066,2057,2011,1940,2046,2057,2028
2047,2055,2041,2027,2004,2057,2060,2032
2056,2060,2032,2034,2068,2068,2050,2027
2052,2055,2033,2043,2087,2076,2058,2023
2053,2054,2024,2045,2100,2072,2066,2018
2049,2059,2028,2041,2084,2069,2057,2017
2042,2055,2028,2039,2067,2066,2054,2010
2046,2047,2030,2040,2042,2069,2054,2018
2058,2054,2049,2039,1969,2060,2058,2011
2046,2045,2047,2020,1906,2028,2042,2009
2042,2035,2047,2031,1942,2015,2040,2012
2040,2041,2052,2040,1972,2013,2057,2020
2048,2057,2068,2051,2005,2020,2052,2031
2043,2059,2066,2058,2044,2027,2053,2036
2039,2051,2060,2059,2065,2030,2061,2040
2046,2051,2072,2060,2075,2040,2080,2050
2053,2065,2087,2069,2063,2047,2074,2055
2056,2058,2071,2066,2051,2046,2065,2054
2047,2044,2062,2051,2032,2048,2071,2061
2045,2040,2055,2043,2042,2050,2073,2074
2047,2053,2068,2052,2046,2058,2066,2084
2052,2061,2080,2059,2032,2063,2056,2080
2050,2056,2075,2059,2011,2063,2048,2071
2039,2046,2059,2044,2016,2068,2038,2070
2039,2052,2061,2057,2061,2085,2046,2072
2056,2063,2064,2060,2091,2107,2067,2083
2072,2066,2061,2056,2108,2113,2059,2080
2057,2056,2050,2037,2053,2089,2047,2054
2048,2046,2041,2014,1970,2076,2030,2041
2044,2044,2041,2025,1975,2086,2052,2039
2044,2046,2047,2037,2001,2104,2046,2040
2032,2043,2049,2030,2002,2116,2070,2032
2035,2044,2043,2047,2049,2127,2068,2036
2057,2053,2049,2058,2038,2084,2064,2040
2062,2044,2036,2026,1951,2026,2027,2037
2059,2029,2022,2002,1908,1980,2022,2038
2061,2042,2030,2019,1940,1919,2041,2040
2072,2064,2049,2062,2031,1937,2057,2037
2065,2067,2060,2098,2125,1995,2074,2019
2047,2060,2044,2080,2113,2007,2059,2008
2034,2043,2028,2068,2114,2036,2075,2005
2033,2036,2018,2067,2166,2072,2078,1999
2034,2035,2022,2055,2167,2081,2056,1994
2030,2036,2026,2056,2143,2102,2078,2001
2036,2050,2036,2052,2117,2113,2043,2000
2038,2060,2043,2036,2015,2100,2065,2012
2044,2056,2028,2023,1974,2095,2088,2034
2048,2051,2034,2023,1979,2120,2086,2034
2044,2049,2034,2024,2008,2156,2083,2040
2045,2047,2040,2035,2034,2138,2065,2050
2042,2053,2053,2031,2027,2044,2058,2057
2041,2051,2055,2032,2013,2004,2072,2069
2048,2055,2057,2042,2026,2024,2066,2072
2048,2056,2056,2040,2033,1989,2070,2065
2043,2052,2058,2037,2042,1970,2062,2075
2039,2043,2057,2039,2056,1996,2052,2072
2026,2037,2045,2045,2062,2022,2060,2079
2031,2036,2041,2048,2061,2036,2057,2089
2040,2046,2045,2053,2061,2035,2069,2081
2041,2043,2039,2053,2045,2004,2066,2072
2039,2039,2032,2041,2043,1982,2035,2059
2043,2049,2040,2042,2064,2006,2043,2047
2042,2052,2045,2052,2081,2016,2024,2037
2043,2055,2054,2060,2079,2014,2032,2046
2051,2068,2075,2067,2059,2010,2047,2043
2051,2064,2077,2054,2025,2014,2059,2037
2053,2055,2071,2052,1990,2017,2047,2024
2054,2064,2078,2049,2011,2024,2031,2024
2042,2063,2074,2045,1997,2034,2057,2022
2040,2067,2077,2055,1992,2051,2057,2019
2044,2065,2077,2055,1963,2067,2050,2014
2040,2050,2074,2043,1947,2072,2060,2011
2037,2047,2066,2032,1959,2085,2065,1997
2021,2037,2052,2034,1969,2084,2067,1987
2024,2039,2057,2032,2012,2053,2073,2007
2040,2058,2069,2070,2096,2044,2080,2012
2046,2058,2078,2085,2093,2031,2085,2014
2049,2054,2077,2092,2068,2051,2096,2022
2047,2053,2069,2082,2065,2063,2085,2026
2045,2044,2059,2084,2083,2060,2076,2028
2043,2037,2049,2068,2107,2048,2063,2021
2044,2038,2040,2071,2119,2041,2064,2018
2036,2044,2045,2085,2162,2054,2067,2036
2047,2046,2036,2076,2156,2062,2067,2051
2053,2045,2028,2065,2121,2056,2056,2055
2049,2035,2019,2050,2090,2033,2025,2065
2047,2040,2020,2051,2089,2024,2032,2065
2049,2048,2031,2043,2071,2028,2036,2069
2056,2050,2025,2032,2042,2033,2034,2077
2040,2032,2011,2008,2005,2024,2036,2068
2023,2027,2011,2007,2020,2026,2048,2071
2030,2033,2010,2012,2036,2042,2066,2074
2032,2028,2012,2019,2039,2039,2060,2077
2041,2031,2017,2017,2028,2039,2067,2070
2051,2037,2025,2017,2041,2039,2060,2072
2050,2042,2027,2026,2053,2042,2041,2060
2044,2037,2028,2037,2078,2046,2048,2039
2044,2033,2042,2055,2090,2052,2057,2028
2038,2029,2045,2064,2045,2052,2052,2027
2048,2031,2046,2061,2002,2049,2058,2033
2052,2026,2040,2065,2015,2052,2056,2022
2045,2035,2040,2078,2044,2055,2062,2015
2047,2036,2034,2070,2067,2053,2070,2020
2053,2033,2037,2078,2072,2063,2062,2014
2054,2045,2041,2074,2062,2039,2041,2011
2053,2050,2032,2061,2052,2024,2036,2006
2033,2030,2017,2047,2041,2020,2043,2005
2025,2022,2013,2044,2040,2033,2054,1997
2040,2041,2030,2044,2024,2040,2060,1982
2043,2056,2050,2033,1974,2016,2060,2004
2050,2065,2052,2025,1979,1995,2058,2021
2050,2066,2060,2020,2010,1997,2061,2020
2045,2059,2054,2010,2021,2002,2060,2017
2044,2051,2047,2006,2052,2025,2063,2016
2044,2043,2043,2007,2081,2036,2079,2021
2041,2045,2040,2019,2071,2030,2083,2041
2046,2054,2039,2017,2056,2024,2073,2054
2052,2059,2047,2022,2042,2014,2070,2053
2054,2061,2055,2030,2039,2005,2049,2060
2055,2062,2058,2028,2032,2008,2033,2064
