CH1,CH2,CH3,CH4,CH5,CH6,CH7,CH8
2042,2039,2040,2033,2050,2062,2043,2017
2031,2033,2035,2032,2041,2071,2011,2017
2034,2041,2040,2041,2046,2054,2027,2021
2037,2045,2046,2037,2036,2056,2021,2025
2045,2059,2054,2047,2049,2056,2042,2033
2044,2068,2065,2054,2052,2059,2049,2037
2051,2074,2068,2061,2054,2058,2051,2040
2050,2066,2063,2055,2056,2054,2047,2041
2048,2063,2060,2053,2056,2054,2019,2052
2048,2057,2058,2057,2066,2061,2031,2064
2049,2057,2061,2057,2067,2064,2046,2058
2050,2050,2068,2067,2065,2064,2055,2066
2049,2056,2069,2066,2065,2064,2055,2080
2046,2056,2067,2058,2060,2059,2057,2085
2045,2054,2058,2057,2057,2053,2044,2080
2040,2053,2054,2053,2062,2047,2041,2086
2048,2049,2047,2046,2047,2034,2029,2087
2042,2041,2045,2042,2042,2031,2042,2080
2037,2045,2048,2047,2051,2039,2050,2086
2045,2052,2049,2053,2048,2042,2037,2084
2041,2049,2045,2046,2045,2045,2044,2078
2040,2050,2041,2048,2047,2047,2040,2072
2044,2050,2048,2051,2051,2045,2047,2074
2047,2045,2044,2047,2051,2047,2046,2059
2050,2053,2048,2047,2050,2056,2038,2059
2049,2050,2046,2052,2049,2055,2038,2048
2050,2056,2052,2051,2049,2061,2034,2048
2051,2052,2054,2052,2052,2072,2044,2039
2051,2057,2056,2054,2052,2071,2051,2033
2048,2057,2050,2053,2051,2066,2060,2029
2046,2052,2044,2047,2047,2061,2019,2024
2045,2045,2040,2043,2054,2052,2052,2021
2045,2051,2042,2047,2046,2044,2045,2016
2042,2034,2029,2038,2041,2031,2033,2021
2043,2034,2025,2039,2046,2030,2054,2028
2048,2040,2031,2041,2044,2026,2034,2031
2043,2033,2017,2035,2041,2033,2026,2027
2038,2032,2016,2032,2037,2044,2047,2023
2039,2036,2023,2037,2041,2050,2046,2031
2039,2036,2021,2037,2042,2054,2041,2036
2044,2038,2024,2044,2051,2058,2054,2043
2040,2044,2026,2056,2052,2059,2046,2053
2042,2038,2021,2059,2051,2062,2045,2057
2044,2039,2020,2056,2058,2054,2026,2067
2041,2035,2020,2056,2056,2054,2054,2076
2036,2033,2015,2056,2053,2053,2044,2085
2040,2040,2017,2054,2058,2052,2052,2086
2042,2037,2020,2050,2062,2055,2051,2092
2048,2037,2013,2045,2051,2054,2041,2084
2031,2021,2004,2042,2046,2046,2026,2070
2024,2017,2011,2038,2039,2052,2045,2070
2032,2034,2024,2046,2047,2053,2051,2074
2028,2032,2031,2042,2044,2051,2056,2070
2027,2044,2040,2050,2044,2052,2047,2070
2025,2046,2054,2052,2047,2050,2043,2065
2032,2048,2054,2053,2039,2050,2042,2066
2040,2048,2055,2052,2044,2049,2046,2061
2048,2053,2059,2056,2043,2049,2053,2057
2042,2050,2071,2054,2044,2046,2039,2051
2044,2052,2069,2051,2038,2047,2049,2048
2047,2053,2062,2045,2038,2044,2030,2039
2043,2047,2050,2047,2032,2035,2029,2039
2046,2045,2050,2048,2042,2045,2041,2041
2051,2063,2066,2051,2054,2047,2049,2046
2057,2067,2076,2056,2058,2051,2046,2033
2050,2054,2068,2047,2049,2041,2028,2039
2046,2051,2056,2034,2046,2043,2032,2037
2059,2059,2051,2050,2053,2054,2041,2034
2062,2058,2053,2050,2061,2054,2058,2047
2055,2057,2051,2048,2058,2051,2033,2054
2054,2049,2048,2032,2050,2048,2038,2047
2055,2046,2040,2030,2043,2048,2067,2051
2056,2052,2055,2036,2046,2048,2055,2054
2050,2058,2063,2039,2045,2043,2054,2055
2046,2058,2067,2033,2047,2044,2070,2070
2053,2055,2068,2038,2052,2046,2039,2073
2052,2058,2075,2050,2053,2048,2047,2072
2057,2056,2076,2051,2062,2053,2067,2084
2055,2058,2074,2048,2058,2053,2056,2094
2055,2052,2069,2051,2059,2047,2065,2095
2051,2051,2070,2052,2060,2050,2055,2096
2045,2040,2058,2050,2041,2042,2034,2082
2042,2038,2062,2052,2036,2035,2041,2089
2047,2053,2072,2060,2045,2044,2041,2080
2049,2050,2072,2059,2047,2044,2048,2077
2046,2052,2063,2059,2048,2049,2054,2076
2046,2047,2063,2057,2048,2049,2045,2067
2053,2046,2055,2056,2051,2046,2044,2060
2052,2050,2054,2062,2043,2049,2038,2057
2045,2042,2048,2063,2046,2044,2046,2050
2047,2041,2045,2060,2045,2049,2047,2045
2044,2040,2048,2069,2052,2072,2055,2039
2046,2041,2044,2072,2058,2081,2059,2041
2051,2045,2037,2063,2047,2080,2038,2037
2050,2043,2020,2054,2047,2073,2053,2035
2049,2036,2008,2046,2040,2065,2021,2033
2044,2032,2001,2038,2039,2066,2051,2029
2044,2038,2007,2036,2044,2068,2044,2018
2028,2025,1995,2027,2047,2055,2052,2020
2036,2015,1983,2030,2045,2052,2061,2035
2044,2034,1990,2040,2043,2037,2036,2034
2049,2033,1988,2039,2048,2023,2058,2035
2048,2038,1990,2035,2045,2011,2070,2037
2049,2034,1995,2033,2047,1999,2059,2040
2046,2040,2012,2035,2050,2000,2065,2042
2048,2047,2028,2039,2051,2017,2060,2052
2054,2051,2033,2047,2041,2031,2061,2054
2061,2053,2044,2044,2049,2046,2060,2062
2059,2052,2049,2041,2040,2048,2044,2075
2059,2041,2053,2039,2045,2046,2037,2071
2055,2037,2045,2044,2041,2051,2045,2086
2049,2040,2047,2042,2038,2055,2048,2088
2049,2043,2052,2045,2040,2057,2053,2084
2055,2053,2062,2052,2045,2057,2036,2084
2045,2046,2064,2046,2040,2048,2038,2076
2033,2046,2063,2026,2032,2044,2030,2076
2030,2046,2065,2029,2042,2058,2040,2085
2044,2053,2069,2039,2045,2062,2050,2079
2048,2057,2072,2054,2041,2065,2034,2076
2056,2061,2076,2058,2046,2056,2037,2076
2056,2062,2070,2062,2041,2053,2037,2070
2057,2060,2065,2058,2036,2048,2044,2060
2061,2059,2052,2049,2036,2050,2045,2053
2059,2051,2042,2047,2039,2056,2038,2046
2057,2043,2037,2044,2043,2048,2054,2038
2053,2034,2031,2040,2037,2045,2059,2026
2039,2029,2030,2042,2038,2042,2035,2031
2039,2034,2034,2044,2045,2066,2049,2034
2049,2044,2042,2049,2050,2091,2043,2030
2051,2048,2035,2048,2055,2103,2052,2025
2050,2040,2024,2041,2045,2093,2048,2023
2037,2034,2017,2032,2035,2088,2044,2018
2038,2028,2014,2029,2035,2087,2041,2036
2048,2043,2027,2036,2043,2080,2077,2033
2053,2052,2037,2045,2045,2072,2060,2028
2053,2052,2038,2049,2049,2061,2056,2043
2051,2058,2045,2056,2050,2048,2038,2047
2062,2061,2047,2055,2048,2024,2049,2047
2058,2060,2054,2063,2049,2002,2061,2060
2065,2062,2064,2072,2059,1988,2057,2064
2065,2063,2075,2082,2057,1984,2047,2067
2062,2064,2077,2081,2058,1972,2043,2067
2056,2057,2076,2074,2058,1986,2045,2075
2047,2053,2074,2070,2055,2008,2034,2069
2049,2053,2074,2073,2047,2028,2049,2076
2047,2044,2067,2067,2043,2032,2027,2078
2047,2049,2055,2053,2033,2031,2022,2073
2041,2032,2042,2031,2012,2015,2019,2067
2033,2031,2024,2022,2016,2015,2016,2065
2044,2039,2041,2028,2021,2029,2037,2074
2047,2053,2057,2045,2043,2048,2045,2076
2052,2060,2068,2054,2050,2059,2036,2080
2054,2054,2068,2061,2050,2078,2030,2075
2051,2055,2055,2058,2044,2089,2028,2065
2060,2054,2049,2055,2039,2089,2038,2058
2057,2053,2048,2052,2051,2090,2036,2054
2052,2050,2046,2057,2053,2049,2030,2037
2051,2051,2051,2061,2055,2027,2043,2034
2047,2060,2053,2067,2055,2036,2037,2030
2051,2048,2053,2072,2067,2056,2038,2037
2049,2047,2053,2071,2068,2069,2030,2034
2048,2047,2044,2066,2061,2072,2024,2029
2051,2046,2045,2061,2056,2070,2029,2029
2053,2052,2048,2047,2041,2056,2035,2025
2046,2041,2038,2034,2034,2044,2028,2018
2044,2042,2042,2032,2038,2043,2032,2028
2053,2050,2041,2035,2044,2051,2032,2031
2052,2056,2037,2029,2045,2052,2044,2033
2053,2045,2033,2022,2051,2058,2050,2041
2055,2044,2034,2021,2049,2067,2056,2046
2068,2047,2031,2026,2053,2072,2054,2053
2066,2047,2032,2022,2049,2079,2054,2045
2061,2045,2032,2023,2036,2090,2045,2056
2057,2037,2033,2015,2036,2090,2061,2057
2045,2036,2034,2026,2039,2096,2052,2062
2060,2041,2044,2040,2064,2110,2066,2072
2074,2057,2054,2043,2062,2113,2080,2084
2074,2064,2050,2046,2059,2104,2044,2090
2078,2064,2055,2043,2059,2100,2057,2083
2068,2066,2055,2051,2055,2095,2060,2084
2054,2054,2052,2041,2054,2074,2055,2082
2057,2050,2038,2036,2045,2036,2065,2080
2058,2056,2042,2038,2039,2008,2065,2082
2064,2063,2043,2039,2039,1996,2056,2074
2067,2061,2044,2037,2029,1996,2043,2067
2066,2060,2040,2036,2023,1992,2034,2067
2062,2063,2042,2036,2035,2019,2061,2059
2065,2051,2039,2037,2035,2036,2049,2045
2062,2054,2039,2036,2035,2045,2022,2043
2061,2053,2051,2039,2036,2028,2047,2035
2055,2061,2059,2036,2026,2014,2039,2033
2057,2052,2044,2035,2022,2020,2039,2020
2053,2045,2050,2033,2027,2026,2014,2021
2055,2046,2047,2034,2024,2030,2042,2019
2054,2044,2042,2035,2014,2020,2037,2018
2060,2046,2042,2033,2007,2015,2034,2024
2055,2043,2032,2026,2002,2003,2030,2014
2049,2032,2019,2022,2020,2000,2036,2011
2050,2028,2019,2033,2050,2018,2044,2024
2055,2034,2025,2041,2062,2036,2046,2028
2057,2022,2013,2034,2061,2047,2041,2025
2054,2015,2009,2029,2048,2044,2046,2021
2048,2017,2002,2026,2033,2044,2050,2031
2042,2023,2005,2025,2040,2049,2061,2034
2046,2031,2030,2038,2043,2058,2083,2044
2054,2051,2034,2050,2049,2063,2086,2051
2058,2053,2035,2051,2055,2057,2082,2054
2055,2046,2034,2049,2048,2050,2085,2055
2061,2045,2038,2040,2042,2041,2045,2056
2060,2044,2041,2033,2037,2028,2034,2067
2057,2045,2042,2029,2028,2027,2056,2075
2054,2031,2048,2024,2023,2028,2049,2076
2047,2029,2052,2014,2023,2022,2068,2069
2041,2021,2047,2018,2006,2039,2054,2067
2034,2020,2050,2023,2019,2045,2051,2070
2041,2037,2054,2033,2026,2039,2023,2058
2045,2044,2058,2031,2032,2049,2023,2062
2045,2052,2064,2041,2032,2059,2032,2059
2039,2053,2070,2049,2035,2065,2058,2063
2043,2057,2069,2050,2035,2066,2045,2060
2051,2056,2068,2053,2036,2056,2044,2051
2050,2052,2081,2071,2036,2035,2065,2052
2061,2060,2084,2084,2040,2027,2060,2048
2057,2061,2083,2092,2049,2038,2070,2043
2060,2062,2076,2086,2052,2039,2074,2030
2057,2060,2063,2084,2047,2038,2059,2028
2047,2053,2057,2072,2038,2034,2060,2020
2053,2053,2044,2070,2027,2035,2057,2020
2048,2045,2034,2064,2027,2040,2032,2022
2050,2045,2024,2052,2033,2030,2042,2014
2046,2039,2021,2045,2030,2034,2049,2015
2044,2041,2027,2046,2043,2045,2064,2014
2050,2050,2042,2042,2046,2050,2071,2011
2044,2050,2050,2036,2043,2045,2054,2021
2043,2046,2049,2020,2041,2048,2065,2028
2044,2051,2046,2011,2036,2049,2059,2026
2051,2052,2052,2010,2040,2045,2071,2035
2056,2052,2055,2015,2045,2050,2068,2037
2055,2054,2056,2023,2046,2056,2074,2045
2058,2057,2072,2032,2049,2058,2069,2053
2056,2059,2070,2034,2049,2058,2070,2059
2060,2055,2069,2037,2053,2060,2077,2067
2060,2055,2060,2034,2056,2056,2066,2072
2056,2041,2048,2021,2044,2055,2064,2071
2055,2033,2044,2015,2043,2055,2064,2072
2051,2044,2048,2020,2040,2051,2059,2072
2046,2031,2049,2018,2033,2042,2052,2075
2051,2029,2048,2029,2038,2047,2058,2085
2057,2046,2061,2035,2042,2041,2059,2080
2051,2050,2064,2034,2034,2044,2057,2072
2050,2061,2058,2031,2033,2040,2054,2067
2055,2054,2066,2034,2033,2041,2050,2060
2058,2056,2062,2032,2037,2034,2042,2057
2058,2057,2061,2033,2032,2039,2045,2054
2061,2057,2055,2033,2036,2044,2035,2046
2053,2055,2056,2033,2032,2038,2033,2042
2055,2059,2052,2037,2039,2044,2042,2041
2055,2055,2051,2037,2038,2039,2040,2033
2060,2056,2049,2034,2044,2038,2042,2029
2060,2054,2049,2037,2043,2044,2039,2029
2058,2047,2055,2042,2039,2042,2042,2027
2057,2047,2054,2043,2040,2035,2052,2016
2054,2046,2048,2047,2039,2028,2049,2018
2051,2036,2040,2043,2036,2033,2046,2014
2055,2045,2052,2054,2038,2038,2060,2024
2056,2048,2054,2060,2043,2043,2054,2026
2054,2042,2045,2058,2045,2046,2063,2023
2055,2037,2036,2053,2044,2046,2065,2021
2060,2046,2037,2052,2053,2047,2064,2028
2056,2046,2037,2054,2053,2055,2063,2033
2060,2052,2040,2055,2067,2056,2058,2040
2059,2047,2043,2056,2063,2059,2064,2048
2060,2052,2034,2046,2059,2057,2076,2050
2055,2046,2040,2042,2058,2054,2070,2058
2052,2045,2050,2035,2058,2057,2063,2058
2055,2047,2047,2031,2058,2061,2067,2063
2047,2049,2044,2028,2055,2058,2059,2066
2057,2038,2035,2014,2047,2062,2049,2073
2050,2040,2042,2017,2045,2062,2032,2071
2044,2037,2041,2018,2038,2059,2044,2071
2031,2041,2048,2028,2039,2053,2048,2084
2042,2053,2049,2037,2040,2052,2061,2076
2051,2057,2047,2033,2036,2053,2057,2074
2054,2058,2052,2027,2034,2051,2053,2069
2055,2052,2049,2030,2033,2062,2064,2062
2058,2050,2048,2031,2035,2064,2056,2056
2060,2055,2046,2037,2038,2071,2074,2050
2056,2051,2050,2040,2044,2067,2062,2042
2054,2044,2048,2037,2040,2062,2053,2025
2047,2050,2044,2034,2037,2060,2053,2025
2048,2047,2046,2027,2036,2060,2062,2026
2052,2046,2043,2027,2029,2056,2070,2029
2050,2045,2042,2024,2020,2054,2047,2020
2053,2049,2044,2028,2031,2064,2052,2026
2055,2051,2047,2032,2036,2066,2059,2018
2049,2043,2039,2034,2032,2061,2049,2011
2046,2044,2045,2041,2044,2071,2064,2019
2057,2054,2059,2058,2060,2077,2068,2019
2062,2056,2048,2059,2057,2065,2067,2027
2055,2051,2042,2059,2059,2058,2062,2028
2059,2043,2036,2058,2060,2053,2040,2037
2052,2053,2048,2066,2062,2052,2062,2036
2060,2059,2052,2080,2059,2057,2060,2041
2053,2064,2052,2083,2059,2045,2037,2037
2041,2048,2044,2083,2052,2049,2053,2039
2047,2032,2042,2072,2064,2050,2060,2045
2040,2033,2034,2060,2069,2050,2064,2048
2042,2032,2037,2048,2073,2056,2055,2066
2053,2051,2056,2050,2072,2053,2073,2070
2057,2057,2071,2048,2066,2051,2053,2078
2051,2052,2071,2040,2054,2043,2048,2074
2043,2042,2062,2016,2032,2027,2037,2075
2046,2041,2084,2021,2015,2020,2039,2089
2053,2060,2092,2034,2010,2022,2046,2083
2057,2050,2076,2038,2006,2023,2043,2075
2054,2038,2056,2032,2005,2027,2039,2065
2049,2035,2040,2017,2017,2042,2040,2049
2042,2030,2038,2019,2051,2053,2046,2049
2051,2043,2053,2037,2065,2058,2059,2057
2057,2051,2059,2039,2061,2044,2053,2051
2059,2056,2067,2051,2059,2050,2065,2040
2061,2065,2074,2062,2071,2051,2051,2032
2060,2064,2070,2067,2073,2053,2041,2028
2056,2052,2067,2069,2071,2067,2052,2028
2051,2053,2065,2068,2074,2078,2047,2023
2051,2053,2068,2066,2076,2090,2025,2017
2044,2051,2062,2067,2073,2083,2043,2003
2033,2040,2053,2053,2074,2069,2031,1998
2031,2041,2056,2057,2079,2064,2017,1997
2037,2047,2063,2066,2084,2087,2051,2014
2037,2050,2051,2064,2084,2086,2060,2020
2039,2050,2039,2051,2071,2062,2043,2023
2040,2048,2027,2051,2068,2047,2055,2030
2037,2048,2027,2044,2056,2032,2067,2036
2041,2049,2032,2046,2069,2025,2055,2049
2054,2056,2033,2047,2078,2036,2065,2051
2045,2048,2023,2044,2075,2059,2060,2053
2033,2045,2022,2033,2074,2062,2053,2063
2041,2038,2025,2030,2061,2061,2070,2075
2047,2048,2036,2028,2067,2059,2076,2073
2051,2047,2058,2030,2060,2037,2069,2073
2044,2052,2060,2037,2057,2017,2060,2073
2046,2047,2059,2052,2061,2014,2059,2085
2040,2045,2049,2051,2051,2018,2050,2080
2034,2030,2036,2051,2040,2028,2040,2076
2037,2036,2049,2043,2030,2042,2022,2074
2043,2034,2057,2025,2014,2046,2049,2070
2038,2037,2066,2007,2009,2041,2046,2066
2038,2037,2072,2006,2013,2044,2026,2063
2035,2035,2074,2024,2026,2050,2048,2057
2049,2047,2086,2043,2026,2047,2041,2058
2044,2048,2087,2042,2026,2048,2041,2044
2047,2055,2077,2051,2035,2048,2039,2048
2049,2053,2071,2054,2036,2041,2034,2039
2046,2057,2071,2053,2042,2042,2043,2038
2041,2058,2065,2065,2037,2039,2030,2029
2050,2060,2066,2062,2043,2040,2037,2030
2058,2063,2063,2057,2037,2044,2033,2025
2059,2065,2058,2046,2049,2039,2030,2026
2055,2061,2051,2034,2042,2034,2020,2022
2045,2050,2046,2020,2039,2029,2019,2016
2041,2048,2044,2024,2049,2048,2018,2020
2054,2055,2030,2018,2052,2051,2030,2020
2050,2038,2020,2014,2049,2048,2020,2020
2039,2038,2021,2011,2039,2045,2012,2017
2036,2038,2026,2015,2046,2050,2023,2025
2040,2044,2035,2017,2051,2064,2050,2031
2045,2044,2024,2015,2054,2069,2063,2035
2048,2045,2016,2011,2056,2075,2057,2046
2045,2050,2014,2014,2060,2074,2065,2054
2046,2039,2014,2019,2060,2067,2067,2056
2043,2037,2017,2028,2056,2062,2072,2069
2046,2040,2018,2024,2050,2058,2065,2078
2044,2037,2021,2021,2052,2056,2051,2074
2049,2037,2012,2021,2065,2052,2057,2076
2036,2029,2008,2012,2056,2050,2036,2074
2032,2021,2006,2019,2065,2049,2048,2084
2032,2030,2018,2021,2057,2048,2040,2078
2050,2042,2044,2026,2043,2043,2032,2072
2051,2047,2053,2042,2028,2041,2042,2072
2054,2053,2061,2042,2023,2038,2046,2068
2046,2061,2062,2045,2024,2033,2038,2057
2043,2059,2055,2048,2021,2037,2042,2049
2045,2050,2061,2059,2031,2041,2047,2036
2043,2050,2056,2078,2038,2047,2049,2031
2039,2052,2052,2081,2045,2054,2042,2028
2042,2038,2045,2077,2036,2056,2048,2026
2049,2045,2044,2077,2017,2049,2056,2036
2044,2039,2039,2064,2006,2043,2056,2027
2044,2040,2034,2054,1996,2030,2040,2020
2038,2032,2036,2044,1993,2031,2040,2015
2030,2033,2032,2022,1967,2028,2020,2003
2025,2019,2009,2004,1965,2018,2023,1997
2018,2016,2013,2006,1983,2037,2019,2006
2031,2040,2050,2032,2030,2064,2037,2009
2036,2059,2074,2046,2075,2053,2045,2019
2042,2062,2079,2038,2094,2022,2041,2031
2053,2068,2072,2042,2094,2044,2037,2038
2052,2066,2058,2033,2074,2056,2029,2040
2054,2052,2036,2010,2027,2044,2033,2033
2047,2052,2030,1996,1984,2025,2045,2034
2056,2051,2028,2004,1980,2001,2030,2045
2066,2050,2028,2008,2000,2009,2052,2052
2053,2044,2022,2023,2031,2035,2055,2062
2053,2050,2039,2048,2077,2061,2062,2068
2051,2063,2059,2062,2110,2070,2067,2077
2045,2060,2057,2066,2123,2078,2062,2078
2052,2056,2047,2058,2103,2068,2038,2079
2041,2046,2031,2033,2064,2048,2032,2081
2046,2040,2029,2033,2049,2039,2046,2086
2053,2067,2050,2047,2045,2053,2064,2086
2059,2075,2062,2055,2053,2051,2052,2083
2061,2071,2069,2065,2073,2057,2053,2078
2059,2068,2084,2081,2089,2047,2054,2069
2061,2076,2099,2083,2076,2033,2036,2060
2056,2075,2101,2079,2041,2026,2040,2049
2051,2075,2091,2074,2033,2025,2034,2042
2048,2061,2070,2071,2021,2031,2052,2039
2047,2055,2054,2049,2020,2044,2035,2023
2039,2043,2036,2029,2037,2061,2023,2018
2037,2045,2034,2045,2066,2088,2042,2026
2052,2054,2036,2050,2062,2086,2053,2030
2049,2058,2037,2036,2053,2077,2042,2030
2060,2054,2025,2039,2044,2053,2018,2028
2052,2042,2017,2026,2027,2043,2016,2018
2042,2034,2013,2018,2004,2033,2044,2016
2043,2047,2022,2018,2000,2053,2042,2016
2047,2046,2031,2025,1986,2057,2030,2019
2046,2044,2040,2040,1989,2026,2029,2032
2053,2047,2044,2059,2004,2022,2040,2031
2045,2052,2047,2065,2017,2034,2040,2038
2052,2056,2060,2074,2031,2028,2051,2038
2054,2054,2054,2094,2072,2028,2053,2055
2052,2054,2065,2110,2152,2057,2069,2047
2049,2048,2074,2111,2194,2074,2071,2056
2045,2046,2074,2116,2196,2087,2060,2063
2055,2055,2098,2127,2175,2102,2067,2065
2060,2062,2112,2129,2161,2114,2070,2074
2059,2066,2106,2116,2126,2103,2038,2073
2056,2056,2098,2099,2078,2069,2044,2072
2050,2051,2087,2068,2012,2024,2025,2074
2046,2053,2078,2073,1974,1994,2022,2080
2059,2068,2100,2118,2042,1978,2034,2085
2061,2070,2082,2115,2065,1988,2052,2078
2057,2063,2072,2097,2018,1993,2010,2069
2047,2062,2070,2083,2053,2028,2036,2054
2046,2059,2076,2081,2086,2064,2042,2043
2034,2063,2089,2059,2049,2082,2052,2034
2033,2066,2093,2035,2012,2082,2060,2037
2042,2061,2080,2028,2008,2079,2041,2041
2044,2055,2060,1996,1974,2095,2040,2027
2030,2042,2033,1954,1870,2069,2030,2020
2023,2041,2009,1927,1800,2012,2020,2030
2039,2045,1999,1935,1811,2021,2025,2030
2047,2047,2013,1952,1817,2009,2028,2038
2050,2043,2011,1978,1878,1948,2037,2038
2046,2039,2020,2012,1999,1956,2056,2041
2056,2056,2054,2079,2117,2019,2085,2044
2068,2082,2093,2134,2151,2062,2071,2053
2066,2090,2101,2133,2095,2059,2060,2047
2064,2082,2083,2076,2029,2044,2052,2036
2054,2062,2059,2039,2033,2052,2050,2031
2048,2048,2040,2041,2112,2075,2069,2027
2045,2048,2037,2063,2175,2086,2055,2027
2034,2038,2034,2073,2167,2093,2042,2026
2041,2040,2036,2074,2173,2075,2036,2036
2037,2040,2032,2063,2165,2031,2044,2052
2054,2050,2034,2057,2159,2042,2059,2077
2062,2059,2037,2029,2132,2066,2059,2088
2061,2052,2025,1990,2098,2073,2060,2083
2052,2048,2011,1977,2007,2059,2058,2085
2050,2044,2009,1996,1951,2052,2061,2088
2052,2040,2012,2026,1992,2052,2063,2081
2045,2033,2014,2031,2009,2063,2040,2084
2046,2038,2015,2030,2043,2076,2057,2093
2050,2045,2017,2033,2022,2071,2060,2082
2045,2040,2018,2020,2012,2061,2042,2071
2041,2037,2014,2013,2032,2058,2044,2062
2046,2034,2024,2022,2086,2056,2055,2047
2035,2031,2028,2029,2120,2059,2031,2028
2035,2032,2043,2048,2158,2089,2044,2029
2043,2049,2077,2077,2150,2110,2064,2034
2046,2055,2085,2082,2139,2095,2059,2037
2049,2048,2069,2051,2083,2061,2023,2040
2043,2038,2053,2022,1937,2041,2055,2036
2040,2046,2050,2026,2008,2034,2058,2030
2035,2046,2045,2035,2160,2045,2041,2015
2029,2046,2040,2052,2166,2033,2025,2010
2031,2045,2031,2053,2111,2021,2030,2008
2024,2033,2030,2055,2073,2020,2035,2013
2027,2045,2042,2057,2035,2029,2044,2023
2042,2064,2060,2051,1970,2019,2033,2024
2048,2065,2060,2052,2015,2025,2047,2032
2055,2068,2047,2052,2037,2035,2050,2031
2046,2055,2031,2033,2015,2030,2046,2033
2041,2042,2026,2024,1988,2022,2040,2031
2040,2041,2024,2032,1975,2018,2057,2042
2034,2038,2025,2038,1990,2031,2078,2045
2038,2038,2032,2036,2003,2036,2082,2053
2042,2041,2036,2029,2008,2031,2081,2059
2032,2042,2052,2021,2012,2031,2079,2066
2032,2037,2060,2018,2027,2043,2056,2082
2045,2050,2078,2036,2089,2048,2076,2083
2056,2057,2087,2065,2160,2064,2078,2095
2055,2055,2086,2062,2159,2057,2061,2095
2050,2043,2064,2050,2129,2048,2055,2088
2042,2028,2035,2029,2086,2040,2055,2084
2046,2028,2024,2014,2044,2039,2059,2080
2054,2028,2023,2021,2025,2061,2066,2078
2048,2044,2036,2027,2087,2072,2061,2066
2050,2036,2028,2017,2084,2050,2048,2042
2024,2023,2016,2019,2055,2033,2040,2020
2017,2022,2026,2033,2083,2058,2047,2020
2018,2034,2047,2070,2124,2094,2062,2030
2030,2048,2055,2088,2137,2110,2051,2032
2036,2042,2054,2087,2160,2110,2042,2024
2030,2033,2038,2083,2174,2104,2016,2023
2028,2036,2037,2075,2148,2081,2026,2028
2045,2045,2048,2062,2038,2022,2043,2026
2056,2060,2061,2070,2045,2030,2016,2012
2048,2056,2056,2070,2091,2056,2022,2008
2039,2040,2045,2082,2117,2071,2039,2016
2048,2035,2045,2070,2067,2081,2068,2040
2078,2052,2044,2048,2010,2075,2066,2053
2082,2043,2033,2005,1914,2078,2066,2040
2076,2032,2017,1981,1844,2094,2069,2037
2056,2024,2010,1983,1928,2121,2040,2031
2058,2036,2024,1996,1993,2124,2053,2023
2051,2036,2031,1990,1992,2104,2049,2015
2028,2034,2033,1988,1981,2057,2056,2034
2017,2034,2040,2014,2043,2013,2049,2062
2024,2049,2040,2043,2123,1980,2052,2075
2021,2040,2029,2042,2140,1981,2044,2064
2027,2045,2034,2055,2133,1979,2033,2056
2027,2043,2031,2075,2143,1989,2034,2058
2019,2031,2024,2078,2118,2012,2035,2056
2019,2022,2024,2106,2169,2030,2021,2060
2018,2017,2032,2110,2180,2050,2037,2069
2033,2030,2044,2108,2138,2061,2035,2072
2041,2033,2035,2080,2034,2061,2025,2060
2028,2024,2022,2042,1937,2039,2033,2051
2027,2027,2029,2027,1999,2023,2048,2051
2034,2033,2043,2042,2110,2014,2038,2046
2037,2040,2049,2027,2061,1978,2036,2041
2038,2037,2045,2011,1975,1974,2037,2034
2035,2041,2048,2013,1929,1971,2023,2029
2038,2049,2045,2019,1921,1945,2020,2026
2037,2045,2037,2015,1930,1952,2004,2020
2035,2038,2027,2010,1962,1985,2007,2015
2037,2044,2040,2032,2012,2027,2019,2011
2041,2045,2041,2027,1912,2037,2021,2014
2047,2046,2044,2008,1873,2030,2024,2020
2046,2049,2048,2002,1866,1997,2028,2023
2049,2036,2043,2010,1889,1958,2021,2027
2050,2045,2050,2034,1965,1956,2049,2040
2056,2059,2064,2070,2044,2003,2083,2052
2060,2059,2061,2076,2136,2073,2098,2057
2062,2057,2059,2090,2171,2143,2114,2062
2065,2054,2064,2090,2146,2168,2086,2058
2054,2062,2072,2090,2085,2130,2056,2059
2050,2067,2063,2068,1995,2081,2062,2068
2058,2062,2065,2058,1956,2042,2068,2065
2062,2068,2063,2047,1948,2022,2061,2074
2064,2069,2060,2052,1964,2022,2041,2079
2064,2062,2053,2040,1980,2016,2014,2080
2049,2055,2046,2039,1995,2021,2023,2082
2048,2051,2050,2060,2075,2070,2043,2093
2059,2054,2059,2082,2164,2110,2062,2091
2055,2058,2065,2112,2215,2128,2048,2088
2048,2048,2051,2113,2211,2139,2048,2089
2036,2041,2045,2093,2175,2126,2048,2088
2043,2041,2039,2073,2106,2128,2056,2086
2045,2044,2042,2053,2069,2120,2055,2081
2051,2057,2054,2056,2084,2135,2060,2082
2051,2067,2056,2067,2106,2126,2050,2072
2054,2060,2048,2055,2067,2103,2056,2066
2049,2057,2046,2050,2130,2111,2047,2057
2046,2047,2039,2077,2265,2138,2053,2048
2044,2048,2036,2097,2345,2177,2061,2037
2046,2051,2049,2110,2355,2166,2051,2039
2049,2046,2045,2080,2212,2115,2039,2027
2042,2041,2035,2054,2100,2058,2031,2011
2028,2022,2014,2008,1951,1995,2003,1999
2021,2018,2010,2012,1937,2020,2000,1998
2024,2031,2019,2056,1978,2053,2032,1993
2021,2020,2018,2050,1884,2030,2032,1994
2016,2013,2013,2042,1898,1989,2035,1993
2029,2032,2029,2059,2000,1971,2040,2014
2039,2044,2038,2069,2051,1987,2043,2021
2048,2057,2048,2072,2086,2005,2039,2035
2053,2054,2050,2067,2095,2007,2057,2038
2055,2053,2050,2064,2106,1996,2049,2029
2045,2050,2050,2059,2097,2010,2056,2037
2040,2042,2038,2046,2057,2019,2045,2033
2034,2041,2034,2046,1990,2016,2045,2047
2037,2043,2038,2042,1990,2044,2059,2055
2039,2042,2039,2034,1995,2053,2058,2069
2043,2047,2035,2034,2046,2063,2054,2073
2044,2049,2037,2042,2081,2049,2050,2085
2046,2051,2036,2037,2046,2039,2037,2078
2046,2052,2047,2033,1980,2029,2044,2076
2037,2043,2040,2040,1994,2051,2055,2073
2042,2044,2035,2045,2042,2070,2042,2080
2043,2047,2040,2045,2070,2081,2044,2074
2039,2043,2027,2035,2115,2070,2043,2063
2039,2036,2027,2026,2028,2018,2056,2055
2038,2032,2029,2004,1809,2021,2047,2039
2031,2030,2022,1996,1827,2042,2039,2021
2028,2026,2021,2002,1934,2024,2041,2023
2029,2026,2018,1995,1944,2019,2041,2019
2038,2027,2024,1987,1930,1986,2030,2012
2033,2035,2033,2008,1993,1950,2038,2027
2047,2056,2065,2045,2087,1966,2064,2040
2063,2071,2079,2069,2138,2010,2077,2040
2067,2074,2081,2062,2091,2058,2066,2039
2060,2071,2079,2046,1979,2077,2065,2031
2054,2065,2070,2048,1947,2057,2045,2014
2037,2040,2047,2024,1917,2034,2032,2011
2037,2039,2040,2034,1976,2065,2038,2014
2045,2047,2039,2064,2097,2096,2055,2021
2051,2041,2041,2089,2210,2113,2073,2024
2049,2036,2040,2092,2228,2112,2058,2024
2048,2042,2041,2084,2203,2101,2067,2019
2042,2038,2048,2069,2147,2060,2050,2020
2037,2040,2053,2054,2053,2032,2022,2026
2045,2049,2065,2072,2047,2047,2048,2030
2050,2054,2070,2081,2062,2057,2056,2046
2057,2058,2068,2073,2088,2055,2062,2050
2058,2054,2070,2071,2083,2046,2063,2059
2061,2048,2053,2064,2096,2038,2047,2054
2053,2039,2056,2081,2132,2034,2051,2062
2043,2035,2068,2092,2126,2021,2043,2069
2033,2029,2067,2084,2090,2006,2037,2065
2025,2013,2040,2062,2071,1988,2018,2069
2017,2006,2024,2053,2070,2001,2014,2069
2028,2014,2036,2062,2092,2002,2012,2043
2025,2025,2046,2078,2100,2014,2008,2037
2036,2037,2052,2081,2041,2015,2032,2035
2035,2034,2044,2069,2028,2014,2022,2032
2036,2029,2033,2060,2058,2011,2025,2019
2034,2024,2021,2051,2063,2006,2042,2010
2029,2026,2021,2056,2084,2026,2036,2007
2032,2030,2036,2057,2117,2087,2070,2017
2044,2051,2044,2068,2119,2130,2084,2027
2058,2063,2050,2070,2103,2119,2075,2021
2057,2053,2037,2056,2089,2116,2064,2008
2054,2047,2028,2041,2057,2106,2053,2006
2050,2040,2022,2033,2022,2085,2058,2005
2051,2039,2022,2020,1991,2063,2039,2004
2049,2022,2008,2005,1917,2017,2039,1996
2045,2024,2027,2000,1896,1991,2015,1998
2047,2038,2039,2016,1940,2004,2020,2009
2044,2041,2039,2031,2052,2043,2043,2016
2050,2052,2038,2034,2121,2070,2043,2025
2048,2044,2032,2021,2109,2078,2056,2024
2056,2043,2040,2003,2049,2078,2036,2024
2057,2056,2062,2018,2064,2064,2057,2034
2059,2062,2069,2037,2115,2063,2056,2035
2048,2063,2064,2044,2140,2059,2055,2037
2039,2047,2054,2050,2100,2054,2043,2034
2040,2046,2050,2045,2068,2045,2045,2034
2035,2044,2038,2043,2060,2032,2036,2039
2035,2041,2034,2026,2003,2016,2031,2042
2034,2034,2030,2026,2022,2012,2042,2053
2038,2044,2052,2057,2117,2045,2033,2055
2045,2054,2067,2066,2120,2054,2036,2059
2045,2051,2062,2060,2121,2059,2051,2069
2057,2061,2059,2062,2118,2066,2039,2077
2057,2056,2049,2061,2115,2086,2054,2069
2056,2053,2044,2057,2105,2082,2079,2064
2056,2049,2038,2035,2075,2067,2060,2043
2054,2053,2028,2036,2034,2081,2043,2028
2052,2042,2035,2050,2059,2056,2038,2042
2060,2065,2046,2072,2073,2034,2044,2047
2057,2061,2044,2063,2081,2043,2046,2026
2052,2054,2041,2066,2099,2067,2060,2020
2047,2050,2040,2061,2107,2096,2080,2011
2043,2040,2037,2054,2069,2083,2080,1993
2033,2033,2032,2041,1996,2057,2076,1997
2040,2032,2022,2036,1972,2061,2067,2000
2035,2029,2020,2045,1985,2067,2061,1983
2025,2023,2009,2044,2001,2050,2040,1980
2024,2021,2011,2041,2021,2039,2048,1990
2038,2034,2023,2052,2037,2032,2041,2003
2045,2025,2019,2051,2042,2034,2044,2014
2043,2030,2012,2049,2081,2019,2019,2009
2047,2031,2014,2054,2111,2021,2033,2017
2055,2035,2011,2058,2117,2013,2037,2019
2050,2038,2016,2054,2108,2001,2037,2017
2051,2046,2029,2064,2130,2017,2042,2035
2053,2045,2038,2061,2128,2032,2065,2051
2056,2052,2054,2062,2103,2045,2077,2057
2058,2066,2081,2066,2091,2062,2080,2065
2060,2071,2098,2069,2125,2078,2083,2072
2067,2078,2103,2062,2128,2093,2084,2084
2068,2095,2112,2073,2141,2111,2080,2087
2074,2099,2129,2080,2074,2092,2064,2067
2047,2082,2115,2074,2094,2100,2051,2075
2053,2072,2099,2079,2132,2131,2063,2076
2066,2073,2093,2075,2143,2148,2091,2083
2074,2072,2084,2081,2157,2106,2078,2088
2072,2070,2079,2076,2131,1990,2067,2079
2057,2066,2067,2039,2020,1910,2048,2066
2046,2060,2068,2012,1944,1914,2034,2048
2044,2053,2050,2004,1944,1945,2045,2022
2037,2049,2050,2001,1922,1984,2030,2020
2038,2046,2054,1988,1762,2003,2017,2014
2037,2045,2042,1981,1781,2015,2036,2014
2049,2043,2045,2014,1995,2064,2054,2013
2049,2043,2051,2063,2113,2090,2063,2009
2042,2045,2056,2082,2157,2093,2047,2000
2047,2052,2062,2082,2179,2091,2042,1993
2036,2047,2059,2056,2122,2079,2016,1987
2038,2034,2037,2019,2011,2065,2018,1982
2030,2031,2030,2002,1964,2069,2028,1982
2036,2042,2035,1993,1936,2040,2022,1991
2038,2041,2037,1993,1956,2015,2009,1995
2048,2051,2044,2047,2043,2004,2036,2010
2058,2055,2044,2086,2146,2020,2051,2012
2054,2055,2033,2086,2160,2042,2059,2015
2053,2045,2023,2072,2100,2050,2053,2006
2043,2041,2023,2057,2067,2050,2037,2014
2039,2035,2015,2059,2084,2055,2040,2017
2036,2034,2020,2068,2106,2061,2045,2022
2035,2033,2014,2069,2100,2052,2037,2027
2028,2029,2023,2064,2086,2055,2024,2030
2026,2024,2027,2065,2073,2048,2044,2037
2021,2016,2021,2050,2053,2056,2017,2030
2016,2009,2020,2041,2013,2064,2024,2032
2007,2000,2009,2032,2003,2062,2022,2033
2015,2007,2022,2034,2004,2071,2030,2036
2018,2028,2039,2038,2010,2049,2036,2037
2032,2039,2042,2045,2039,2021,2025,2047
2036,2042,2047,2058,2107,2040,2046,2053
2039,2040,2057,2064,2163,2074,2065,2046
2048,2048,2058,2066,2157,2082,2052,2043
2056,2048,2060,2070,2169,2066,2060,2042
2056,2057,2067,2070,2181,2039,2041,2037
2051,2053,2063,2063,2136,2019,2038,2028
2047,2053,2060,2060,2100,2033,2057,2024
2055,2053,2058,2047,2048,2060,2060,2012
2053,2052,2053,2026,1958,2079,2049,2008
2048,2060,2066,2043,1905,2084,2066,2017
2065,2065,2083,2048,1924,2072,2069,2028
2056,2065,2077,2042,1951,2029,2065,2022
2051,2053,2059,2044,2001,2011,2070,2021
2050,2051,2060,2057,2038,2014,2073,2020
2057,2051,2060,2052,2030,2026,2063,2019
2057,2048,2057,2057,2051,2053,2058,2026
2062,2052,2057,2066,2063,2073,2068,2032
2059,2061,2056,2069,2068,2090,2056,2032
2063,2058,2057,2067,2074,2066,2037,2037
2055,2054,2059,2068,2067,2007,2039,2030
2055,2053,2055,2058,2076,1987,2030,2036
2051,2051,2054,2061,2078,2007,2023,2037
2051,2057,2056,2060,2076,2023,2036,2044
2050,2050,2061,2064,2091,2043,2037,2046
2047,2056,2056,2063,2097,2021,2021,2055
2040,2046,2048,2057,2090,1994,2022,2056
2036,2037,2038,2054,2070,2002,2024,2056
2039,2041,2032,2045,2052,2006,2001,2054
2035,2031,2029,2043,2051,2031,2021,2055
2029,2042,2041,2046,2053,2059,2052,2057
2044,2054,2045,2046,2048,2072,2060,2055
2050,2057,2038,2051,2044,2070,2067,2047
2036,2048,2024,2057,2050,2062,2043,2045
2044,2048,2023,2051,2054,2054,2051,2049
2051,2050,2023,2058,2059,2057,2052,2044
2054,2050,2024,2061,2060,2065,2058,2035
2048,2048,2022,2049,2063,2070,2054,2032
2041,2042,2020,2049,2068,2064,2050,2021
2041,2033,2020,2052,2073,2066,2064,2020
2045,2046,2019,2053,2075,2062,2071,2018
2048,2043,2020,2049,2067,2050,2064,2022
2042,2043,2018,2047,2068,2053,2073,2018
2040,2050,2018,2053,2064,2049,2060,2017
2046,2044,2017,2049,2054,2037,2025,2004
2029,2037,2013,2048,2046,2034,2022,2005
2032,2039,2025,2056,2055,2030,2033,2005
2029,2042,2032,2056,2057,2033,2035,2006
2035,2047,2037,2053,2051,2029,2002,2009
2043,2047,2048,2060,2046,2030,2001,2019
2045,2049,2057,2064,2039,2038,2020,2025
2053,2055,2064,2062,2031,2042,2029,2039
2045,2051,2066,2067,2048,2040,2047,2045
2038,2060,2073,2086,2065,2037,2044,2060
2056,2067,2090,2105,2078,2036,2027,2061
2053,2062,2089,2097,2074,2063,2034,2043
2049,2055,2083,2094,2072,2091,2006,2042
2045,2049,2085,2086,2068,2102,2034,2042
2038,2045,2078,2080,2059,2082,2021,2052
2043,2044,2085,2082,2070,2037,2025,2067
2047,2053,2087,2092,2082,1987,2024,2065
2038,2050,2079,2089,2087,2007,2039,2062
2035,2054,2077,2083,2082,2027,2049,2063
2045,2048,2068,2075,2067,2053,2056,2051
2039,2048,2065,2067,2056,2065,2054,2053
2035,2049,2058,2062,2048,2072,2073,2040
2029,2049,2050,2061,2048,2063,2040,2039
2027,2051,2048,2060,2049,2026,2044,2041
2040,2059,2048,2060,2065,2028,2047,2044
2050,2069,2046,2068,2081,2050,2085,2046
2049,2072,2037,2066,2077,2051,2052,2045
2055,2069,2035,2058,2064,2051,2053,2037
2052,2063,2030,2043,2054,2040,2039,2030
2047,2063,2032,2031,2056,2034,2056,2021
2052,2064,2039,2037,2059,2042,2047,2020
2050,2068,2055,2042,2072,2045,2052,2017
2042,2067,2051,2039,2062,2039,2046,2017
2046,2052,2041,2041,2064,2027,2040,2017
2040,2050,2045,2043,2069,2021,2052,2017
2044,2061,2050,2055,2070,2025,2059,2016
2040,2057,2050,2054,2073,2037,2057,2013
2049,2060,2055,2057,2078,2052,2057,2013
2044,2049,2052,2050,2086,2071,2043,2023
2040,2047,2051,2055,2082,2090,2039,2021
2036,2047,2042,2049,2072,2088,2061,2028
2036,2045,2043,2052,2075,2089,2067,2037
2041,2059,2052,2059,2082,2089,2080,2049
2049,2058,2049,2064,2094,2097,2068,2061
2041,2058,2050,2062,2083,2068,2079,2064
2042,2054,2048,2054,2081,2036,2048,2064
2041,2047,2038,2053,2074,2035,2066,2065
2043,2046,2042,2055,2077,2051,2052,2069
2049,2051,2040,2053,2077,2053,2036,2076
2041,2042,2031,2047,2080,2065,2044,2076
2042,2052,2032,2056,2081,2071,2061,2085
2057,2066,2040,2056,2086,2067,2050,2082
2056,2061,2034,2058,2075,2062,2055,2075
2051,2059,2033,2054,2068,2064,2041,2061
2048,2050,2030,2056,2074,2068,2044,2057
2045,2046,2025,2053,2075,2064,2043,2051
2052,2042,2043,2068,2074,2056,2047,2044
2045,2045,2049,2070,2077,2051,2053,2038
2047,2043,2057,2076,2076,2052,2053,2030
2047,2043,2058,2082,2084,2047,2052,2030
2046,2050,2068,2086,2075,2029,2036,2032
2051,2050,2080,2096,2056,2023,2038,2026
2045,2053,2080,2094,2050,2036,2032,2015
2045,2051,2077,2084,2058,2042,2028,2007
2040,2054,2072,2067,2046,2030,2022,2010
2026,2036,2058,2053,2033,2029,2042,2006
2033,2037,2066,2065,2045,2037,2044,2015
2048,2060,2084,2078,2059,2043,2056,2019
2055,2072,2088,2079,2065,2051,2062,2024
2049,2074,2083,2078,2074,2052,2075,2033
2053,2068,2071,2071,2071,2043,2064,2031
2050,2063,2057,2062,2071,2037,2072,2037
2050,2061,2045,2050,2071,2032,2066,2038
2055,2064,2034,2052,2073,2033,2059,2052
2064,2061,2028,2046,2077,2038,2059,2053
2063,2061,2024,2046,2074,2044,2061,2053
2054,2054,2026,2049,2083,2041,2066,2054
2047,2044,2025,2047,2082,2044,2052,2062
2051,2050,2026,2043,2090,2064,2065,2068
2054,2054,2036,2042,2078,2070,2074,2075
2044,2054,2036,2039,2069,2056,2057,2072
2030,2039,2039,2028,2060,2045,2053,2070
2029,2038,2032,2022,2058,2050,2054,2079
2041,2049,2043,2027,2057,2060,2057,2074
2041,2053,2043,2012,2047,2066,2055,2070
2044,2047,2032,2009,2050,2062,2054,2068
2042,2049,2031,2013,2057,2062,2071,2067
2045,2053,2038,2014,2056,2041,2066,2054
2045,2053,2033,2007,2048,2019,2060,2046
2042,2048,2030,2014,2041,2015,2066,2041
2044,2054,2046,2028,2047,2028,2063,2038
2048,2065,2062,2035,2056,2027,2071,2036
2046,2071,2071,2043,2060,2030,2080,2034
2051,2072,2070,2041,2056,2026,2060,2026
2049,2065,2076,2040,2064,2028,2053,2025
2046,2057,2068,2045,2056,2021,2039,2017
2045,2055,2062,2040,2058,2008,2050,2015
2042,2044,2054,2044,2062,2006,2039,2012
2041,2046,2056,2047,2069,2017,2050,2015
2053,2064,2067,2056,2068,2030,2050,2013
2051,2063,2062,2055,2073,2064,2053,2013
2049,2060,2063,2064,2073,2066,2060,2022
2049,2062,2060,2058,2073,2062,2069,2032
2051,2053,2064,2054,2069,2074,2071,2034
2054,2054,2058,2051,2068,2098,2074,2035
2044,2049,2055,2052,2073,2103,2070,2035
2037,2049,2045,2050,2073,2089,2074,2042
2046,2049,2044,2056,2070,2078,2078,2052
2047,2052,2040,2057,2075,2082,2076,2065
2046,2043,2038,2055,2074,2080,2063,2078
2045,2040,2038,2056,2078,2075,2055,2084
2045,2047,2042,2055,2081,2077,2086,2084
2045,2052,2040,2056,2078,2083,2061,2083
2042,2044,2037,2045,2067,2081,2053,2077
2038,2043,2035,2046,2068,2088,2070,2076
2040,2056,2045,2055,2068,2096,2071,2072
2040,2054,2047,2053,2058,2102,2067,2071
2039,2049,2051,2060,2056,2130,2046,2060
2044,2054,2054,2055,2061,2154,2033,2051
2040,2054,2054,2049,2056,2121,2036,2044
2035,2052,2051,2050,2050,2023,2036,2038
2038,2052,2044,2034,2037,1963,2029,2034
2041,2050,2040,2031,2037,1991,2019,2028
2042,2055,2051,2037,2040,2017,2030,2029
2049,2057,2069,2056,2053,2050,2028,2028
2050,2069,2077,2056,2057,2073,2032,2025
2055,2065,2068,2052,2060,2087,2023,2022
2057,2062,2058,2052,2069,2095,2014,2017
2054,2059,2056,2052,2065,2081,2020,2002
2040,2041,2042,2044,2061,2041,2008,2003
2034,2039,2042,2046,2057,2021,2027,2008
2048,2056,2055,2052,2061,2027,2035,2008
2046,2058,2057,2053,2051,2036,2036,2010
2047,2054,2061,2045,2038,2040,2037,2015
2040,2048,2055,2044,2031,2030,2041,2023
2042,2057,2056,2048,2033,2040,2042,2025
2044,2048,2053,2039,2036,2039,2041,2029
2039,2047,2048,2046,2059,2039,2056,2036
2044,2050,2055,2060,2094,2043,2053,2044
2045,2056,2065,2068,2096,2031,2057,2058
2050,2059,2065,2066,2091,2020,2044,2061
2048,2051,2064,2066,2095,2017,2052,2068
2043,2056,2057,2059,2078,2010,2048,2070
2040,2054,2053,2056,2076,2031,2042,2072
2045,2047,2045,2052,2065,2041,2042,2076
2037,2036,2037,2037,2055,2038,2047,2075
2041,2032,2028,2038,2058,2037,2049,2085
2048,2047,2034,2045,2066,2044,2060,2085
2049,2046,2038,2046,2064,2039,2061,2077
2051,2055,2043,2043,2051,2050,2066,2078
2052,2058,2041,2040,2022,2075,2065,2066
2055,2057,2039,2034,2019,2090,2035,2053
2047,2053,2030,2028,1999,2101,2044,2048
2046,2049,2029,2022,1990,2083,2055,2033
2041,2042,2026,2027,2021,2065,2035,2039
2042,2040,2028,2047,2063,2066,2041,2040
2047,2048,2039,2062,2089,2031,2047,2052
2051,2053,2053,2075,2088,2026,2060,2041
2050,2054,2059,2088,2090,2015,2066,2040
2046,2045,2059,2085,2083,1989,2050,2028
2051,2044,2058,2081,2078,1990,2060,2020
2039,2027,2042,2072,2080,1991,2048,2010
2032,2024,2031,2068,2072,2002,2028,2012
2036,2040,2044,2073,2067,2028,2042,2016
2036,2047,2050,2075,2036,2034,2047,2016
2040,2048,2056,2072,1995,2045,2018,2005
2040,2046,2048,2052,1948,2036,2010,2011
2034,2039,2039,2032,1913,2022,2015,2015
2033,2031,2036,2030,1922,2065,2026,2022
2040,2037,2037,2034,1943,2090,2060,2044
2049,2043,2061,2054,2013,2083,2060,2059
2055,2059,2082,2083,2110,2120,2096,2075
2060,2060,2094,2084,2143,2123,2086,2073
2054,2060,2090,2076,2128,2038,2074,2084
2050,2056,2082,2060,2094,1977,2077,2083
2049,2048,2072,2040,2068,2015,2084,2094
2050,2053,2063,2031,2060,2052,2081,2098
2060,2047,2054,2025,2054,2047,2080,2098
2056,2042,2044,2018,2051,2057,2073,2098
2062,2047,2045,2013,2052,2069,2072,2093
2056,2052,2037,2020,2048,2066,2049,2096
2060,2050,2043,2028,2068,2093,2076,2090
2059,2049,2034,2035,2097,2109,2076,2083
2056,2048,2028,2028,2097,2119,2079,2073
2061,2046,2027,2034,2089,2133,2080,2064
2062,2049,2043,2039,2068,2120,2070,2061
2067,2063,2060,2039,2052,2092,2051,2055
2072,2065,2069,2039,2053,2064,2050,2042
2070,2063,2071,2049,2058,2038,2050,2039
2064,2058,2071,2050,2066,2008,2047,2028
2052,2056,2072,2047,2058,2016,2058,2024
2052,2054,2065,2043,2043,2044,2043,2014
2053,2050,2065,2049,2028,2040,2057,2021
2047,2048,2057,2038,2020,2002,2032,2013
2044,2040,2057,2038,2021,1981,2047,2013
2051,2044,2057,2050,2037,2008,2038,2018
2053,2047,2058,2042,2041,2042,2057,2024
2053,2049,2051,2043,2027,2063,2061,2031
2052,2050,2048,2030,2003,2069,2058,2023
2049,2044,2042,2028,1984,2071,2049,2019
2045,2040,2043,2018,1979,2054,2039,2026
2038,2035,2035,2022,1987,2035,2049,2039
2046,2040,2043,2041,2022,2006,2063,2057
2049,2048,2059,2059,2074,2008,2068,2063
2063,2055,2065,2066,2113,2005,2055,2072
2060,2059,2066,2065,2120,2019,2061,2077
2052,2054,2069,2070,2100,2030,2069,2081
2052,2051,2062,2070,2096,2039,2057,2084
2048,2040,2054,2061,2086,2037,2060,2086
2042,2032,2046,2047,2058,2012,2048,2074
2029,2028,2039,2044,2045,2005,2051,2075
2034,2028,2037,2045,2041,2011,2053,2073
2047,2033,2046,2048,2035,1993,2048,2070
2041,2044,2061,2059,2045,1986,2038,2074
2052,2042,2061,2063,2036,2005,2039,2068
2040,2034,2057,2047,1998,2013,2027,2052
2036,2035,2052,2038,1956,1993,2023,2045
2036,2034,2052,2032,1939,1984,2024,2039
2041,2037,2052,2024,1942,2006,2038,2028
2038,2027,2047,2034,1985,2039,2048,2034
2051,2041,2065,2071,2077,2073,2050,2033
2058,2045,2065,2082,2105,2084,2073,2033
2052,2046,2065,2081,2103,2071,2053,2027
2054,2052,2063,2075,2094,2067,2038,2026
2053,2052,2067,2067,2072,2062,2054,2021
2051,2049,2052,2054,2054,2043,2044,2025
2047,2036,2043,2043,2030,2047,2035,2018
2044,2036,2047,2025,2011,2062,2050,2023
2046,2044,2045,2021,1988,2057,2054,2020
2048,2038,2038,2019,1953,2072,2052,2015
2050,2038,2035,2009,1960,2061,2056,2021
2042,2037,2033,2013,1991,2055,2060,2028
2047,2046,2057,2036,2018,2090,2057,2040
2054,2058,2078,2059,2001,2074,2058,2055
2062,2060,2093,2070,1992,2013,2051,2069
2069,2060,2093,2067,1979,2008,2051,2071
2074,2056,2084,2064,1993,2007,2056,2084
2066,2047,2073,2064,2028,2010,2061,2082
2055,2042,2054,2047,2039,2032,2074,2081
2044,2032,2051,2057,2082,2069,2082,2076
2044,2026,2049,2063,2072,2089,2087,2078
2041,2028,2052,2054,2047,2064,2064,2075
2040,2027,2041,2052,2005,2046,2032,2080
2042,2027,2040,2053,2000,2039,2062,2092
2054,2042,2040,2045,1983,2026,2060,2085
2053,2042,2037,2032,2002,2014,2049,2079
2049,2041,2029,2017,2058,2022,2048,2070
2054,2045,2037,2028,2086,2037,2075,2072
2061,2046,2052,2034,2074,2051,2068,2066
2060,2052,2062,2037,2083,2062,2067,2063
2070,2059,2060,2044,2084,2073,2076,2064
2071,2057,2055,2032,2051,2070,2060,2059
2069,2045,2051,2030,2022,2068,2058,2043
2065,2043,2034,2035,2005,2064,2047,2030
2056,2038,2035,2032,1919,2040,2048,2028
2063,2036,2027,2020,1820,1993,2036,2017
2049,2036,2020,2030,1878,1968,2042,2019
2042,2032,2006,2047,1973,1980,2034,2018
2043,2022,2001,2061,2071,2025,2045,2021
2048,2027,2007,2096,2148,2057,2064,2027
2060,2041,2028,2110,2170,2056,2066,2037
2059,2044,2032,2116,2182,2054,2077,2046
2070,2047,2031,2121,2183,2056,2071,2053
2067,2049,2032,2115,2206,2038,2063,2054
2058,2042,2022,2095,2185,2024,2070,2045
2047,2021,2014,2078,2172,2040,2066,2046
2051,2022,2009,2071,2160,2063,2063,2050
2046,2022,2020,2056,2085,2065,2066,2049
2048,2031,2026,2066,2072,2077,2062,2052
2049,2032,2041,2076,2103,2097,2062,2052
2043,2022,2047,2055,2113,2104,2063,2055
2043,2027,2044,2025,2038,2111,2059,2065
2041,2026,2042,2014,1970,2117,2057,2078
2047,2030,2044,2010,1959,2058,2044,2082
2048,2021,2035,1995,1982,2053,2030,2092
2052,2030,2034,2003,2031,2066,2049,2103
2069,2049,2045,2016,2061,2058,2019,2088
2073,2054,2040,2007,2055,2019,2037,2077
2070,2048,2031,1983,2019,1981,2035,2071
2064,2039,2041,1988,1983,1995,2042,2063
2054,2035,2045,2006,2009,2018,2056,2055
2049,2029,2043,2033,2014,2027,2058,2041
2046,2017,2039,2041,2030,2034,2057,2031
2046,2026,2053,2041,2028,2044,2048,2034
2049,2032,2067,2037,2037,2049,2061,2035
2054,2041,2063,2035,2058,2044,2059,2042
2053,2041,2053,2037,2081,2038,2057,2037
2058,2038,2047,2042,2097,2067,2055,2035
2062,2034,2039,2033,2095,2072,2059,2034
2063,2033,2026,2017,2058,2054,2054,2018
2049,2010,2003,2005,2026,2055,2010,2009
2045,2002,1997,2008,2016,2064,2022,2019
2045,2018,2018,2025,1996,2055,2036,2021
2058,2040,2036,2052,1967,2070,2041,2028
2061,2046,2033,2041,1906,2055,2044,2029
2055,2032,2023,2004,1816,2019,2027,2030
2057,2030,2033,2006,1866,1975,2050,2057
2065,2041,2050,2035,1972,1989,2060,2057
2065,2059,2069,2055,2045,2058,2056,2054
2058,2059,2075,2061,2103,2141,2061,2068
2057,2057,2078,2071,2164,2140,2062,2072
2066,2051,2067,2065,2133,2091,2046,2075
2060,2039,2054,2030,2017,2061,2018,2074
2050,2034,2059,2039,2013,2058,2044,2073
2048,2040,2055,2049,2058,2051,2042,2078
2044,2032,2054,2051,2091,2058,2029,2068
2041,2036,2052,2046,2056,2050,2032,2075
2042,2039,2045,2048,2042,2039,2021,2073
2044,2046,2043,2053,2054,2034,2030,2066
2042,2028,2045,2045,2032,1995,2027,2069
2047,2035,2051,2055,2075,1988,2038,2072
2060,2044,2048,2063,2081,2030,2051,2076
2058,2041,2050,2053,2046,2069,2042,2075
2061,2045,2052,2046,1905,2077,2073,2068
2060,2042,2050,2035,1876,2080,2069,2058
2067,2059,2060,2041,1883,2086,2033,2050
2059,2058,2067,2046,1905,2088,2056,2035
2060,2059,2069,2050,1933,2071,2051,2030
2051,2058,2061,2040,1914,2021,2048,2034
2052,2046,2049,2048,1986,2002,2057,2037
2047,2039,2039,2063,2105,2042,2062,2041
2054,2036,2026,2064,2161,2059,2074,2029
2040,2027,2003,2041,2120,2055,2062,2021
2036,2012,1990,2024,2075,2051,2076,2032
2047,2014,1977,2019,2051,2062,2075,2032
2038,2011,1967,2021,2005,2066,2066,2034
2039,2019,1982,2030,1997,2087,2047,2046
2048,2032,1992,2048,1998,2097,2075,2040
2055,2032,1990,2044,2007,2102,2072,2043
2051,2029,1989,2027,1965,2095,2055,2052
2054,2025,1988,2009,1899,2102,2061,2056
2054,2028,2001,2005,1919,2088,2056,2052
2054,2026,2001,2010,1988,2078,2045,2055
2054,2027,2005,2011,2050,2076,2061,2071
2052,2032,2008,2039,2137,2060,2071,2089
2058,2036,2014,2041,2166,2066,2057,2092
2056,2036,2021,2025,2104,2033,2063,2095
2054,2038,2046,2025,2071,2021,2043,2100
2053,2036,2066,2019,2047,2014,2052,2094
2053,2043,2086,2016,2028,2002,2046,2097
2061,2054,2101,2020,2048,2010,2021,2091
2056,2051,2110,2027,2064,2019,2030,2082
2054,2052,2123,2047,2048,2033,2012,2069
2057,2059,2135,2058,2044,2053,2040,2064
2054,2059,2118,2068,2051,2062,2040,2050
2050,2055,2109,2066,2029,2060,2039,2047
2044,2051,2099,2066,2049,2052,2032,2043
2050,2051,2092,2067,2057,2039,2036,2036
2053,2042,2080,2068,2083,2034,2049,2032
2056,2043,2078,2065,2071,2020,2042,2033
2048,2040,2068,2057,2018,2007,2040,2045
2049,2048,2060,2053,1992,2005,2021,2036
2053,2047,2058,2044,1999,1993,2031,2037
2054,2050,2050,2029,2004,2000,2022,2011
2040,2029,2035,2017,2022,2015,2030,2019
2052,2042,2051,2052,2086,2054,2030,2031
2069,2057,2069,2070,2115,2076,2036,2040
2062,2047,2064,2060,2077,2070,2039,2038
2057,2054,2054,2045,2009,2053,2030,2036
2053,2047,2049,2028,1969,2026,2045,2039
2051,2040,2047,2026,2010,2037,2036,2032
2048,2034,2052,2032,2055,2065,2034,2036
2046,2034,2054,2030,2082,2099,2030,2037
2050,2045,2071,2044,2117,2127,2061,2044
2049,2052,2073,2064,2132,2136,2073,2060
2060,2065,2080,2068,2116,2121,2070,2078
2064,2069,2081,2066,2110,2098,2056,2088
2063,2068,2080,2057,2099,2084,2073,2102
2070,2060,2072,2044,2091,2069,2067,2102
2070,2057,2062,2044,2129,2059,2056,2099
2068,2045,2047,2039,2184,2027,2060,2093
2056,2035,2041,2033,2152,1970,2046,2083
2047,2038,2043,2019,1983,1919,2027,2072
2050,2038,2037,2008,1817,1901,2021,2061
2044,2042,2043,2024,1902,1937,2018,2048
2044,2041,2050,2037,1980,1953,1997,2046
2049,2047,2049,2034,2025,1982,2005,2049
2058,2048,2051,2025,2000,1998,2026,2051
2063,2044,2043,2032,2066,2016,2028,2046
2062,2047,2036,2039,2100,2014,2040,2042
2053,2034,2030,2027,2045,2013,2034,2037
2048,2035,2028,2033,2028,2032,2033,2037
2054,2042,2036,2044,2076,2015,2026,2024
2060,2042,2040,2061,2092,2003,2011,2033
2062,2046,2044,2058,2040,2014,2040,2038
2066,2056,2054,2062,2066,2044,2053,2033
2068,2043,2046,2027,2058,2060,2069,2020
2044,2038,2038,2020,2075,2073,2052,2023
2050,2046,2045,2026,2072,2067,2052,2023
2059,2050,2039,2019,2085,2052,2068,2027
2058,2056,2046,2030,2112,2074,2074,2038
2064,2059,2054,2051,2109,2116,2091,2047
2065,2065,2055,2018,1847,2115,2088,2055
2057,2064,2048,1988,1693,2098,2082,2052
2054,2058,2049,1989,1758,2098,2065,2053
2055,2060,2046,1998,1828,2121,2045,2044
2048,2050,2042,2000,1884,2104,2049,2039
2054,2046,2040,1996,1889,2049,2034,2047
2053,2047,2039,1992,1850,2019,2026,2054
2049,2041,2034,2007,1894,2036,2011,2062
2045,2028,2025,2026,1992,2045,2039,2075
2057,2034,2039,2078,2095,2055,2046,2078
2050,2033,2050,2102,2126,2020,2042,2080
2056,2033,2058,2109,2154,1980,2053,2092
2062,2044,2076,2094,2154,2033,2056,2100
2070,2048,2066,2073,2103,2050,2055,2080
2056,2046,2057,2057,2082,2059,2054,2062
2047,2041,2039,2049,2063,2057,2045,2058
2046,2037,2029,2059,2074,2060,2043,2056
2042,2038,2029,2070,2082,2070,2037,2057
2048,2045,2029,2091,2124,2090,2056,2041
2046,2039,2026,2095,2150,2072,2052,2042
2052,2039,2020,2088,2167,2052,2053,2042
2064,2049,2018,2095,2179,2036,2063,2057
2070,2060,2024,2098,2145,2046,2060,2053
2079,2067,2035,2090,2146,2086,2052,2041
2075,2060,2033,2080,2123,2105,2044,2034
2058,2048,2024,2046,2041,2061,2027,2022
2041,2038,2012,2011,1981,2008,2012,2004
2026,2026,2016,2011,2008,2024,2016,2005
2032,2038,2039,2054,2099,2059,2044,2023
2050,2066,2063,2070,2094,2049,2062,2033
2062,2073,2073,2085,2087,2046,2045,2046
2077,2071,2080,2083,2019,2044,2071,2052
2073,2060,2072,2060,1961,2034,2050,2054
2065,2053,2076,2067,1992,2046,2040,2060
2068,2051,2082,2080,2026,2062,2061,2070
2074,2066,2077,2065,2022,2061,2038,2066
2073,2080,2086,2029,2024,2049,2049,2063
2072,2058,2067,1979,2072,2032,2016,2064
2051,2041,2042,1941,2003,1989,2006,2065
2045,2037,2034,1924,1863,1959,2026,2073
2054,2045,2045,1968,1894,1984,2040,2082
2050,2046,2050,2020,2024,2006,2025,2087
2039,2040,2047,2030,2060,2012,2022,2086
2044,2025,2038,2029,2037,2027,2014,2076
2041,2034,2049,2027,2002,2029,2020,2080
2057,2054,2061,2027,1959,2025,2028,2073
2050,2054,2060,2019,1905,1998,2020,2067
2050,2057,2067,2039,1962,1986,2018,2069
2046,2058,2065,2066,2047,2000,2012,2067
2048,2060,2066,2070,2073,2025,2034,2061
2054,2057,2060,2059,2094,2049,2035,2054
2053,2055,2052,2056,2086,2088,2051,2051
2056,2054,2050,2050,2088,2100,2029,2051
2063,2057,2046,2043,2088,2092,2052,2048
2066,2060,2040,2048,2089,2088,2056,2046
2059,2055,2037,2044,2070,2089,2060,2045
2056,2053,2029,2051,2068,2080,2053,2044
2052,2049,2037,2053,2090,2035,2043,2046
2059,2058,2052,2061,2071,1972,2041,2038
2068,2055,2053,2061,2072,1970,2026,2038
2063,2049,2052,2068,2106,2002,2032,2034
2067,2042,2049,2068,2090,2033,2024,2043
2064,2043,2038,2048,2028,2044,2030,2041
2065,2033,2029,2019,1987,2053,2032,2044
2072,2027,2021,1985,1850,2069,2038,2027
2061,2034,2032,2011,1869,2110,2071,2023
2060,2046,2049,2061,2000,2167,2072,2044
2068,2046,2054,2087,2035,2138,2083,2064
2067,2039,2050,2078,2018,2047,2066,2061
2055,2033,2043,2064,2066,2049,2069,2072
2058,2045,2038,2069,2155,2107,2070,2068
2047,2040,2034,2056,2178,2120,2044,2079
2045,2033,2024,2035,2141,2132,2055,2062
2034,2028,2019,1995,2036,2104,2044,2067
2033,2026,2011,1961,1920,2061,2025,2073
2034,2025,2012,1931,1777,2003,2025,2071
2036,2027,2008,1912,1712,1911,2005,2083
2054,2042,2025,1977,1885,1893,2037,2099
2058,2055,2037,2025,2029,1939,2065,2096
2061,2054,2033,2023,2023,1983,2051,2091
2057,2046,2031,2013,1945,2029,2064,2075
2057,2052,2047,2032,1971,2049,2059,2070
2058,2058,2057,2037,2029,2047,2044,2056
2055,2053,2048,2022,1981,2059,2032,2045
2053,2045,2042,2011,1937,2074,2043,2041
2059,2044,2045,2013,1935,2080,2040,2036
2063,2043,2049,2009,1938,2052,2028,2025
2061,2039,2039,2017,1997,1953,2005,2026
2059,2040,2060,2068,2143,1981,2030,2026
2058,2043,2065,2105,2281,2074,2040,2020
2054,2036,2058,2122,2328,2107,2043,2011
2051,2046,2080,2128,2252,2078,2035,1992
2048,2044,2084,2106,2138,2045,2038,1991
2032,2022,2067,2089,2082,2049,2041,1998
2031,2021,2054,2084,2076,2070,2047,2010
2040,2030,2056,2088,2102,2081,2023,2024
2042,2045,2064,2090,2125,2088,2059,2031
2040,2046,2069,2082,2128,2092,2055,2035
2048,2055,2074,2077,2139,2092,2042,2041
2051,2063,2077,2082,2139,2082,2037,2043
2058,2068,2083,2089,2130,2076,2046,2049
2063,2072,2090,2091,2116,2053,2061,2044
2062,2060,2077,2072,2104,2036,2048,2036
2054,2052,2065,2067,2100,2030,2035,2032
2050,2036,2045,2061,2112,2019,2041,2046
2037,2034,2038,2062,2169,2024,2025,2065
2034,2037,2045,2058,2170,2021,2030,2073
2041,2030,2043,2046,2130,2019,2029,2078
2053,2035,2045,2046,2111,2020,2024,2088
2058,2050,2049,2046,2095,2016,2024,2097
2055,2047,2046,2037,2065,2021,2033,2099
2056,2047,2045,2016,2000,2011,2038,2101
2068,2054,2043,1992,1933,1989,2011,2096
2070,2052,2030,1956,1812,1974,2013,2084
2063,2043,2024,1927,1728,1989,2006,2071
2065,2050,2032,1980,1857,2034,2041,2059
2063,2058,2057,2023,1950,2088,2053,2041
2061,2058,2058,2033,1962,2104,2070,2047
2061,2057,2064,2031,1947,2122,2064,2045
2057,2056,2056,2006,1862,2103,2065,2042
2056,2058,2051,1985,1794,2056,2031,2040
2050,2051,2051,1990,1791,2036,2071,2046
2047,2050,2054,2025,1855,2036,2063,2051
2058,2056,2056,2054,1990,2034,2086,2060
2069,2060,2057,2084,2103,2033,2072,2060
2070,2058,2049,2072,2103,2028,2076,2040
2066,2050,2036,2058,2027,2046,2053,2042
2064,2056,2037,2073,2069,2062,2056,2037
2081,2058,2053,2123,2183,2080,2050,2043
2068,2054,2051,2134,2200,2077,2050,2023
2056,2035,2037,2113,2139,2064,2034,2019
2050,2021,2023,2057,2078,2055,2026,2012
2034,2012,2026,2030,2126,2038,2025,2014
2030,2020,2034,2030,2175,2028,2010,2029
2034,2033,2045,2028,2114,2015,2032,2048
2048,2046,2045,2040,2045,1997,2026,2052
2050,2047,2056,2053,2038,2018,2025,2062
2052,2049,2057,2053,2047,2025,2037,2063
2057,2053,2046,2052,2081,2043,2038,2079
2058,2044,2032,2056,2143,2049,2030,2085
2062,2048,2034,2051,2103,2048,2027,2083
2056,2038,2029,2044,2049,2025,2029,2075
2042,2040,2036,2036,2009,2004,2005,2049
2021,2034,2030,2034,2033,2010,2028,2065
2028,2020,2025,2045,2087,2066,2072,2082
2048,2035,2039,2080,2230,2124,2103,2085
2046,2037,2047,2108,2324,2120,2096,2081
2044,2032,2054,2109,2328,2111,2085,2077
2034,2030,2047,2116,2312,2119,2092,2070
2045,2032,2043,2107,2263,2124,2093,2067
2054,2033,2042,2096,2216,2123,2075,2049
2039,2041,2046,2077,2129,2106,2070,2020
2031,2046,2047,2077,2082,2105,2058,2021
2043,2053,2050,2081,1993,2081,2070,2032
2053,2050,2047,2036,1828,2030,2031,2033
2057,2045,2034,2005,1815,2009,2050,2027
2053,2048,2033,2030,1942,2012,2040,2023
2050,2045,2036,2015,1952,1988,2024,2019
2044,2045,2024,2004,1906,1970,2017,2004
2045,2032,2021,2008,1928,1982,2024,2006
2045,2030,2028,2029,1962,1994,2033,2012
2052,2042,2036,2040,2021,2006,2035,2023
2050,2039,2038,2040,2027,2000,2037,2028
2047,2045,2034,2032,2001,1994,2037,2033
2050,2056,2032,2019,2013,2001,2055,2031
2054,2058,2041,2031,2036,2035,2047,2025
2051,2062,2046,2062,2070,2089,2061,2034
2051,2062,2049,2092,2104,2125,2066,2042
2054,2055,2050,2093,2103,2135,2053,2041
2046,2044,2044,2089,2111,2148,2049,2060
2052,2052,2059,2101,2152,2169,2071,2076
2057,2048,2054,2107,2097,2109,2084,2101
2068,2053,2044,2074,1938,2031,2088,2099
2058,2042,2031,2041,1848,2040,2066,2091
2052,2040,2034,2049,1953,2065,2049,2070
2029,2036,2020,2038,2012,2057,2037,2073
2026,2023,2016,2030,2073,2061,2027,2084
2046,2022,2021,2056,2175,2084,2045,2086
2059,2034,2030,2049,2149,2057,2015,2064
2046,2035,2031,2023,2070,2018,2028,2057
2047,2045,2033,2012,2064,1987,2037,2062
2053,2041,2033,2012,2050,1961,2044,2058
2045,2039,2030,2018,2044,1962,2035,2062
2043,2044,2036,2025,2047,1980,2022,2057
2043,2047,2039,2036,2032,2003,2033,2044
2045,2041,2036,2041,2060,2022,2041,2043
2049,2041,2038,2063,2113,2061,2043,2046
2060,2042,2039,2064,2113,2076,2039,2042
2054,2048,2041,2056,2037,2036,2059,2042
2058,2042,2048,2063,2065,2000,2052,2045
2057,2043,2046,2073,2130,2012,2057,2024
2043,2042,2046,2075,2176,2034,2047,2000
2034,2021,2027,2082,2268,2075,2052,2002
2031,2020,2026,2103,2346,2100,2069,2024
2037,2039,2043,2127,2338,2110,2067,2023
2042,2047,2040,2113,2246,2093,2081,2024
2044,2044,2042,2079,2136,2054,2066,2025
2041,2046,2037,2046,2004,2023,2062,2019
2048,2048,2037,2011,1842,2002,2040,2020
2041,2037,2014,1951,1672,1987,2032,2018
2037,2026,2015,1965,1759,2014,2056,2031
2034,2035,2032,2016,1889,2035,2059,2042
2042,2037,2042,2046,1942,2040,2068,2049
2043,2051,2046,2058,2021,2035,2058,2056
2047,2046,2042,2059,2066,2031,2060,2059
2049,2046,2045,2067,2109,2035,2048,2060
2045,2040,2032,2050,2101,2032,2054,2067
2040,2027,2020,2060,2123,2064,2045,2074
2022,2017,2011,2070,2123,2079,2038,2061
2015,2017,2020,2046,2026,2066,2036,2076
2036,2037,2031,2043,1968,2058,2037,2070
2044,2038,2039,2041,1980,2022,2037,2067
2051,2044,2043,2037,1976,2010,2027,2065
2058,2056,2053,2046,1971,2032,2038,2062
2059,2065,2063,2051,1963,2030,2045,2060
2053,2061,2055,2045,1956,2025,2023,2045
2043,2049,2046,2041,2000,2026,2038,2049
2046,2053,2053,2064,2086,2067,2073,2054
2058,2060,2062,2076,2146,2113,2081,2047
2051,2062,2053,2077,2155,2112,2083,2045
2047,2051,2043,2070,2139,2099,2078,2038
2048,2050,2042,2062,2104,2075,2067,2035
2057,2060,2052,2057,2076,2057,2057,2029
2057,2059,2048,2054,2069,2052,2069,2029
2049,2058,2045,2067,2083,2049,2058,2012
2032,2041,2039,2062,2073,2002,2046,2003
2033,2041,2040,2060,2070,1963,2049,2010
2037,2054,2040,2056,2065,1995,2060,2018
2051,2052,2039,2066,2071,2039,2090,2037
2054,2052,2037,2062,2071,2056,2074,2033
2050,2051,2033,2060,2073,2070,2074,2039
2054,2044,2032,2061,2072,2081,2062,2039
2050,2041,2030,2062,2067,2102,2058,2040
2049,2044,2026,2067,2061,2134,2046,2044
2047,2049,2029,2068,2062,2160,2053,2053
2046,2044,2034,2072,2100,2157,2047,2057
2042,2048,2038,2074,2126,2056,2061,2066
2049,2043,2040,2075,2153,1978,2030,2073
2040,2041,2039,2069,2169,1999,2050,2077
2043,2042,2040,2062,2115,2017,2049,2077
2045,2044,2040,2065,2047,2025,2031,2076
2042,2038,2034,2060,2020,2029,2032,2080
2037,2040,2043,2060,2015,2038,2048,2084
2045,2045,2043,2042,1973,2057,2042,2088
2048,2050,2045,2050,2030,2068,2057,2089
2045,2052,2051,2062,2069,2066,2076,2081
2045,2054,2050,2059,2065,2062,2043,2071
2046,2056,2054,2059,2038,2048,2046,2063
2045,2054,2055,2055,2024,2016,2014,2051
2049,2052,2054,2056,2035,2008,2010,2042
2046,2048,2055,2059,2044,2006,2023,2031
2041,2044,2054,2064,2061,2021,2009,2020
2044,2054,2055,2076,2066,2039,2005,2019
2040,2053,2051,2065,2064,2071,2006,2021
2038,2050,2045,2057,2052,2094,2017,2016
2039,2043,2040,2042,2006,2106,2006,2002
2036,2039,2042,2030,1978,2087,2012,1998
2034,2027,2038,2018,1938,2028,2000,1985
2023,2022,2035,2016,1919,1970,2008,1992
2032,2039,2060,2041,1986,1920,2023,2019
2049,2045,2069,2072,2074,1965,2042,2026
2053,2050,2068,2081,2118,2021,2052,2026
2054,2052,2064,2084,2140,2063,2050,2034
2054,2055,2057,2082,2123,2070,2040,2032
2051,2043,2060,2075,2097,2064,2063,2038
2054,2044,2051,2070,2083,2068,2061,2045
2046,2046,2052,2058,2066,2083,2049,2048
2045,2040,2053,2057,2065,2100,2059,2050
2042,2043,2048,2053,2056,2091,2064,2052
2043,2039,2052,2060,2068,2068,2060,2062
2037,2040,2044,2055,2063,2059,2055,2068
2037,2044,2044,2056,2058,2063,2049,2073
2046,2045,2041,2052,2050,2042,2042,2078
2049,2035,2035,2051,2043,2020,2030,2073
2038,2024,2021,2041,2045,2033,2037,2071
2038,2027,2028,2047,2046,2041,2033,2080
2043,2043,2037,2050,2048,2051,2022,2075
2042,2048,2045,2060,2054,2055,2024,2066
2047,2052,2043,2061,2056,2055,2044,2061
2051,2053,2048,2061,2054,2044,2025,2055
2045,2053,2042,2058,2047,2042,2039,2045
2044,2053,2043,2054,2035,2011,2028,2035
2050,2054,2045,2053,1995,2002,2016,2030
2049,2052,2053,2047,1950,1996,2022,2033
2050,2056,2054,2050,1948,2004,2030,2031
2064,2052,2058,2045,1949,2013,2029,2027
2058,2051,2052,2037,1959,2026,2015,2012
2051,2049,2063,2046,1989,2054,2028,2005
2057,2050,2063,2053,2021,2087,2037,2013
2047,2043,2053,2063,2067,2105,2046,2002
2036,2033,2040,2046,2100,2080,2014,1999
2027,2030,2038,2039,2074,2032,2040,2011
2037,2046,2052,2063,2074,2017,2049,2032
2046,2056,2058,2070,2068,2013,2054,2030
2045,2049,2051,2058,2064,2061,2043,2025
2046,2052,2053,2077,2113,2108,2061,2024
2056,2046,2060,2093,2139,2129,2041,2025
2048,2048,2057,2090,2126,2125,2054,2029
2049,2047,2056,2086,2110,2112,2053,2041
2044,2040,2051,2074,2091,2087,2042,2053
2043,2037,2043,2063,2072,2060,2057,2051
2034,2033,2042,2055,2068,2054,2076,2057
2042,2028,2037,2060,2077,2054,2075,2063
2041,2031,2033,2059,2102,2040,2060,2066
2042,2032,2034,2064,2124,2020,2038,2071
2035,2035,2038,2066,2116,2005,2041,2075
2040,2036,2039,2064,2087,2010,2021,2069
2036,2033,2044,2056,2086,2027,2021,2076
2039,2041,2047,2060,2071,2050,2037,2072
2041,2045,2053,2052,2049,2054,2029,2069
2041,2047,2046,2057,2048,2062,2020,2062
2040,2040,2049,2056,2056,2062,2032,2058
2045,2040,2049,2058,2063,2056,2045,2054
2043,2040,2049,2056,2062,2045,2044,2045
2037,2037,2050,2061,2049,2043,2042,2030
2043,2032,2043,2059,2058,2042,2032,2025
2033,2034,2035,2063,2062,2036,2046,2022
2034,2031,2038,2058,2059,2033,2042,2023
2033,2030,2026,2053,2056,2031,2046,2023
2034,2029,2026,2052,2062,2044,2062,2026
2040,2032,2029,2053,2064,2048,2048,2021
2047,2033,2032,2052,2057,2042,2052,2016
2038,2034,2031,2055,2062,2043,2057,2004
2035,2023,2025,2043,2061,2039,2061,2008
2031,2030,2022,2044,2054,2046,2054,2019
2047,2050,2037,2053,2072,2063,2066,2027
2053,2050,2040,2060,2073,2081,2052,2030
2052,2049,2046,2062,2080,2103,2065,2037
2052,2055,2051,2070,2083,2148,2074,2034
2062,2062,2062,2071,2083,2145,2044,2045
2062,2065,2070,2070,2085,2097,2054,2055
2068,2071,2069,2078,2079,1988,2050,2059
2061,2068,2069,2073,2076,1938,2056,2062
2058,2063,2069,2076,2078,1983,2059,2062
2057,2060,2076,2071,2076,2025,2049,2068
2054,2054,2074,2075,2080,2048,2060,2075
2051,2047,2066,2072,2077,2070,2066,2080
2047,2045,2061,2069,2076,2080,2058,2077
2041,2047,2062,2071,2068,2081,2071,2078
2044,2038,2058,2061,2054,2075,2057,2076
2040,2036,2056,2061,2053,2077,2062,2077
2047,2047,2053,2060,2054,2064,2073,2075
2047,2043,2046,2058,2046,2045,2056,2071
2051,2048,2042,2061,2039,2018,2049,2063
2040,2044,2040,2058,2043,2025,2043,2060
2051,2043,2043,2061,2044,2030,2052,2044
2044,2039,2038,2063,2048,2025,2040,2037
2035,2037,2038,2062,2049,2023,2026,2030
2034,2036,2036,2059,2043,2030,2020,2028
2040,2033,2033,2065,2054,2040,2040,2034
2042,2037,2041,2064,2055,2045,2021,2020
2045,2036,2039,2061,2062,2052,2012,2018
2046,2042,2044,2065,2053,2046,2034,2021
2047,2041,2046,2065,2045,2046,2060,2031
2045,2044,2057,2065,2042,2049,2062,2026
2047,2054,2060,2069,2037,2045,2020,2007
2029,2035,2059,2069,2043,2062,2045,1995
2028,2039,2062,2079,2063,2098,2048,2008
2038,2043,2074,2083,2063,2103,2049,2025
2042,2052,2077,2079,2059,2092,2065,2025
2042,2049,2069,2079,2061,2091,2057,2026
2042,2047,2063,2069,2060,2087,2056,2027
2033,2041,2056,2061,2072,2071,2071,2020
2029,2040,2046,2066,2080,2065,2060,2022
2033,2041,2052,2068,2076,2065,2062,2032
2035,2047,2056,2066,2067,2044,2066,2035
2038,2049,2048,2064,2072,2034,2062,2049
2039,2051,2051,2074,2072,2026,2057,2049
2046,2056,2052,2069,2068,2013,2042,2056
2043,2055,2049,2069,2067,2022,2053,2061
2046,2052,2046,2067,2060,2041,2056,2064
2045,2049,2042,2060,2046,2046,2029,2052
2038,2037,2025,2051,2042,2049,2028,2055
2037,2034,2016,2044,2045,2053,2044,2060
2049,2046,2023,2050,2057,2071,2043,2057
2050,2051,2028,2050,2059,2078,2048,2056
2052,2047,2031,2048,2061,2091,2054,2061
2046,2057,2035,2055,2068,2098,2079,2053
2051,2058,2039,2058,2077,2113,2065,2053
2049,2057,2041,2064,2088,2119,2084,2041
2050,2052,2042,2057,2077,2106,2065,2025
2044,2044,2037,2052,2072,2084,2043,2019
2046,2044,2034,2055,2071,2063,2037,2018
2039,2047,2036,2053,2068,2011,2040,2021
2041,2048,2042,2042,2059,2003,2026,2014
2040,2047,2045,2044,2058,2020,2036,2005
2043,2047,2043,2039,2062,2038,2013,2001
2044,2052,2056,2049,2064,2045,2018,2005
2046,2049,2046,2046,2070,2045,2005,1991
2036,2037,2052,2050,2071,2043,2032,2002
2038,2048,2058,2063,2079,2046,2051,2011
2049,2057,2057,2060,2074,2047,2044,2009
2048,2057,2057,2051,2074,2046,2047,2014
2044,2054,2056,2062,2083,2062,2052,2021
2045,2059,2058,2058,2084,2066,2068,2026
2059,2056,2055,2062,2077,2065,2069,2030
2052,2056,2051,2055,2075,2054,2075,2037
2050,2050,2051,2056,2088,2080,2088,2043
2048,2052,2046,2062,2090,2076,2084,2051
2052,2044,2046,2063,2081,2058,2048,2057
2046,2043,2037,2062,2086,2043,2053,2065
2045,2042,2037,2054,2078,2029,2037,2076
2047,2038,2037,2061,2069,2019,2028,2068
2044,2047,2046,2066,2065,2021,2050,2064
2049,2052,2041,2065,2061,2016,2044,2063
2040,2037,2027,2070,2074,2027,2044,2065
2042,2039,2021,2075,2079,2050,2051,2067
2049,2050,2020,2077,2086,2076,2039,2058
2050,2050,2019,2070,2083,2107,2062,2059
2055,2044,2007,2063,2072,2087,2053,2053
2041,2049,2000,2058,2060,2042,2046,2042
2046,2047,2000,2056,2049,2017,2049,2033
2046,2050,2004,2056,2039,2024,2049,2029
2046,2049,2007,2042,2038,2057,2033,2023
2049,2045,2004,2032,2046,2126,2025,2016
2045,2042,2001,2029,2042,2141,2039,2020
2040,2047,2006,2023,2040,2147,2021,2015
2040,2050,2014,2020,2044,2182,2055,2020
2044,2061,2034,2031,2046,2195,2054,2017
2056,2068,2055,2028,2024,2157,2037,2012
2051,2058,2053,2013,1966,2007,2010,1999
2036,2036,2042,1984,1912,1923,2007,1987
2033,2036,2050,1977,1889,1944,1996,1989
2036,2050,2080,1997,1917,1963,2010,2001
2044,2066,2098,2038,2001,1967,2041,2014
2052,2075,2108,2071,2093,2016,2054,2021
2061,2074,2099,2088,2124,2048,2068,2026
2056,2070,2087,2083,2129,2086,2072,2022
2054,2068,2086,2075,2112,2100,2080,2024
2049,2061,2078,2062,2093,2097,2079,2023
2047,2059,2065,2043,2124,2096,2083,2032
2045,2053,2068,2049,2152,2119,2082,2034
2046,2051,2062,2045,2131,2128,2064,2039
2041,2045,2054,2037,2112,2082,2068,2047
2041,2045,2050,2034,2096,2069,2062,2058
2039,2042,2044,2032,2080,2078,2075,2072
2047,2044,2050,2037,2069,2052,2072,2076
2050,2041,2045,2040,2028,2020,2053,2081
2052,2052,2047,2034,1912,1994,2043,2080
2055,2060,2064,2042,1930,2028,2042,2080
2060,2065,2065,2056,1981,2062,2042,2065
2059,2062,2054,2045,2010,2076,2032,2046
2043,2047,2051,2041,2039,2089,2035,2041
2037,2048,2063,2049,2057,2092,2053,2040
2046,2052,2068,2057,2080,2097,2043,2038
2053,2060,2075,2071,2076,2036,2038,2034
2059,2064,2072,2067,2070,2003,2032,2027
2053,2057,2064,2068,2086,2010,2032,2021
2058,2056,2067,2075,2104,2039,2031,2019
2053,2048,2058,2087,2096,2079,2032,2019
2052,2052,2059,2078,2089,2057,2013,2009
2052,2050,2056,2086,2096,2018,2027,2012
2048,2052,2057,2082,2073,2020,2022,2009
2048,2054,2045,2079,2044,2024,2025,1996
2042,2040,2040,2072,2033,2021,2011,1997
2043,2051,2045,2074,2038,2040,2019,1999
2055,2054,2050,2064,2043,2032,2029,2003
2048,2054,2046,2045,2003,2014,2004,2003
2045,2050,2047,2040,2038,2022,2006,2009
2050,2052,2045,2030,2021,2019,2011,2011
2049,2046,2041,2020,2012,2004,1996,2016
2049,2048,2036,2019,2053,2029,2003,2034
2051,2049,2034,2028,2087,2067,2039,2045
2054,2049,2030,2029,2088,2088,2050,2062
2053,2050,2036,2048,2089,2091,2042,2060
2054,2050,2040,2055,2095,2084,2040,2064
2054,2054,2046,2053,2103,2070,2042,2077
2059,2054,2044,2050,2118,2066,2019,2072
2059,2052,2045,2054,2105,2082,2042,2069
2053,2047,2030,2035,2064,2056,2029,2065
2040,2037,2023,2026,2009,2041,1999,2062
2039,2037,2021,2022,1981,2030,2027,2060
2049,2049,2033,2021,1973,2011,2024,2061
2050,2048,2043,2028,1992,1994,2052,2069
2056,2056,2043,2045,2025,1996,2044,2057
2058,2059,2049,2046,2062,1999,2061,2049
2056,2062,2044,2048,2063,2036,2049,2040
2053,2058,2041,2043,2039,2036,2045,2034
2056,2056,2038,2040,2021,2025,2041,2030
2055,2056,2039,2043,2021,2025,2044,2022
2056,2059,2040,2037,2020,2016,2044,2023
2058,2058,2037,2040,2043,2007,2032,2023
2058,2055,2041,2044,2073,2023,2038,2017
2057,2047,2035,2047,2111,2057,2060,2014
2053,2039,2029,2046,2102,2081,2075,2009
2046,2033,2022,2035,2069,2082,2072,1997
2039,2024,2016,2029,2036,2078,2061,1999
2040,2030,2023,2032,2028,2090,2081,2018
2055,2050,2039,2036,2032,2107,2079,2024
2061,2051,2038,2034,2030,2111,2070,2022
2060,2047,2035,2034,2013,2118,2064,2023
2052,2034,2032,2026,2008,2121,2039,2019
2051,2033,2029,2038,2053,2109,2032,2017
2047,2037,2039,2048,2074,2003,2028,2014
2054,2044,2038,2045,2036,1926,2002,2015
2052,2047,2039,2032,1985,1928,1997,2017
2053,2043,2042,2024,1964,1940,2022,2029
2043,2040,2038,2022,1955,1928,2031,2050
2039,2045,2040,2022,1985,1919,2033,2054
2043,2048,2046,2049,2050,1957,2056,2075
2053,2060,2060,2072,2103,2010,2061,2077
2061,2057,2066,2086,2138,2043,2054,2073
2045,2047,2056,2088,2135,2059,2043,2071
2038,2045,2057,2084,2120,2088,2023,2067
2039,2054,2074,2078,2097,2104,2046,2074
2039,2064,2070,2076,2081,2099,2075,2074
2041,2060,2064,2074,2090,2049,2070,2070
2033,2052,2055,2067,2086,2044,2064,2060
2036,2045,2050,2056,2075,2060,2076,2051
2044,2046,2049,2059,2070,2078,2081,2054
2042,2050,2052,2062,2081,2069,2077,2045
2041,2045,2051,2053,2074,2038,2061,2039
2049,2046,2053,2053,2055,2028,2062,2029
2048,2046,2052,2057,2049,2040,2070,2027
2047,2054,2055,2058,2046,2024,2054,2025
2053,2061,2056,2054,2057,2040,2056,2022
2053,2060,2050,2049,2063,2065,2019,2020
2052,2050,2039,2028,2032,2070,2035,2007
2046,2044,2035,2021,1992,2074,2038,2006
2044,2049,2032,2020,1947,2084,2046,2010
2053,2056,2045,2016,1942,2067,2052,2015
2057,2063,2058,2031,2011,1999,2016,2036
2064,2069,2065,2055,2108,1993,2072,2044
2063,2063,2060,2062,2111,2009,2071,2046
2059,2058,2051,2037,2026,2011,2073,2051
2067,2057,2049,2045,2037,2005,2052,2051
2064,2054,2047,2051,2044,2009,2045,2053
2054,2052,2043,2040,2031,2017,2010,2052
2050,2047,2037,2041,2047,2031,2023,2057
2054,2043,2043,2051,2062,2063,2041,2072
2052,2046,2049,2056,2066,2086,2080,2076
2052,2050,2054,2059,2062,2087,2064,2081
2048,2048,2054,2054,2052,2075,2064,2082
2042,2043,2048,2054,2042,2058,2050,2083
2035,2030,2036,2034,2022,2039,2056,2078
2037,2025,2032,2031,2014,2034,2050,2088
2038,2037,2037,2033,2010,2036,2058,2067
2038,2037,2026,2028,2007,2035,2054,2061
2039,2031,2013,2020,2001,2045,2053,2059
2047,2037,2007,2024,2003,2047,2055,2055
2045,2046,2011,2029,2012,2032,2059,2050
2055,2050,2015,2038,2025,1999,2050,2041
2060,2049,2008,2038,2016,1985,2060,2051
2056,2051,1994,2031,2004,2003,2056,2042
2054,2045,1993,2020,1978,2034,2040,2035
2052,2038,1985,1998,1970,2084,2044,2030
2052,2043,1989,2004,2022,2095,2055,2028
2059,2057,2011,2034,2061,2097,2074,2035
2057,2060,2019,2037,2067,2085,2092,2034
2051,2052,2010,2025,2058,2067,2087,2028
2047,2028,2007,2016,2037,2054,2068,2031
2046,2029,2007,2019,2028,2055,2070,2028
2047,2041,2034,2020,2021,2040,2064,2036
2047,2039,2039,2022,2012,2041,2052,2027
2050,2042,2056,2029,2022,2049,2068,2035
2049,2043,2068,2038,2041,2057,2045,2034
2046,2045,2072,2042,2052,2061,2042,2031
2039,2045,2073,2045,2050,2071,2046,2033
2042,2048,2067,2041,2046,2095,2049,2039
2040,2042,2072,2033,2045,2074,2046,2045
2045,2039,2060,2034,2038,2048,2032,2056
2040,2037,2058,2034,2047,2061,2044,2064
2037,2034,2050,2035,2041,2068,2072,2071
2039,2035,2047,2032,2039,2058,2066,2068
2044,2038,2045,2033,2032,2046,2056,2070
2036,2040,2048,2036,2034,2047,2038,2082
2031,2032,2046,2029,2030,2037,2027,2078
2030,2023,2040,2028,2025,2038,2055,2083
2033,2037,2054,2036,2028,2042,2072,2086
2047,2045,2059,2035,2028,2035,2061,2091
2050,2042,2064,2038,2026,2021,2033,2081
2050,2053,2064,2038,2032,2029,2056,2080
2049,2053,2063,2036,2028,2032,2049,2074
2051,2060,2069,2041,2027,2033,2028,2068
2054,2058,2064,2033,2022,2044,2026,2068
2055,2062,2060,2036,2027,2055,2036,2058
2050,2063,2053,2039,2031,2059,2016,2055
2055,2061,2057,2042,2032,2066,2033,2053
2058,2063,2061,2038,2031,2070,2053,2057
2063,2065,2059,2036,2032,2071,2061,2050
2054,2058,2056,2036,2032,2071,2060,2047
2058,2059,2052,2040,2035,2071,2063,2045
2056,2058,2051,2044,2030,2068,2049,2036
2054,2043,2041,2029,2018,2066,2024,2025
2045,2040,2041,2026,2020,2058,2039,2028
2049,2047,2044,2041,2037,2058,2056,2032
2055,2046,2049,2042,2036,2064,2044,2032
2052,2050,2049,2044,2040,2058,2019,2038
2048,2049,2050,2049,2036,2052,2042,2045
2054,2049,2053,2045,2036,2032,2029,2042
2054,2052,2051,2039,2025,2031,2028,2053
2057,2050,2055,2039,2014,2024,2016,2060
2057,2052,2058,2031,2007,2027,2030,2070
2059,2049,2054,2034,2006,2027,2065,2070
2056,2042,2050,2028,2002,2037,2047,2064
2042,2031,2037,2023,2025,2056,2060,2072
2046,2035,2047,2037,2051,2078,2063,2086
2047,2041,2058,2051,2069,2088,2067,2092
2042,2041,2050,2043,2059,2100,2071,2091
2038,2029,2039,2033,2046,2106,2062,2088
2033,2031,2037,2028,2033,2120,2074,2089
2045,2040,2045,2044,2014,2148,2074,2091
2052,2044,2054,2056,2032,2175,2067,2093
2056,2046,2060,2069,2067,2199,2077,2083
2050,2046,2065,2075,2066,2168,2065,2072
2050,2058,2067,2080,2046,2065,2041,2058
2046,2052,2068,2078,2008,1927,2003,2050
2050,2049,2059,2070,1988,1912,2019,2045
2046,2049,2061,2066,1995,1976,2048,2046
2056,2044,2064,2075,2060,2013,2027,2047
2056,2050,2065,2061,2061,2005,2042,2036
2055,2044,2059,2069,2079,2003,2046,2026
2051,2042,2059,2074,2076,2005,2046,2019
2052,2034,2055,2067,2081,2006,2050,2023
2057,2044,2061,2074,2091,2016,2059,2027
2058,2048,2061,2076,2082,2025,2057,2020
2056,2041,2063,2068,2059,2025,2054,2021
2048,2042,2055,2055,2011,2038,2055,2026
2050,2048,2054,2036,1884,2017,2044,2030
2049,2048,2060,2027,1905,2022,2036,2029
2048,2051,2070,2032,1969,2058,2033,2024
2044,2045,2078,2029,1989,2083,2019,2032
2045,2045,2076,2028,1998,2088,2040,2043
2052,2051,2068,2017,1988,2088,2059,2056
2055,2045,2056,2008,1973,2059,2048,2060
2056,2041,2045,2023,1983,2003,2038,2076
2051,2039,2048,2032,2016,2013,2057,2093
2057,2039,2032,2040,2034,2046,2056,2090
2054,2037,2031,2029,2040,2080,2063,2093
2044,2033,2020,2029,2045,2115,2091,2096
2046,2029,2013,2026,2041,2128,2082,2099
2044,2035,2007,2022,2032,2096,2070,2088
2038,2027,1995,2013,2019,2054,2027,2091
2036,2023,1990,2006,2007,2032,2047,2092
2047,2032,2002,2019,1995,2031,2037,2089
2042,2033,2003,2008,1988,2029,2052,2085
2048,2038,2007,1999,1998,2025,2038,2079
2053,2041,2002,1998,2027,2019,2053,2081
2053,2040,2003,1991,2036,2018,2053,2083
2059,2046,2015,1989,2023,2026,2065,2083
2067,2051,2006,1988,2017,2031,2051,2081
2062,2047,2010,1990,1996,2072,2043,2062
2051,2040,2017,1987,1975,2089,2023,2044
2055,2050,2041,2010,1969,2061,2023,2048
2057,2058,2052,2045,1975,1946,2018,2038
2051,2057,2062,2055,2007,1934,2044,2032
2049,2052,2062,2055,2010,1987,2052,2033
2048,2050,2060,2041,2015,2051,2052,2027
2041,2041,2066,2030,2017,2076,2027,2016
2035,2048,2079,2029,2009,2087,2022,2024
2050,2061,2099,2046,2015,2075,2052,2031
2050,2069,2107,2058,2004,2032,2073,2042
2062,2077,2102,2065,1974,2022,2070,2049
2060,2062,2089,2052,1984,2013,2068,2044
2052,2051,2073,2057,2014,2024,2054,2047
2049,2045,2064,2062,2048,2044,2078,2052
2054,2053,2070,2061,2041,2038,2064,2061
2059,2050,2071,2048,2053,2034,2032,2063
2056,2054,2058,2032,2059,2039,2038,2056
2053,2052,2062,2034,2086,2059,2049,2061
2052,2057,2062,2041,2087,2077,2051,2075
2054,2050,2052,2031,2044,2081,2043,2075
2056,2047,2053,2022,2004,2040,2049,2068
2055,2047,2052,2015,1995,2016,2026,2076
2053,2032,2037,2009,1987,2007,2024,2075
2038,2034,2025,2007,1997,1980,2028,2074
2043,2037,2039,2025,2031,1982,2047,2080
2047,2051,2055,2036,2048,2009,2031,2082
2056,2055,2059,2041,2038,2029,2043,2083
2051,2056,2056,2048,2060,2058,2063,2079
2058,2066,2060,2045,2067,2072,2068,2071
2062,2064,2057,2044,2064,2068,2065,2062
2059,2062,2057,2030,2047,2085,2065,2049
2052,2053,2043,2015,2008,2095,2062,2044
2055,2055,2039,2006,1964,2080,2050,2035
2053,2050,2038,2005,1983,2076,2061,2026
2048,2040,2034,2009,2003,2035,2054,2033
2047,2045,2033,2019,2041,1968,2048,2038
2047,2039,2032,2033,2105,1987,2056,2039
2056,2053,2041,2070,2181,2062,2072,2049
2057,2056,2051,2075,2209,2104,2080,2039
2054,2053,2040,2070,2206,2096,2068,2036
2055,2055,2043,2069,2156,2058,2076,2040
2056,2059,2032,2035,2035,1987,2045,2028
2057,2049,2025,1983,1876,1957,2042,2026
2050,2042,2018,1972,1850,1970,2058,2035
2053,2038,2024,1984,1941,1999,2071,2044
2058,2043,2030,2010,1977,2024,2072,2054
2059,2049,2042,2020,1977,2000,2067,2062
2051,2055,2040,2026,1976,1963,2054,2056
2049,2046,2041,2043,1998,1945,2049,2054
2052,2047,2047,2067,2040,1968,2053,2065
2052,2043,2049,2076,2073,2007,2056,2074
2050,2035,2047,2058,2047,2048,2075,2078
2039,2041,2057,2053,2044,2083,2082,2087
2039,2044,2065,2055,2044,2094,2076,2089
2032,2048,2071,2053,2040,2078,2051,2082
2034,2049,2073,2059,2037,2069,2066,2081
2033,2043,2065,2057,2047,2090,2057,2088
2038,2042,2061,2045,2043,2092,2063,2079
2037,2043,2057,2055,2040,2096,2072,2083
2042,2045,2057,2047,2035,2085,2062,2071
2042,2046,2052,2050,2032,2053,2062,2067
2039,2049,2038,2041,2019,2016,2032,2058
2045,2049,2042,2044,2014,2008,2034,2047
2053,2054,2049,2043,2032,2033,2047,2039
2047,2055,2041,2042,2029,2054,2044,2036
2050,2050,2035,2026,2030,2070,2056,2042
2042,2044,2022,2019,2026,2072,2049,2035
2039,2045,2024,2024,2025,2067,2059,2030
2042,2052,2033,2022,2026,2062,2073,2035
2046,2060,2037,2023,2025,2052,2067,2034
2046,2060,2034,2015,2014,2033,2038,2023
2037,2047,2029,2008,2007,2024,2033,2015
2031,2040,2033,2020,2017,2036,2050,2021
2040,2051,2040,2023,2027,2043,2054,2021
2040,2049,2043,2027,2027,2041,2056,2030
2043,2049,2038,2029,2018,2047,2040,2030
2045,2049,2037,2031,2020,2044,2050,2035
2041,2052,2037,2028,2026,2049,2055,2043
2039,2051,2045,2033,2029,2045,2056,2049
2044,2050,2044,2038,2032,2036,2057,2056
2042,2044,2041,2035,2033,2028,2050,2063
2045,2046,2037,2034,2022,2027,2047,2071
2037,2038,2038,2018,2023,2027,2064,2070
2033,2033,2033,2024,2023,2039,2062,2084
2044,2048,2040,2025,2048,2045,2071,2090
2047,2050,2053,2033,2043,2047,2071,2105
2048,2050,2049,2040,2049,2042,2060,2093
2036,2043,2040,2038,2070,2031,2032,2085
2041,2044,2052,2051,2076,2041,2056,2084
2054,2053,2058,2064,2073,2072,2050,2071
2050,2056,2052,2055,2046,2101,2070,2065
2053,2051,2048,2040,2030,2074,2074,2061
2056,2053,2053,2038,2023,2053,2064,2057
2061,2048,2052,2026,2004,2033,2042,2050
2057,2051,2047,2001,1952,2012,2050,2048
2043,2047,2039,2000,1970,2009,2040,2041
2042,2050,2046,2015,1993,2011,2033,2038
2049,2054,2056,2026,2012,2015,2054,2037
2047,2064,2065,2029,2024,2020,2061,2038
2045,2064,2058,2030,2024,2015,2040,2030
2045,2058,2056,2024,2015,2014,2033,2027
2049,2063,2058,2036,2039,2030,2054,2027
2046,2054,2070,2039,2048,2034,2063,2012
2044,2052,2058,2037,2046,2031,2036,2015
2041,2052,2065,2037,2044,2042,2048,2024
2049,2068,2068,2043,2050,2040,2043,2030
2051,2065,2071,2039,2045,2045,2046,2029
2046,2058,2071,2043,2043,2054,2062,2040
2048,2061,2061,2041,2044,2064,2055,2042
2046,2052,2056,2034,2039,2068,2054,2048
2046,2045,2057,2035,2021,2058,2071,2057
2045,2042,2048,2022,2019,2053,2075,2057
2045,2038,2052,2027,2014,2050,2072,2064
2047,2045,2049,2024,2012,2051,2061,2066
2053,2041,2046,2020,2022,2053,2074,2081
2048,2049,2053,2023,2034,2050,2062,2085
2062,2059,2069,2033,2030,2053,2073,2089
2060,2070,2075,2038,2035,2056,2073,2096
2064,2075,2074,2039,2025,2048,2066,2088
2051,2050,2061,2034,2020,2047,2066,2087
2045,2045,2058,2029,2034,2051,2066,2089
2053,2061,2055,2033,2037,2069,2076,2087
2055,2058,2058,2029,2038,2066,2060,2087
2050,2062,2048,2027,2060,2058,2064,2083
2054,2062,2056,2037,2103,2066,2059,2073
2056,2065,2058,2040,2124,2064,2054,2060
2058,2058,2060,2042,2126,2063,2068,2061
2058,2056,2060,2036,2136,2058,2078,2048
2062,2062,2060,2040,2126,2040,2072,2046
2058,2062,2059,2038,2115,2036,2071,2035
2058,2061,2059,2038,2089,2040,2049,2032
2050,2050,2047,2037,2046,2036,2056,2030
2044,2048,2046,2024,1907,2030,2056,2037
2051,2043,2049,2023,1896,2059,2062,2042
2055,2053,2053,2034,1948,2071,2055,2031
2054,2051,2044,2033,1982,2071,2029,2031
2054,2047,2038,2039,2005,2059,2024,2032
2060,2058,2041,2040,2019,2049,2037,2034
2056,2050,2038,2039,2021,2037,2023,2031
2050,2052,2044,2034,2030,2037,2035,2032
2052,2051,2046,2034,2027,2036,2039,2036
2048,2057,2050,2036,2033,2036,2048,2034
2048,2057,2061,2042,2030,2026,2050,2040
2051,2056,2060,2038,2005,2009,2060,2045
2055,2059,2059,2029,1996,2006,2054,2058
2053,2061,2052,2029,1985,2010,2052,2063
2056,2053,2049,2016,1986,2021,2054,2059
2047,2052,2046,2023,2020,2041,2068,2074
2053,2053,2054,2051,2056,2060,2075,2078
2064,2058,2060,2058,2056,2059,2062,2085
2057,2057,2052,2045,2031,2051,2070,2093
2057,2044,2044,2029,2018,2036,2034,2078
2048,2037,2033,2018,2002,2025,2034,2070
2042,2034,2032,2012,1999,2044,2039,2074
2049,2043,2041,2030,2026,2064,2071,2083
2057,2045,2049,2042,2056,2072,2064,2075
2056,2047,2041,2040,2057,2076,2066,2069
2049,2042,2035,2046,2068,2044,2064,2074
2065,2049,2045,2061,2063,2035,2068,2072
2066,2052,2039,2063,2052,2047,2069,2072
2058,2041,2029,2042,2046,2051,2074,2062
2056,2040,2017,2038,2027,2058,2081,2062
2056,2040,2017,2043,2032,2054,2082,2056
2060,2040,2018,2040,2034,2039,2081,2047
2049,2041,2023,2046,2032,2023,2068,2041
2047,2042,2022,2041,2037,2028,2060,2042
2057,2054,2033,2050,2033,2029,2056,2033
2056,2057,2035,2049,2041,2051,2048,2024
2050,2040,2020,2040,2032,2084,2052,2020
2044,2033,2013,2031,2040,2129,2057,2017
2050,2042,2022,2030,2051,2168,2058,2019
2049,2038,2028,2030,2048,2178,2043,2021
2047,2038,2036,2036,2056,2146,2026,2023
2046,2038,2041,2040,2052,2046,2014,2022
2049,2048,2045,2038,2034,2028,2006,2026
2051,2041,2046,2037,2038,2081,2009,2035
2047,2042,2044,2039,2043,2066,2032,2035
2046,2033,2042,2033,2043,2043,2041,2036
2043,2038,2052,2033,2041,2058,2028,2047
2041,2040,2059,2034,2039,2018,2021,2054
2045,2042,2062,2039,2029,1923,2027,2072
2044,2046,2072,2039,2007,1928,2020,2071
2038,2051,2072,2039,2014,1995,2038,2066
2032,2057,2077,2035,2029,2039,2024,2076
2043,2052,2066,2028,2030,2052,2029,2073
2035,2035,2051,2027,2014,2038,2036,2075
2040,2036,2047,2027,2013,2025,2052,2080
2058,2059,2066,2037,2015,2020,2037,2076
2062,2069,2068,2042,2028,2028,2056,2081
2066,2065,2074,2051,2030,2036,2060,2076
2067,2068,2070,2056,2031,2048,2082,2082
2069,2065,2062,2053,2033,2067,2086,2074
2069,2061,2063,2060,2027,2073,2086,2060
2062,2062,2072,2066,2036,2074,2070,2053
2057,2057,2072,2068,2031,2069,2065,2044
2057,2051,2068,2067,2033,2073,2052,2036
2056,2040,2062,2060,2027,2060,2044,2031
2043,2042,2060,2064,2018,2059,2040,2016
2043,2039,2055,2061,2014,2055,2043,2016
2041,2032,2050,2054,2007,2076,2041,2019
2044,2037,2046,2062,2018,2109,2042,2021
2042,2031,2039,2053,2020,2085,2039,2010
2038,2033,2032,2059,2019,2035,2016,2001
2028,2040,2044,2067,2026,2024,2026,2009
2041,2049,2050,2055,2028,2011,2028,2009
2047,2047,2044,2050,2029,1997,2020,2011
2047,2047,2053,2034,2023,1999,2025,2019
2048,2043,2045,2024,2017,2019,2038,2026
2050,2045,2051,2019,2023,2020,2043,2030
2049,2046,2048,2022,2036,2032,2045,2037
2054,2046,2052,2022,2042,2043,2047,2043
2050,2050,2045,2027,2048,2037,2040,2050
2049,2046,2038,2023,2038,2026,2048,2056
2043,2040,2029,2015,2037,2031,2052,2060
2038,2035,2030,2017,2053,2033,2046,2077
2033,2043,2034,2026,2045,2039,2044,2084
2042,2046,2043,2028,2040,2043,2033,2086
2045,2044,2044,2032,2033,2026,2042,2086
2046,2037,2046,2034,2019,2025,2044,2090
2045,2041,2047,2037,2025,2024,2045,2088
2052,2050,2057,2052,2034,2051,2056,2083
2047,2041,2060,2063,2026,2045,2048,2082
2054,2042,2064,2059,2027,2047,2047,2074
2056,2045,2062,2061,2033,2068,2045,2073
2061,2054,2064,2058,2045,2080,2060,2074
2057,2056,2060,2056,2051,2072,2042,2063
2058,2056,2047,2060,2050,2064,2040,2055
2061,2057,2041,2047,2068,2029,2034,2044
2057,2054,2040,2055,2084,2034,2043,2049
2061,2069,2063,2056,2080,2031,2045,2043
2062,2066,2058,2049,2050,1988,2052,2031
2057,2060,2050,2045,2027,1999,2036,2024
2054,2054,2050,2034,1998,2018,2001,2015
2047,2052,2049,2029,1989,2067,2006,2018
2051,2056,2050,2031,1981,2071,2022,2011
2040,2043,2033,2019,1981,2056,2018,2009
2041,2041,2036,2029,1998,2024,2032,2024
2054,2059,2044,2032,2009,2020,2045,2028
2049,2055,2048,2026,2002,2036,2032,2024
2049,2056,2039,2023,1995,2042,2028,2020
2044,2050,2035,2016,1982,2032,2027,2022
2035,2046,2030,2013,1983,2008,2019,2025
2042,2048,2046,2030,2036,2012,2042,2049
2048,2063,2064,2059,2091,2036,2055,2060
2052,2066,2064,2066,2099,2061,2054,2057
2055,2062,2067,2067,2094,2063,2054,2064
2057,2056,2064,2061,2078,2051,2065,2077
2059,2055,2062,2059,2067,2041,2049,2080
2052,2046,2055,2054,2048,2040,2059,2082
2047,2048,2051,2047,2048,2043,2037,2081
2052,2044,2046,2044,2043,2036,2036,2080
2046,2036,2039,2033,2045,2034,2014,2065
2027,2022,2032,2022,2044,2048,2030,2071
2030,2029,2036,2031,2027,2053,2033,2071
2039,2034,2036,2030,2008,2045,2033,2072
2038,2029,2031,2021,1994,2029,2033,2058
2033,2031,2030,2010,1979,2035,2014,2056
2034,2039,2039,2030,2004,2058,2051,2063
2045,2042,2034,2052,2092,2082,2046,2059
2048,2049,2035,2058,2134,2089,2043,2058
2051,2044,2034,2066,2144,2087,2063,2058
2056,2052,2037,2070,2135,2081,2066,2049
2056,2052,2036,2063,2093,2067,2053,2040
2055,2048,2028,2052,2063,2050,2053,2044
2052,2039,2026,2049,2052,2037,2045,2038
2057,2036,2021,2029,2003,1990,2037,2030
2045,2027,2013,2018,2001,1958,2024,2034
2049,2029,2011,2036,2070,1972,2026,2025
2039,2024,2014,2040,2085,1980,2027,2014
2040,2030,2015,2045,2064,2001,2040,2020
2051,2044,2035,2045,2045,2037,2043,2032
2055,2055,2039,2041,1991,2068,2014,2029
2055,2059,2048,2036,1973,2090,2019,2030
2060,2064,2051,2039,2004,2123,2018,2035
2062,2061,2056,2051,2016,2137,2041,2047
2060,2065,2055,2039,2012,2098,2046,2053
2053,2057,2060,2053,2043,2059,2037,2051
2054,2062,2063,2070,2113,2056,2028,2048
2050,2059,2073,2076,2099,2054,2027,2060
2049,2058,2079,2071,2061,2048,2032,2059
2057,2057,2088,2058,2045,2043,2033,2060
2049,2060,2089,2054,2061,2040,2030,2070
2049,2056,2089,2066,2062,2039,2026,2073
2049,2056,2089,2066,2050,2035,2025,2080
2043,2057,2082,2060,2036,2039,2033,2075
2044,2045,2078,2055,2023,2053,2031,2080
2050,2047,2073,2055,2022,2048,2046,2088
2054,2058,2075,2057,2014,2051,2046,2085
2056,2055,2068,2061,2010,2054,2060,2077
2048,2053,2070,2060,1995,2052,2037,2074
2046,2056,2065,2049,2001,2054,2040,2069
2051,2064,2060,2045,2011,2046,2056,2068
2050,2059,2059,2038,2026,2033,2049,2053
2050,2055,2048,2039,2023,2021,2040,2044
2049,2050,2045,2045,2040,2029,2020,2033
2048,2044,2042,2045,2052,2046,2034,2032
2044,2040,2038,2044,2055,2054,2038,2030
2040,2040,2042,2043,2053,2060,2032,2023
2043,2048,2044,2046,2060,2058,2040,2022
2042,2051,2046,2045,2056,2050,2036,2021
2047,2054,2048,2045,2061,2042,2046,2021
2051,2052,2048,2052,2051,2043,2041,2017
2048,2043,2047,2046,2037,2047,2034,2029
2048,2051,2051,2054,2050,2053,2051,2030
2058,2058,2058,2062,2054,2052,2050,2016
2055,2056,2050,2067,2066,2033,2020,2012
