CH1,CH2,CH3,CH4,CH5,CH6,CH7,CH8
2047,2039,2088,2142,2090,2061,2034,2049
2054,2049,2089,2149,2109,2075,2036,2059
2055,2059,2091,2147,2099,2077,2056,2059
2050,2050,2064,2121,2055,2050,2055,2060
2043,2040,2032,2084,2023,2031,2028,2064
2035,2028,2020,2061,2012,2016,2023,2062
2031,2020,2011,2042,1995,2017,2032,2060
2030,2028,2021,2027,2006,2023,2046,2073
2044,2047,2038,2025,2033,2036,2022,2072
2051,2051,2035,2014,2043,2041,2045,2071
2057,2044,2021,2005,2030,2036,2039,2065
2051,2038,2010,1978,2044,2037,2037,2059
2049,2042,1999,1963,2070,2041,2045,2061
2054,2051,2018,1957,2090,2046,2037,2050
2068,2067,2039,1960,2079,2059,2055,2052
2075,2078,2044,1971,2080,2075,2067,2047
2067,2071,2056,1986,2072,2069,2058,2044
2069,2067,2069,1997,2067,2070,2039,2042
2069,2063,2072,2007,2062,2070,2037,2034
2066,2065,2067,2013,2053,2068,2031,2030
2062,2057,2068,2016,2059,2040,2024,2031
2062,2061,2068,2025,2054,2031,2041,2027
2051,2049,2055,2022,2047,2035,2018,2022
2047,2041,2040,2029,2084,2049,2044,2022
2050,2044,2044,2038,2104,2070,2033,2031
2060,2044,2050,2043,2091,2065,2036,2027
2051,2052,2052,2042,2066,2057,2041,2031
2056,2050,2050,2039,2061,2055,2060,2038
2063,2053,2047,2037,2062,2055,2052,2038
2057,2048,2043,2041,2067,2054,2049,2051
2057,2052,2045,2040,2066,2055,2040,2046
2056,2046,2044,2036,2057,2051,2047,2052
2056,2045,2044,2042,2069,2061,2041,2056
2052,2046,2042,2038,2061,2057,2027,2054
2057,2049,2038,2038,2056,2048,2032,2064
2053,2046,2037,2034,2053,2044,2038,2071
2052,2047,2037,2031,2046,2034,2042,2065
2050,2049,2043,2038,2047,2038,2035,2066
2045,2046,2035,2033,2041,2028,2038,2060
2029,2031,2032,2031,2037,2022,2030,2057
2027,2040,2038,2038,2039,2034,2019,2067
2042,2046,2035,2039,2049,2032,2046,2064
2044,2046,2029,2046,2050,2034,2034,2063
2048,2050,2038,2045,2058,2043,2031,2064
2054,2050,2035,2041,2052,2044,2029,2057
2050,2053,2034,2042,2048,2050,2044,2046
2050,2047,2030,2046,2050,2054,2043,2042
2050,2039,2031,2045,2045,2056,2047,2033
2048,2043,2032,2040,2050,2060,2051,2035
2055,2050,2037,2048,2051,2069,2052,2037
2056,2054,2037,2047,2057,2070,2040,2036
2054,2060,2033,2049,2054,2066,2055,2030
2060,2054,2037,2053,2056,2059,2072,2037
2058,2052,2040,2052,2051,2052,2045,2031
2057,2054,2032,2044,2045,2051,2043,2026
2057,2047,2030,2046,2048,2049,2045,2026
2050,2045,2048,2054,2057,2050,2072,2030
2056,2047,2056,2059,2051,2055,2057,2035
2056,2047,2044,2060,2032,2055,2055,2039
2056,2045,2040,2054,2026,2044,2038,2030
2053,2041,2033,2053,2026,2049,2035,2043
2051,2038,2036,2046,2025,2053,2041,2044
2050,2043,2040,2045,2025,2047,2047,2048
2045,2047,2052,2050,2020,2049,2030,2050
2053,2040,2054,2056,2036,2052,2055,2057
2050,2040,2049,2062,2050,2051,2056,2052
2047,2039,2042,2054,2048,2051,2045,2062
2046,2029,2037,2050,2048,2051,2031,2063
2044,2029,2027,2038,2052,2049,2056,2074
2042,2030,2028,2036,2079,2048,2044,2072
2044,2032,2032,2033,2080,2045,2037,2073
2036,2026,2032,2036,2072,2041,2037,2072
2037,2026,2026,2033,2064,2046,2036,2064
2044,2037,2031,2040,2058,2049,2041,2067
2052,2047,2052,2045,2050,2046,2052,2061
2056,2052,2052,2050,2054,2040,2052,2060
2056,2047,2049,2047,2045,2039,2050,2056
2053,2053,2055,2058,2040,2042,2056,2055
2055,2060,2054,2064,2042,2041,2047,2047
2057,2056,2043,2057,2040,2043,2046,2046
2056,2049,2033,2050,2043,2044,2041,2036
2048,2042,2023,2048,2038,2039,2056,2035
2051,2046,2015,2043,2044,2041,2049,2034
2052,2052,2027,2044,2036,2040,2050,2035
2057,2061,2030,2040,2040,2039,2045,2030
2057,2059,2039,2047,2042,2041,2037,2038
2056,2061,2055,2052,2047,2042,2032,2036
2045,2048,2054,2046,2046,2038,2025,2026
2042,2046,2060,2039,2049,2049,2034,2032
2048,2049,2056,2039,2058,2057,2055,2036
2045,2048,2046,2037,2053,2058,2049,2033
2051,2044,2039,2038,2050,2061,2058,2039
2051,2037,2042,2040,2053,2057,2040,2038
2049,2050,2064,2054,2062,2059,2063,2044
2055,2063,2088,2062,2065,2056,2060,2041
2062,2068,2092,2066,2060,2056,2048,2050
2055,2062,2086,2064,2056,2055,2057,2059
2050,2052,2067,2055,2052,2057,2047,2061
2050,2044,2056,2046,2046,2054,2047,2059
2042,2036,2049,2040,2049,2051,2034,2060
2040,2035,2044,2040,2053,2050,2025,2067
2042,2039,2054,2034,2052,2051,2026,2067
2034,2046,2059,2041,2047,2047,2049,2064
2033,2041,2059,2033,2049,2047,2051,2071
2042,2050,2054,2040,2066,2060,2054,2081
2058,2062,2068,2043,2065,2060,2057,2076
2062,2060,2063,2037,2060,2059,2038,2069
2060,2054,2057,2043,2054,2057,2029,2061
2054,2053,2051,2044,2045,2056,2022,2059
2051,2051,2055,2047,2047,2059,2047,2053
2050,2056,2062,2058,2040,2066,2054,2041
2054,2058,2071,2059,2047,2064,2050,2041
2055,2054,2074,2056,2053,2057,2056,2033
2053,2059,2072,2055,2040,2053,2058,2028
2051,2055,2065,2050,2023,2043,2050,2032
2052,2053,2057,2045,2019,2038,2049,2032
2044,2052,2045,2043,2011,2044,2051,2026
2055,2051,2043,2052,2110,2051,2050,2024
2048,2047,2039,2055,2166,2054,2027,2021
2045,2035,2025,2046,2162,2043,2016,2021
2042,2043,2025,2045,2165,2044,2048,2026
2054,2052,2029,2058,2155,2050,2045,2029
2058,2047,2029,2052,2118,2060,2053,2036
2054,2050,2029,2048,2093,2057,2050,2037
2054,2051,2024,2040,2071,2050,2054,2036
2056,2053,2028,2026,2004,2037,2062,2040
2064,2051,2020,2013,1913,2022,2034,2048
2062,2044,2016,2018,1882,2015,2017,2050
2061,2050,2018,2030,1929,2020,2042,2050
2051,2046,2026,2046,1968,2026,2044,2059
2054,2040,2047,2057,1994,2035,2041,2056
2040,2037,2073,2069,2016,2038,2043,2063
2044,2042,2093,2092,2050,2047,2053,2062
2045,2049,2100,2107,2065,2052,2044,2068
2046,2051,2087,2119,2067,2052,2039,2064
2038,2033,2069,2105,2063,2045,2016,2054
2028,2024,2055,2096,2059,2043,2035,2062
2034,2031,2052,2098,2052,2046,2034,2058
2041,2036,2047,2097,2055,2053,2045,2059
2035,2037,2036,2097,2060,2057,2047,2056
2034,2034,2028,2088,2059,2049,2036,2053
2039,2038,2020,2059,2030,2036,2041,2044
2039,2034,2013,2027,1985,2032,2042,2042
2042,2029,2000,2006,1988,2017,2042,2036
2041,2048,2014,1994,2016,2018,2025,2037
2047,2054,2026,1997,2047,2030,2039,2036
2053,2056,2022,1990,2073,2033,2043,2032
2052,2044,2022,1978,2063,2028,2038,2030
2053,2044,2029,1985,2026,2028,2040,2033
2054,2047,2043,2005,2013,2027,2041,2036
2057,2061,2073,2016,2028,2030,2031,2028
2058,2069,2081,2021,2048,2034,2038,2034
2057,2073,2096,2032,2061,2038,2046,2037
2071,2078,2096,2046,2067,2038,2049,2041
2068,2073,2084,2046,2055,2046,2061,2046
2065,2067,2063,2036,2037,2047,2037,2052
2060,2062,2056,2039,2020,2045,2059,2048
2060,2061,2058,2044,2013,2050,2065,2047
2064,2065,2066,2046,2013,2058,2053,2049
2060,2066,2065,2037,1997,2051,2053,2047
2062,2068,2068,2025,1992,2048,2057,2054
2055,2055,2063,2028,2023,2055,2069,2061
2056,2053,2056,2036,2039,2064,2065,2068
2049,2052,2053,2038,2043,2065,2069,2076
2054,2050,2054,2039,2025,2053,2048,2080
2048,2048,2053,2038,2026,2039,2050,2080
2050,2049,2048,2030,2022,2019,2047,2067
2045,2038,2043,2025,2034,2026,2060,2063
2041,2038,2047,2039,2061,2042,2061,2072
2053,2050,2055,2050,2078,2064,2071,2073
2052,2054,2054,2051,2062,2063,2060,2065
2045,2054,2053,2050,2038,2054,2042,2059
2044,2051,2049,2055,2027,2050,2043,2051
2051,2052,2045,2054,2017,2041,2029,2045
2052,2053,2049,2031,2004,2034,2065,2041
2049,2044,2049,2035,2029,2036,2068,2033
2049,2040,2046,2044,2080,2052,2070,2023
2050,2047,2051,2054,2112,2061,2052,2032
2045,2049,2052,2053,2093,2064,2054,2024
2049,2052,2050,2059,2078,2061,2041,2020
2050,2050,2049,2059,2067,2053,2047,2015
2049,2045,2056,2069,2078,2053,2037,2019
2046,2047,2059,2074,2080,2049,2065,2014
2044,2039,2053,2072,2066,2044,2059,2015
2046,2038,2049,2065,2062,2041,2053,2018
2051,2038,2052,2074,2071,2050,2051,2019
2057,2046,2051,2077,2065,2051,2073,2032
2054,2048,2047,2076,2051,2045,2066,2025
2054,2047,2042,2079,2042,2047,2049,2024
2054,2050,2036,2081,2056,2054,2050,2032
2052,2044,2014,2078,2054,2053,2060,2036
2055,2044,1994,2067,2054,2049,2043,2038
2057,2039,1990,2058,2056,2056,2046,2043
2060,2039,1988,2050,2054,2056,2062,2052
2055,2040,1986,2033,2051,2045,2062,2055
2047,2019,1982,2005,2044,2045,2050,2057
2039,2011,1970,1988,2051,2038,2066,2064
2039,2015,1985,1996,2047,2042,2068,2067
2041,2026,2000,2009,2047,2043,2068,2070
2039,2032,2017,2019,2041,2039,2045,2073
2044,2035,2039,2025,2039,2043,2066,2073
2051,2050,2068,2041,2042,2049,2068,2073
2057,2057,2089,2051,2041,2040,2053,2069
2067,2061,2090,2054,2039,2039,2061,2065
2058,2057,2085,2055,2033,2034,2050,2063
2060,2054,2091,2057,2028,2043,2032,2056
2061,2051,2082,2055,2029,2043,2034,2048
2057,2044,2078,2061,2037,2045,2061,2040
2053,2038,2068,2059,2035,2047,2071,2039
2050,2041,2073,2066,2040,2051,2062,2036
2047,2043,2082,2066,2025,2044,2073,2034
2048,2050,2087,2069,2025,2044,2074,2033
2052,2056,2077,2061,2054,2049,2045,2033
2051,2051,2078,2049,2050,2042,2056,2038
2060,2049,2064,2036,2012,2022,2049,2035
2053,2040,2052,2032,1985,2012,2033,2026
2043,2026,2040,2016,1977,2011,2035,2021
2041,2026,2039,2006,1990,2022,2047,2026
2049,2035,2045,2018,2031,2043,2048,2030
2057,2038,2048,2036,2063,2060,2062,2033
2056,2040,2051,2052,2102,2081,2062,2044
2046,2041,2050,2061,2125,2106,2047,2046
2046,2041,2046,2057,2120,2107,2049,2046
2049,2046,2043,2057,2097,2106,2048,2050
2048,2045,2040,2058,2087,2085,2054,2046
2052,2044,2040,2053,2080,2031,2041,2059
2054,2053,2039,2055,2072,2010,2050,2060
2053,2055,2043,2051,2066,2022,2068,2064
2052,2058,2048,2058,2068,2041,2062,2075
2052,2054,2042,2057,2062,2045,2050,2074
2056,2058,2048,2058,2058,2046,2056,2077
2050,2052,2042,2050,2055,2040,2034,2072
2049,2041,2042,2045,2056,2043,2044,2068
2051,2049,2042,2056,2056,2048,2052,2065
2053,2044,2037,2055,2060,2052,2053,2059
2044,2043,2037,2052,2058,2047,2053,2058
2041,2044,2028,2061,2056,2049,2037,2056
2045,2044,2022,2072,2056,2050,2041,2048
2050,2034,2028,2086,2057,2042,2039,2040
2045,2035,2041,2096,2057,2046,2058,2031
2049,2028,2040,2094,2056,2056,2042,2029
2043,2029,2030,2099,2058,2057,2048,2027
2050,2028,2024,2095,2058,2060,2057,2030
2050,2032,2021,2090,2051,2064,2053,2033
2049,2033,2016,2085,2053,2057,2055,2032
2051,2033,2011,2076,2057,2056,2067,2030
2056,2035,2007,2066,2064,2050,2067,2022
2044,2025,1998,2050,2049,2040,2045,2021
2035,2012,1996,2032,2037,2043,2035,2023
2034,2020,2002,2013,2032,2041,2040,2024
2033,2031,2031,1994,2011,2029,2032,2018
2038,2047,2072,1991,2012,2025,2062,2024
2047,2059,2091,1997,2017,2028,2026,2034
2053,2074,2115,2011,2036,2037,2059,2039
2064,2089,2124,2018,2060,2039,2067,2046
2064,2083,2104,2018,2065,2038,2061,2053
2058,2075,2087,2028,2057,2043,2062,2050
2054,2060,2082,2031,2048,2045,2065,2061
2048,2054,2073,2035,2044,2039,2059,2061
2050,2050,2066,2038,2041,2048,2056,2064
2046,2038,2058,2036,2045,2049,2080,2067
2046,2040,2053,2040,2049,2054,2060,2065
2042,2041,2059,2050,2095,2063,2068,2070
2039,2034,2053,2045,2121,2056,2046,2067
2037,2039,2062,2052,2112,2057,2072,2076
2051,2056,2077,2057,2113,2066,2075,2072
2055,2056,2077,2063,2096,2066,2068,2074
2061,2052,2072,2058,2079,2063,2049,2065
2059,2057,2065,2052,2070,2062,2056,2062
2057,2053,2058,2035,2032,2042,2049,2053
2053,2049,2053,2022,1978,2014,2050,2042
2056,2052,2056,2029,2006,2020,2049,2046
2060,2057,2061,2047,2032,2026,2017,2038
2065,2063,2058,2062,2064,2037,2044,2037
2063,2061,2051,2058,2083,2034,2042,2040
2064,2059,2042,2062,2108,2040,2054,2031
2061,2051,2050,2073,2125,2050,2043,2030
2058,2044,2050,2072,2133,2051,2046,2025
2059,2043,2047,2070,2118,2050,2040,2028
2050,2036,2036,2064,2110,2048,2025,2015
2047,2029,2039,2060,2092,2056,2041,2021
2043,2037,2051,2066,2075,2065,2029,2034
2043,2042,2056,2064,2002,2055,2047,2026
2048,2035,2059,2048,1924,2043,2059,2028
2047,2040,2057,2044,1956,2048,2063,2036
2055,2043,2056,2036,1998,2051,2057,2035
2052,2037,2052,2028,2018,2045,2047,2041
2045,2043,2064,2027,2024,2045,2042,2038
2058,2051,2081,2037,2041,2045,2041,2053
2057,2057,2093,2047,2046,2034,2047,2059
2059,2053,2081,2041,2051,2032,2049,2064
2064,2046,2065,2032,2045,2036,2047,2072
2054,2036,2048,2022,2045,2039,2062,2070
2049,2031,2039,2016,2044,2047,2039,2072
2050,2040,2044,2024,2044,2052,2051,2072
2049,2036,2042,2030,2040,2049,2032,2069
2041,2034,2038,2026,2029,2045,2047,2078
2052,2045,2052,2034,2035,2042,2042,2071
2058,2051,2053,2034,2020,2037,2046,2073
2059,2051,2054,2036,2031,2043,2043,2071
2057,2055,2060,2040,2045,2047,2050,2059
2057,2059,2058,2048,2047,2054,2052,2052
2065,2060,2058,2043,2046,2058,2043,2049
2063,2048,2047,2036,2051,2061,2062,2042
2063,2045,2046,2037,2049,2057,2056,2032
2056,2041,2038,2043,2046,2059,2044,2035
2061,2039,2033,2042,2057,2058,2047,2031
2060,2038,2040,2047,2048,2046,2053,2024
2058,2044,2044,2046,2043,2033,2042,2019
2051,2044,2045,2049,2053,2031,2045,2020
2051,2040,2041,2054,2062,2034,2049,2013
2046,2035,2037,2050,2047,2027,2040,2013
2040,2027,2030,2053,2045,2028,2035,2021
2051,2036,2044,2056,2053,2042,2049,2020
2051,2035,2041,2060,2055,2050,2042,2021
2039,2031,2041,2058,2062,2060,2047,2028
2039,2024,2040,2058,2057,2067,2044,2023
2039,2032,2034,2062,2056,2079,2055,2035
2037,2024,2028,2049,2051,2082,2049,2042
2039,2028,2017,2042,2041,2082,2055,2045
2041,2029,2018,2032,2035,2082,2049,2056
2051,2042,2026,2030,2030,2063,2052,2061
2051,2046,2038,2040,2037,2037,2056,2072
2055,2048,2040,2048,2033,2030,2059,2074
2051,2046,2029,2040,2022,2036,2051,2072
2045,2036,2021,2029,2023,2042,2043,2072
2049,2031,2023,2035,2019,2042,2044,2070
2041,2027,2020,2030,2008,2034,2038,2060
2040,2025,2010,2027,2007,2035,2038,2069
2042,2037,2004,2031,2031,2038,2040,2075
2043,2028,2003,2032,2052,2036,2037,2066
2046,2031,2004,2028,2051,2036,2044,2061
2049,2040,2014,2038,2084,2043,2031,2060
2047,2047,2033,2058,2097,2050,2046,2054
2053,2049,2058,2061,2084,2053,2073,2042
2063,2060,2065,2066,2081,2057,2069,2046
2056,2052,2065,2063,2073,2055,2043,2035
2055,2051,2063,2058,2076,2053,2041,2033
2050,2050,2062,2054,2057,2051,2042,2032
2046,2051,2064,2039,2019,2052,2025,2030
2051,2047,2058,2029,1992,2042,2029,2026
2045,2042,2043,2024,2004,2031,2049,2024
2049,2041,2047,2023,2022,2034,2043,2022
2039,2038,2044,2022,2021,2026,2024,2016
2046,2037,2050,2033,2034,2027,2028,2021
2049,2044,2064,2041,2044,2037,2032,2029
2050,2043,2064,2054,2057,2039,2029,2037
2053,2043,2072,2054,2048,2038,2020,2041
2053,2045,2069,2058,2052,2044,2022,2039
2053,2050,2076,2063,2057,2050,2022,2049
2055,2052,2077,2066,2063,2045,2041,2051
2051,2054,2073,2064,2055,2044,2040,2051
2052,2046,2068,2065,2040,2051,2044,2057
2049,2034,2045,2062,2034,2045,2066,2061
2041,2032,2042,2067,2048,2045,2073,2068
2040,2027,2046,2063,2058,2049,2059,2064
2038,2024,2049,2059,2050,2041,2026,2062
2036,2018,2040,2051,2046,2040,2041,2064
2029,2011,2032,2036,2035,2029,2041,2070
2033,2014,2027,2028,2030,2026,2024,2071
2032,2018,2031,2027,2043,2029,2046,2067
2037,2034,2037,2030,2056,2034,2050,2070
2047,2036,2034,2036,2058,2044,2056,2067
2048,2039,2036,2052,2075,2045,2064,2061
2056,2042,2034,2061,2077,2046,2071,2064
2050,2043,2034,2058,2076,2040,2071,2058
2055,2045,2044,2066,2052,2034,2062,2057
2056,2059,2066,2076,2043,2028,2056,2049
2058,2068,2073,2082,2036,2027,2070,2045
2065,2074,2070,2081,2026,2025,2069,2042
2063,2066,2056,2074,2025,2025,2061,2039
2057,2063,2053,2076,2037,2038,2057,2035
2060,2062,2046,2078,2038,2045,2063,2039
2060,2059,2037,2072,2042,2046,2056,2035
2060,2047,2034,2064,2035,2045,2056,2020
2051,2030,2019,2039,2025,2031,2034,2009
2029,2013,2010,2024,2024,2029,2046,2022
2037,2030,2036,2030,2042,2043,2045,2022
2035,2045,2049,2034,2058,2053,2055,2024
2043,2045,2046,2021,2055,2052,2059,2029
2043,2040,2029,2009,2040,2054,2061,2040
2049,2046,2029,2018,2054,2065,2067,2043
2050,2051,2037,2025,2058,2071,2076,2048
2058,2055,2038,2032,2051,2060,2051,2055
2057,2050,2018,2025,2040,2057,2071,2060
2056,2044,2010,2015,2035,2044,2054,2067
2050,2038,1997,2001,2026,2051,2034,2066
2047,2033,1996,1996,2020,2051,2063,2065
2045,2037,2000,2001,1996,2045,2047,2064
2042,2031,2009,2016,1962,2040,2045,2066
2037,2031,2022,2017,1960,2026,2016,2058
2025,2017,2030,2007,1954,1992,2035,2055
2027,2029,2047,2029,1994,2007,2046,2079
2048,2050,2091,2071,2054,2040,2063,2075
2046,2062,2108,2083,2080,2058,2073,2073
2047,2053,2101,2089,2101,2083,2069,2068
2043,2048,2096,2096,2113,2088,2064,2059
2051,2049,2107,2095,2096,2078,2064,2057
2044,2053,2105,2088,2087,2066,2061,2050
2050,2058,2104,2085,2104,2064,2074,2049
2055,2063,2089,2080,2113,2072,2074,2048
2056,2068,2076,2066,2110,2074,2055,2041
2059,2065,2056,2044,2090,2066,2038,2042
2052,2060,2040,2027,2066,2062,2046,2025
2042,2051,2028,2014,2040,2061,2042,2021
2039,2050,2034,2003,2013,2050,2050,2017
2042,2044,2027,1988,2004,2040,2034,2016
2034,2040,2027,1976,1986,2011,2030,2009
2031,2034,2017,1972,1994,2005,2035,2025
2044,2047,2034,2005,2051,2019,2052,2035
2047,2060,2053,2031,2110,2038,2075,2054
2062,2062,2060,2048,2123,2051,2076,2052
2059,2061,2065,2045,2116,2058,2069,2045
2053,2059,2056,2037,2102,2061,2060,2043
2048,2049,2046,2034,2075,2048,2066,2058
2048,2042,2050,2034,2068,2043,2049,2053
2038,2038,2053,2037,2063,2048,2060,2064
2045,2039,2057,2042,2064,2072,2058,2065
2045,2035,2065,2052,2114,2078,2065,2070
2049,2041,2071,2064,2179,2083,2053,2076
2044,2038,2070,2069,2199,2087,2078,2074
2046,2044,2080,2072,2199,2086,2056,2080
2047,2049,2082,2062,2159,2079,2043,2075
2040,2046,2079,2052,2130,2060,2032,2072
2044,2043,2072,2049,2116,2055,2037,2071
2047,2051,2076,2043,2080,2036,2042,2069
2046,2052,2068,2030,2008,2021,2036,2062
2047,2049,2061,2025,2006,2029,2043,2059
2046,2052,2062,2022,1910,2026,2053,2053
2041,2049,2060,2026,1893,2031,2040,2051
2050,2056,2076,2039,1950,2030,2049,2048
2055,2062,2082,2044,1970,2026,2058,2049
2061,2062,2074,2043,1979,2028,2056,2047
2056,2058,2067,2041,1992,2033,2064,2033
2055,2050,2063,2040,2000,2037,2045,2027
2048,2045,2057,2047,2008,2045,2040,2029
2051,2049,2068,2060,2012,2055,2059,2023
2056,2053,2064,2058,2017,2060,2074,2022
2054,2047,2058,2050,2007,2066,2058,2014
2044,2033,2044,2035,1980,2056,2037,2003
2044,2029,2038,2032,1976,2057,2036,2014
2046,2036,2042,2033,1989,2049,2030,2015
2044,2032,2031,2027,2008,2048,2033,2015
2036,2031,2028,2016,2012,2034,2033,2022
2041,2038,2034,2023,2025,2026,2045,2036
2042,2033,2034,2023,2024,2051,2037,2034
2044,2035,2027,2023,2033,2071,2042,2039
2047,2035,2036,2030,2056,2082,2043,2045
2045,2045,2057,2065,2075,2040,2060,2056
2051,2037,2059,2063,2049,2045,2052,2058
2041,2036,2057,2055,2041,2046,2054,2065
2050,2050,2079,2073,2066,2064,2069,2073
2051,2050,2076,2063,2049,2070,2058,2071
2049,2051,2076,2064,2051,2085,2060,2074
2051,2050,2077,2069,2071,2084,2050,2063
2047,2034,2057,2058,2087,2073,2044,2060
2038,2032,2051,2062,2091,2035,2047,2059
2048,2039,2059,2071,2083,2015,2050,2057
2052,2046,2060,2069,2076,2029,2041,2056
2051,2041,2051,2057,2066,2047,2056,2046
2052,2044,2043,2041,2061,2045,2051,2051
2049,2043,2031,2033,2046,2041,2042,2049
2046,2038,2027,2025,2045,2045,2052,2049
2047,2041,2025,2019,2048,2049,2050,2035
2052,2048,2028,2028,2057,2055,2056,2034
2056,2053,2042,2037,2067,2058,2061,2043
2055,2051,2049,2040,2069,2058,2041,2032
2054,2050,2053,2050,2068,2062,2037,2039
2060,2047,2049,2049,2066,2063,2055,2031
2060,2045,2046,2045,2069,2062,2046,2029
2055,2036,2042,2038,2056,2052,2028,2028
2050,2025,2028,2030,2050,2047,2035,2026
2050,2026,2026,2039,2058,2052,2030,2033
2055,2035,2039,2044,2061,2052,2040,2036
2047,2033,2031,2041,2054,2052,2036,2038
2047,2032,2032,2041,2047,2043,2038,2035
2047,2033,2035,2036,2047,2042,2058,2040
2054,2036,2041,2038,2054,2054,2044,2045
2051,2040,2042,2041,2055,2048,2040,2051
2047,2036,2040,2047,2056,2049,2029,2049
2052,2037,2037,2046,2055,2052,2023,2051
2054,2038,2044,2045,2057,2055,2052,2058
2045,2040,2046,2047,2058,2059,2051,2066
2056,2036,2041,2040,2060,2070,2035,2061
2048,2035,2037,2041,2049,2086,2034,2073
2049,2033,2038,2039,2051,2087,2024,2071
2051,2035,2039,2032,2040,2078,2016,2066
2040,2028,2032,2035,2040,2066,2024,2067
2036,2030,2039,2039,2049,2041,2021,2079
2050,2047,2042,2046,2065,2034,2027,2069
2048,2049,2049,2048,2058,2039,2051,2067
2047,2043,2048,2050,2055,2049,2058,2056
2046,2048,2049,2047,2050,2049,2056,2059
2048,2042,2044,2043,2050,2049,2061,2044
2049,2043,2045,2045,2051,2047,2060,2049
2044,2046,2043,2049,2039,2042,2061,2039
2050,2047,2041,2041,2038,2040,2049,2036
2054,2045,2044,2049,2038,2046,2059,2040
2054,2046,2044,2050,2039,2056,2072,2041
2052,2049,2037,2055,2036,2057,2054,2034
2053,2047,2029,2054,2040,2054,2042,2029
2048,2046,2014,2060,2042,2053,2054,2022
2046,2035,2013,2066,2038,2049,2051,2016
2035,2026,2007,2069,2036,2046,2052,2008
2032,2020,2007,2072,2043,2056,2062,2020
2039,2023,2019,2086,2051,2057,2057,2019
2040,2033,2030,2085,2053,2058,2056,2034
2043,2040,2031,2086,2057,2063,2051,2038
2044,2045,2034,2087,2057,2056,2061,2040
2048,2045,2035,2084,2054,2058,2060,2044
2043,2048,2035,2075,2049,2056,2055,2044
2043,2042,2027,2064,2044,2055,2061,2048
2047,2037,2024,2044,2044,2044,2057,2052
2048,2030,2012,2032,2038,2027,2048,2056
2036,2029,2012,2017,2028,2026,2042,2057
2043,2028,2019,2004,2020,2025,2045,2059
2039,2028,2035,1995,2009,2017,2038,2069
2039,2044,2054,1984,1997,2011,2041,2074
2050,2049,2063,1980,1976,1994,2045,2069
2049,2046,2046,1980,1970,1987,2025,2070
2048,2043,2049,1980,1974,1994,2022,2071
2058,2053,2057,1992,2000,2025,2051,2071
2066,2071,2076,2021,2042,2045,2054,2070
2065,2068,2079,2036,2072,2054,2050,2070
2061,2062,2074,2047,2090,2071,2054,2057
2058,2062,2063,2042,2082,2071,2057,2050
2058,2059,2064,2041,2064,2070,2054,2047
2058,2059,2060,2045,2064,2070,2052,2038
2055,2059,2064,2051,2062,2070,2062,2035
2054,2057,2060,2050,2056,2071,2063,2034
2050,2054,2056,2046,2061,2072,2065,2033
2051,2056,2059,2048,2063,2057,2043,2033
2055,2057,2059,2052,2047,2041,2046,2040
2056,2058,2056,2053,2028,2038,2054,2031
2056,2057,2052,2033,1967,2039,2039,2025
2046,2044,2044,2018,1922,2030,2032,2024
2042,2042,2045,2022,1936,2038,2059,2026
2054,2047,2039,2018,1952,2029,2042,2021
2052,2041,2035,2010,1960,2008,2057,2022
2047,2043,2041,2026,1999,2011,2065,2031
2053,2044,2050,2040,2023,2022,2068,2043
2056,2049,2051,2040,2025,2033,2063,2044
2054,2044,2047,2040,2040,2061,2052,2043
2055,2044,2053,2065,2105,2077,2070,2045
2046,2051,2056,2066,2126,2072,2051,2047
2045,2047,2051,2059,2113,2076,2058,2059
2046,2046,2052,2059,2110,2082,2053,2061
2047,2047,2049,2050,2096,2085,2065,2068
2050,2043,2040,2044,2090,2082,2067,2071
2046,2038,2041,2037,2080,2077,2029,2070
2040,2031,2034,2034,2060,2057,2032,2074
2040,2023,2029,2028,2048,2046,2040,2074
2042,2035,2039,2036,2036,2028,2044,2083
2050,2045,2042,2039,2024,2016,2024,2075
2052,2049,2041,2042,2017,2016,2027,2072
2051,2047,2038,2043,2014,2020,2026,2064
2048,2045,2038,2039,2014,2021,2015,2045
2039,2041,2036,2036,2022,2038,2021,2036
2043,2042,2034,2035,2022,2065,2034,2033
2036,2041,2034,2031,1996,2060,2030,2029
2040,2036,2026,2032,1976,2043,2026,2023
2037,2038,2031,2020,1967,2034,2012,2021
2039,2039,2040,2013,1953,2000,2019,2035
2047,2044,2039,2028,2004,1963,2030,2040
2056,2049,2042,2045,2081,1986,2034,2037
2064,2052,2044,2052,2090,2018,2032,2037
2052,2038,2034,2053,2103,2052,2030,2025
2041,2034,2024,2041,2093,2073,2047,2016
2040,2035,2032,2033,2083,2080,2045,2019
2043,2033,2028,2033,2086,2079,2047,2028
2046,2046,2041,2066,2118,2052,2067,2041
2058,2057,2055,2073,2122,2046,2075,2041
2051,2053,2049,2069,2101,2064,2060,2042
2044,2044,2038,2054,2081,2085,2057,2040
2043,2043,2038,2048,2069,2098,2065,2046
2047,2040,2037,2050,2074,2104,2067,2047
2049,2042,2038,2050,2051,2102,2067,2053
2048,2045,2037,2055,2061,2072,2072,2070
2054,2048,2048,2066,2125,2058,2074,2074
2050,2041,2045,2067,2117,2056,2040,2076
2045,2035,2033,2058,2078,2034,2035,2073
2040,2025,2032,2044,2024,2026,2049,2068
2025,2024,2021,2031,1973,1996,2039,2056
2027,2021,2013,2021,1965,1995,2039,2058
2034,2033,2025,2031,2019,2033,2046,2064
2052,2049,2033,2055,2049,2053,2062,2069
2053,2050,2042,2049,2056,2058,2043,2064
2061,2056,2043,2060,2100,2080,2059,2059
2063,2051,2040,2062,2085,2083,2052,2052
2058,2056,2042,2056,2078,2076,2049,2048
2064,2051,2044,2057,2079,2072,2046,2045
2060,2052,2045,2054,2080,2074,2058,2037
2060,2055,2047,2054,2080,2081,2052,2040
2057,2053,2040,2062,2084,2081,2064,2032
2052,2046,2045,2056,2077,2067,2026,2027
2056,2050,2044,2053,2067,2060,2042,2028
2054,2043,2043,2052,2068,2064,2051,2029
2053,2045,2044,2052,2065,2063,2064,2031
2041,2039,2035,2051,2067,2050,2064,2020
2041,2037,2030,2048,2063,2048,2056,2032
2050,2045,2046,2054,2064,2054,2065,2036
2057,2047,2045,2053,2063,2048,2064,2028
2056,2046,2042,2058,2062,2042,2047,2028
2063,2046,2040,2059,2060,2053,2046,2041
2057,2050,2042,2062,2086,2052,2046,2042
2055,2058,2043,2064,2122,2068,2047,2050
2049,2053,2045,2061,2136,2073,2049,2050
2057,2047,2045,2062,2144,2067,2051,2060
2062,2050,2041,2065,2151,2073,2051,2063
2060,2050,2039,2064,2152,2085,2045,2065
2058,2049,2039,2068,2143,2088,2064,2077
2047,2051,2045,2067,2131,2091,2071,2088
2059,2051,2044,2064,2107,2092,2073,2090
2055,2047,2045,2058,2036,2076,2067,2087
2057,2039,2034,2037,1925,2037,2034,2080
2050,2042,2030,2030,1952,2035,2036,2088
2058,2050,2037,2039,1985,2050,2033,2077
2064,2046,2038,2041,2015,2057,2040,2074
2059,2045,2036,2038,2031,2065,2033,2067
2060,2040,2034,2034,2034,2076,2010,2059
2057,2037,2034,2030,2032,2072,2011,2041
2046,2042,2034,2041,2035,2075,2018,2034
2047,2043,2029,2038,2021,2036,2001,2023
2045,2043,2035,2030,1990,1983,2005,2021
2052,2049,2033,2032,2000,2000,2046,2024
2049,2040,2031,2033,1995,2025,2035,2014
2047,2041,2028,2030,2000,2028,2046,2021
2047,2045,2033,2042,2034,2021,2052,2024
2053,2046,2041,2051,2075,2044,2061,2037
2055,2052,2044,2056,2097,2065,2059,2033
2051,2044,2039,2056,2105,2074,2064,2031
2053,2041,2034,2060,2098,2066,2068,2034
2055,2052,2045,2060,2088,2053,2070,2041
2058,2055,2044,2059,2077,2042,2059,2036
2054,2056,2047,2062,2074,2038,2053,2045
2057,2055,2045,2059,2062,2041,2054,2051
2060,2053,2043,2063,2057,2043,2027,2050
2057,2052,2039,2061,2054,2043,2030,2048
2056,2054,2042,2055,2044,2033,2045,2042
2051,2051,2036,2047,2035,2031,2060,2054
2044,2048,2035,2047,2029,2029,2051,2062
2046,2045,2038,2051,2034,2035,2061,2064
2049,2044,2038,2043,2032,2039,2054,2066
2042,2040,2034,2043,2028,2050,2051,2071
2043,2044,2030,2045,2020,2049,2042,2073
2050,2040,2032,2044,2025,2050,2049,2066
2038,2037,2030,2046,2034,2046,2007,2062
2044,2038,2028,2044,2036,2055,2009,2066
2054,2057,2042,2053,2046,2069,2048,2080
2051,2061,2044,2053,2040,2063,2025,2069
2056,2056,2046,2049,2035,2059,2023,2059
2057,2058,2047,2055,2033,2059,2039,2062
2058,2058,2050,2052,2032,2060,2035,2049
2061,2050,2049,2053,2033,2056,2053,2044
2058,2053,2051,2048,2028,2052,2036,2043
2062,2058,2054,2053,2035,2052,2047,2035
2061,2054,2049,2050,2025,2047,2032,2032
2054,2050,2046,2046,2024,2042,2053,2029
2052,2047,2049,2046,2021,2042,2042,2026
2052,2050,2051,2045,2025,2041,2049,2026
2054,2050,2050,2039,2036,2032,2038,2023
2057,2045,2048,2042,2039,2020,2001,2032
2050,2042,2041,2039,2030,1998,1987,2039
2041,2035,2040,2033,2014,2001,1997,2056
2057,2050,2047,2044,2002,2018,1997,2088
2066,2050,2053,2048,2009,2059,2020,2103
2064,2053,2049,2047,1997,2084,2040,2102
2061,2056,2047,2037,1998,2098,2034,2099
2063,2052,2048,2042,1993,2079,2026,2093
2064,2054,2050,2046,1993,2044,2037,2096
2069,2058,2057,2058,1995,1993,2050,2096
2064,2058,2055,2049,1963,2011,2044,2072
2050,2051,2052,2037,1971,2039,2062,2069
2056,2057,2050,2057,2046,2069,2074,2067
2052,2046,2048,2045,2062,2054,2058,2052
2046,2045,2040,2041,2058,2032,2029,2044
2045,2048,2041,2036,2068,2056,2043,2055
2041,2049,2042,2054,2113,2060,2067,2048
2032,2040,2036,2061,2126,2022,2047,2045
2027,2036,2041,2066,2105,2002,2032,2057
2038,2045,2047,2062,2076,2010,2041,2073
2047,2047,2042,2055,2064,2030,2066,2071
2053,2050,2042,2045,2045,2056,2068,2059
2054,2044,2035,2019,1967,2065,2064,2050
2054,2044,2031,2018,1995,2078,2043,2038
2060,2046,2039,2029,2023,2046,2032,2031
2059,2044,2043,2029,2017,1968,1993,2015
2051,2038,2034,2033,2040,1939,1992,2009
2035,2036,2039,2046,2086,1995,2022,2016
2029,2030,2039,2060,2080,2043,2034,2008
2027,2029,2038,2057,2076,2079,2063,1999
2026,2031,2043,2054,2059,2090,2079,2007
2030,2039,2046,2057,2053,2087,2082,1997
2031,2041,2045,2053,2035,2082,2067,1986
2026,2022,2031,2037,2001,2060,2064,1985
2016,2021,2024,2029,1995,2044,2047,1987
2017,2029,2032,2041,2052,2035,2032,1993
2015,2033,2032,2049,2103,2025,2029,1999
2021,2037,2025,2045,2100,2016,2019,2006
2025,2037,2020,2038,2100,2013,2018,2017
2033,2033,2024,2036,2103,2019,2029,2024
2033,2040,2024,2046,2094,2017,2026,2040
2036,2046,2029,2050,2073,2006,2015,2046
2035,2050,2037,2051,2063,1999,2015,2053
2044,2057,2041,2051,2060,2009,2036,2078
2055,2062,2045,2055,2064,2023,2049,2110
2057,2057,2044,2047,2056,2036,2070,2126
2058,2052,2047,2036,2035,2035,2077,2123
2057,2057,2044,2026,2037,2052,2081,2132
2057,2059,2050,2039,2045,2093,2094,2120
2053,2045,2045,2033,2049,2119,2096,2116
2051,2038,2045,2036,2060,2123,2115,2132
2054,2044,2052,2047,2069,2118,2108,2126
2051,2045,2056,2053,2077,2085,2094,2120
2050,2056,2060,2052,2073,2066,2069,2113
2062,2059,2065,2061,2061,2055,2053,2095
2063,2061,2062,2053,2035,2037,2024,2083
2069,2073,2062,2057,2031,2035,2012,2065
2069,2078,2067,2056,2037,2025,2000,2031
2066,2081,2068,2054,2032,2028,2029,2040
2062,2079,2066,2058,2043,2040,2076,2052
2061,2080,2068,2065,2061,2054,2113,2036
2056,2081,2061,2065,2052,2075,2127,2056
2063,2077,2062,2059,2050,2084,2143,2066
2061,2072,2065,2060,2052,2080,2155,2070
2053,2066,2064,2059,2064,2084,2152,2057
2057,2051,2049,2049,2070,2097,2148,2057
2048,2040,2049,2051,2087,2129,2161,2047
2051,2050,2059,2058,2107,2173,2163,2049
2050,2055,2055,2057,2107,2181,2136,2035
2050,2052,2054,2057,2096,2175,2126,2044
2047,2056,2054,2061,2084,2106,2081,2038
2051,2055,2053,2063,2072,2054,2009,2027
2057,2056,2060,2063,2102,2065,1993,2033
2062,2060,2061,2071,2115,2057,1944,2036
2047,2054,2062,2074,2115,1995,1957,2011
2040,2051,2057,2065,2117,1978,2042,2028
2043,2042,2049,2067,2111,2004,2082,2053
2044,2041,2050,2060,2115,2022,2117,2060
2040,2048,2050,2060,2103,2017,2115,2058
2039,2036,2042,2056,2068,2006,2119,2068
2037,2037,2048,2043,2016,2007,2115,2076
2039,2032,2043,2019,1903,2001,2075,2092
2046,2036,2042,2023,1915,2014,2027,2106
2055,2048,2050,2039,1969,2012,1946,2090
2053,2053,2048,2043,2007,2014,1922,2077
2051,2054,2048,2053,2046,2010,1921,2064
2038,2052,2050,2054,2074,2060,1897,2048
2033,2058,2055,2053,2049,2133,1939,2030
2032,2061,2055,2060,2058,2195,2003,2005
2026,2064,2058,2072,2084,2224,2052,1977
2026,2054,2057,2061,2075,2176,2022,1960
2019,2048,2044,2053,2057,2061,2000,1960
2017,2042,2037,2046,2044,1975,1994,1960
2017,2042,2036,2035,2037,1974,2007,1962
2014,2043,2038,2030,2035,1983,1990,1963
2021,2044,2041,2041,2045,2012,2017,1977
2033,2046,2046,2042,2054,2045,2071,1988
2039,2040,2040,2048,2062,2038,2064,2002
2040,2041,2038,2048,2064,2033,2059,2006
2047,2050,2046,2060,2080,2037,2088,2015
2045,2052,2047,2060,2072,2028,2079,2024
2050,2053,2051,2060,2059,2020,2085,2033
2053,2049,2049,2060,2066,2013,2098,2054
2053,2055,2044,2056,2063,2018,2107,2082
2061,2047,2045,2045,2051,2010,2092,2090
2057,2047,2041,2038,2020,1994,2076,2083
2051,2046,2045,2032,1985,1985,2049,2072
2050,2048,2048,2037,1995,1981,2018,2067
2055,2048,2043,2041,2022,2007,2022,2065
2055,2047,2047,2041,2037,2034,2057,2067
2057,2047,2047,2040,2046,2075,2048,2075
2053,2050,2048,2038,2051,2124,2071,2092
2056,2041,2052,2041,2056,2150,2103,2101
2054,2028,2046,2038,2038,2138,2068,2086
2045,2021,2038,2029,2022,2111,2018,2072
2042,2029,2048,2031,2010,2077,2020,2056
2039,2036,2047,2041,2011,2060,2013,2055
2047,2042,2049,2049,2016,2043,2015,2061
2055,2051,2049,2050,2037,2039,2015,2042
2054,2049,2052,2046,2057,2027,2020,2041
2055,2046,2046,2045,2067,2001,2034,2033
2053,2050,2046,2043,2047,1989,2006,2020
2052,2047,2038,2037,2043,2027,2015,2014
2049,2043,2037,2038,2060,2070,2027,2003
2046,2047,2041,2050,2070,2086,2031,1987
2050,2058,2047,2054,2079,2078,2014,2027
2059,2060,2049,2056,2072,2049,2021,2063
2060,2059,2043,2050,2060,2023,2062,2043
2053,2059,2046,2048,2052,2034,2086,2021
2052,2050,2034,2045,2052,2054,2074,1995
2039,2047,2031,2036,2047,2055,2061,1984
2041,2049,2036,2038,2033,2086,2053,1989
2035,2041,2035,2028,2033,2112,2064,1994
2041,2051,2037,2040,2051,2082,2068,2004
2054,2055,2040,2054,2064,1976,2056,2016
2053,2059,2048,2059,2068,1924,2022,2032
2060,2064,2049,2055,2063,1935,2044,2052
2063,2069,2052,2057,2064,1947,2043,2063
2065,2068,2052,2056,2056,1952,2047,2074
2069,2067,2055,2056,2059,1974,2075,2085
2072,2070,2056,2051,2041,1967,2052,2087
2069,2066,2059,2049,2043,1999,2052,2101
2065,2064,2058,2051,2046,2044,2049,2095
2073,2066,2055,2055,2052,2068,2052,2110
2068,2062,2060,2051,2063,2038,2038,2105
2061,2049,2053,2046,2044,1908,2021,2079
2040,2033,2043,2039,2028,1919,2003,2073
2047,2042,2050,2041,2051,1972,2066,2085
2051,2043,2050,2047,2060,2024,2096,2078
2056,2047,2052,2042,2049,2108,2094,2059
2051,2044,2054,2043,2060,2174,2066,2030
2042,2044,2050,2049,2075,2115,2059,2025
2041,2049,2058,2056,2085,2037,2023,2022
2040,2053,2053,2056,2081,1996,2020,2013
2033,2043,2043,2045,2063,2000,2029,2017
2034,2036,2036,2036,2060,2035,2056,2025
2035,2034,2035,2035,2057,2076,2081,2036
2040,2037,2037,2033,2054,2104,2085,2021
2043,2037,2041,2025,2046,2069,2058,2011
2031,2034,2029,2016,2040,2063,2080,2006
2033,2031,2032,2016,2034,2007,2055,1999
2031,2033,2032,2020,2035,2014,2044,1997
2028,2029,2032,2020,2025,2020,2048,1998
2027,2033,2038,2034,2036,2039,2070,2012
2038,2046,2047,2037,2051,2032,2063,2015
2039,2050,2047,2041,2050,2063,2048,2015
2043,2049,2053,2042,2048,2124,2059,2019
2041,2050,2051,2044,2051,2167,2060,2033
2037,2049,2052,2042,2048,2137,2047,2033
2043,2047,2050,2036,2033,2033,2001,2028
2040,2040,2047,2033,2033,2009,2012,2034
2044,2045,2054,2034,2035,2024,2057,2048
2047,2046,2056,2042,2032,1944,2036,2043
2044,2053,2059,2049,2035,1911,2020,2046
2046,2052,2062,2048,2044,1955,2030,2048
2040,2050,2056,2049,2060,2003,2032,2042
2040,2046,2050,2044,2069,2075,2037,2044
2039,2043,2052,2043,2064,2090,2010,2039
2029,2035,2043,2035,2054,2089,2008,2042
2028,2038,2047,2038,2062,2080,2008,2042
2028,2048,2055,2042,2064,2089,2016,2045
2036,2046,2050,2037,2067,2122,2026,2029
2024,2042,2037,2033,2058,2115,2035,2020
2028,2039,2040,2037,2042,2101,2021,2025
2030,2036,2048,2034,2046,2099,2048,2020
2029,2036,2048,2033,2045,2104,2052,2023
2040,2048,2052,2036,2047,2105,2051,2028
2046,2050,2057,2047,2055,2096,2046,2030
2052,2053,2058,2049,2054,2106,2068,2025
2051,2058,2056,2051,2053,2102,2054,2026
2052,2059,2062,2049,2051,2096,2059,2032
2056,2056,2057,2046,2047,2057,2049,2040
2054,2055,2056,2038,2037,2038,2040,2031
2054,2047,2059,2040,2039,2034,2042,2019
2038,2032,2051,2040,2030,2031,2030,2016
2040,2037,2049,2044,2043,2024,2034,2023
2044,2048,2059,2044,2041,2024,2032,2030
2041,2056,2063,2045,2048,2008,2032,2038
2053,2058,2058,2041,2040,2006,2026,2035
2051,2055,2058,2043,2037,2002,2034,2040
2053,2050,2060,2045,2034,1996,2018,2039
2048,2056,2062,2045,2047,1992,2026,2039
2040,2054,2060,2041,2043,1996,2019,2031
2038,2055,2055,2045,2048,2010,2014,2026
2043,2056,2059,2055,2054,2051,2041,2036
2046,2055,2063,2054,2065,2092,2072,2053
2047,2052,2055,2053,2058,2094,2072,2053
2041,2047,2056,2050,2055,2095,2072,2058
2039,2048,2061,2058,2058,2058,2043,2060
2035,2052,2057,2050,2045,2015,2029,2049
2028,2033,2043,2041,2032,2006,2037,2047
2032,2033,2037,2029,2032,2044,2053,2052
2034,2042,2051,2040,2046,2095,2061,2044
2045,2047,2050,2037,2046,2126,2065,2051
2047,2049,2045,2038,2050,2105,2067,2047
2048,2047,2047,2038,2056,2084,2075,2040
2046,2052,2053,2047,2055,2056,2061,2033
2046,2051,2047,2046,2063,2037,2074,2032
2048,2051,2053,2046,2057,2028,2068,2026
2043,2050,2043,2041,2054,2023,2071,2027
2047,2052,2054,2047,2056,2025,2058,2019
2040,2047,2049,2043,2052,2021,2061,2012
2049,2051,2047,2047,2053,2021,2050,2013
2043,2048,2047,2052,2060,2022,2044,2014
2046,2054,2048,2051,2068,2038,2058,2011
2045,2047,2047,2053,2058,2032,2038,2009
2032,2033,2031,2044,2050,2051,2029,2009
2030,2033,2035,2042,2042,2095,2035,2013
2035,2039,2040,2044,2039,2097,2035,2014
2038,2041,2039,2049,2044,2106,2052,2024
2038,2041,2043,2043,2053,2107,2068,2027
2040,2044,2045,2045,2062,2100,2069,2024
2044,2046,2052,2056,2067,2086,2056,2036
2046,2052,2050,2053,2059,2068,2038,2028
2046,2053,2048,2046,2049,2040,2033,2034
2045,2047,2047,2045,2040,2056,2041,2043
2045,2047,2046,2044,2036,2077,2044,2045
2045,2048,2048,2043,2043,2069,2061,2056
2042,2046,2047,2037,2050,2071,2056,2055
2045,2050,2046,2037,2056,2069,2061,2064
2044,2052,2047,2045,2058,2072,2033,2064
2046,2050,2040,2053,2064,2060,2044,2058
2035,2037,2030,2046,2074,2072,2042,2055
2030,2032,2030,2049,2075,2092,2027,2057
2039,2037,2043,2054,2091,2099,2020,2049
2040,2039,2041,2050,2084,2078,2028,2048
2037,2042,2035,2040,2069,2069,2021,2042
2032,2040,2037,2044,2058,2070,2040,2037
2036,2047,2040,2040,2050,2076,2027,2035
2043,2045,2043,2038,2057,2075,2040,2029
2044,2043,2042,2036,2049,2084,2038,2017
2042,2032,2039,2034,2044,2095,2046,2016
2039,2029,2037,2032,2049,2102,2026,2010
2034,2027,2037,2031,2048,2089,2019,2012
2032,2035,2033,2028,2047,2078,2036,2014
2036,2048,2044,2043,2048,2103,2043,2006
2038,2044,2045,2049,2040,2094,2041,2003
2040,2040,2039,2048,2023,2038,2020,1995
2021,2032,2032,2037,1988,1908,1999,1984
2022,2023,2032,2039,2011,1896,2006,2005
2034,2037,2038,2047,2053,1978,2028,2006
2036,2038,2039,2049,2057,2014,2046,2020
2042,2039,2039,2053,2077,2026,2064,2032
2045,2040,2042,2060,2078,2055,2067,2031
2052,2047,2044,2065,2096,2079,2069,2032
2045,2049,2049,2072,2145,2106,2073,2040
2048,2046,2047,2071,2167,2122,2071,2036
2041,2042,2042,2053,2120,2121,2074,2040
2041,2039,2044,2046,2150,2130,2074,2049
2048,2047,2051,2057,2148,2136,2059,2056
2045,2042,2046,2055,2115,2147,2064,2057
2041,2039,2041,2051,2099,2169,2078,2060
2041,2046,2043,2036,2055,2142,2076,2070
2058,2052,2038,2036,2014,2114,2076,2077
2057,2056,2043,2033,1894,2006,2031,2062
2050,2052,2042,2030,1846,1915,2006,2066
2052,2062,2053,2040,1908,1953,2042,2052
2052,2065,2056,2042,1958,1970,2015,2034
2039,2049,2043,2024,1983,1929,1992,2019
2022,2042,2034,2016,2042,1968,2000,2015
2033,2048,2041,2031,2113,2026,2013,2022
2038,2049,2046,2040,2094,2044,1986,2028
2044,2056,2052,2042,2094,2032,2018,2034
2050,2056,2056,2045,2108,2026,2013,2033
2047,2054,2047,2050,2114,2011,2001,2020
2047,2047,2051,2045,2103,2010,2006,2027
2042,2045,2046,2041,2088,2012,2019,2021
2042,2041,2046,2042,2076,2000,2040,2023
2042,2050,2044,2043,2073,2007,2032,2024
2040,2043,2044,2034,2062,2013,2041,2025
2048,2054,2043,2042,2059,2022,2044,2024
2040,2039,2039,2033,2052,2016,2028,2010
2038,2035,2037,2028,2041,2012,2037,2017
2043,2047,2044,2036,2053,2037,2047,2016
2046,2044,2042,2040,2059,2058,2036,2006
2044,2046,2038,2039,2058,2069,2041,2000
2041,2045,2045,2040,2066,2066,2049,2002
2038,2044,2046,2044,2079,2079,2040,2010
2044,2045,2045,2048,2087,2103,2052,2018
2050,2042,2042,2043,2086,2112,2050,2022
2044,2038,2043,2046,2083,2078,2048,2033
2036,2039,2043,2043,2083,2057,2040,2033
2036,2039,2042,2041,2077,2041,2031,2035
2031,2035,2039,2039,2067,2045,2037,2040
2031,2036,2043,2035,2070,2044,2018,2049
2033,2037,2041,2034,2063,2034,2013,2056
2031,2034,2038,2031,2064,2033,2030,2053
2034,2038,2036,2028,2048,2013,2001,2051
2028,2031,2027,2028,2017,1995,2008,2053
2037,2029,2026,2026,2027,1995,2020,2057
2036,2041,2032,2034,2033,1974,2003,2045
2040,2042,2037,2034,2033,1978,2013,2044
2042,2040,2041,2043,2040,2017,2026,2040
2050,2048,2044,2043,2046,2067,2046,2049
2051,2042,2052,2035,2050,2117,2054,2041
2058,2054,2050,2031,2048,2157,2083,2040
2057,2052,2046,2032,2054,2140,2073,2025
2054,2056,2046,2034,2078,2121,2067,2010
2050,2055,2047,2039,2095,2100,2041,2014
2050,2046,2046,2040,2072,2093,2048,2013
2044,2044,2043,2036,2064,2097,2054,2024
2051,2053,2050,2033,2054,2091,2038,2017
2046,2055,2044,2038,2038,2073,2028,2020
2049,2051,2044,2033,2027,2064,2013,2018
2043,2051,2039,2027,2026,2003,2004,2008
2032,2039,2039,2026,2020,1977,1996,2003
2028,2041,2034,2031,2026,2007,2004,2013
2041,2054,2041,2034,2038,2040,2033,2018
2040,2057,2041,2041,2047,2052,2030,2023
2049,2053,2035,2039,2049,2051,2051,2027
2050,2049,2038,2040,2051,2056,2038,2035
2045,2042,2040,2036,2053,2056,2026,2031
2039,2043,2040,2036,2052,2056,2009,2037
2037,2044,2042,2040,2062,2060,2040,2036
2042,2044,2042,2042,2071,2061,2040,2042
2039,2044,2046,2043,2071,2066,2035,2058
2040,2046,2046,2046,2066,2066,2021,2058
2038,2045,2044,2046,2066,2064,2028,2060
2038,2052,2043,2046,2068,2063,2041,2058
2039,2045,2044,2042,2072,2075,2044,2060
2033,2042,2043,2041,2073,2069,2026,2056
2030,2036,2039,2031,2067,2065,2012,2062
2032,2036,2034,2030,2048,2059,2014,2062
2040,2052,2039,2039,2045,2040,2030,2061
2041,2057,2043,2045,2055,2025,2040,2058
2041,2059,2046,2046,2059,2017,2035,2049
2043,2059,2043,2042,2065,2019,2031,2046
2043,2055,2041,2041,2061,2034,2055,2048
2046,2057,2041,2043,2034,2057,2068,2048
2057,2062,2047,2046,2052,2064,2082,2044
2050,2062,2046,2053,2064,2076,2094,2048
2047,2060,2049,2056,2054,2075,2076,2041
2051,2067,2045,2045,2030,2043,2054,2028
2045,2066,2040,2031,1987,2025,2061,2028
2046,2066,2042,2018,1997,2044,2056,2035
2049,2065,2041,2032,2028,2100,2078,2033
2053,2058,2041,2019,1983,2124,2068,2028
2044,2054,2038,2009,2008,2117,2069,2019
2038,2046,2029,2025,2057,2073,2051,2012
2041,2046,2040,2036,2074,2039,2024,2020
2040,2052,2044,2028,2042,1991,2024,2015
2038,2047,2039,2021,2055,1969,2004,2021
2042,2055,2038,2034,2064,2002,2033,2033
2045,2058,2043,2044,2064,2017,2023,2033
2048,2056,2051,2043,2056,2021,2024,2043
2043,2057,2049,2037,2031,2022,2003,2053
2048,2060,2052,2035,2029,2027,2048,2058
2053,2058,2054,2046,2050,2030,2060,2069
2052,2061,2055,2054,2052,2021,2063,2076
2060,2061,2057,2048,2055,2017,2047,2081
2053,2057,2054,2047,2055,2016,2027,2070
2050,2053,2051,2049,2064,2031,2033,2068
2043,2048,2038,2040,2068,2084,2052,2061
2025,2036,2033,2031,2063,2130,2037,2048
2017,2027,2024,2030,2067,2149,2032,2052
2027,2028,2028,2040,2069,2081,2042,2064
2041,2049,2042,2040,2062,2046,2028,2056
2046,2052,2045,2041,2066,2038,2037,2055
2042,2052,2045,2044,2072,2070,2038,2054
2043,2050,2048,2043,2065,2071,2066,2050
2048,2050,2038,2037,2054,2060,2064,2045
2029,2045,2038,2036,2039,2057,2064,2026
2039,2044,2046,2036,2046,2070,2056,2032
2043,2051,2043,2039,2056,2075,2062,2033
2050,2057,2043,2042,2054,2067,2072,2035
2049,2052,2047,2034,2054,2061,2035,2027
2040,2044,2039,2039,2046,2067,2045,2027
2045,2044,2040,2034,2044,2058,2035,2012
2037,2048,2041,2032,2043,2045,2039,2013
2033,2042,2035,2032,2039,2049,2045,2002
2032,2035,2030,2030,2042,2047,2047,2003
2031,2035,2033,2034,2051,2061,2059,2008
2036,2036,2038,2045,2056,2060,2041,2011
2034,2041,2040,2041,2053,2047,2035,2013
2038,2038,2039,2038,2056,2043,2045,2017
2044,2043,2046,2039,2054,2032,2056,2018
2043,2042,2046,2041,2056,2043,2025,2022
2038,2040,2050,2043,2064,2044,2034,2032
2035,2039,2049,2045,2068,2050,2056,2043
2041,2040,2052,2048,2072,2058,2060,2052
2045,2043,2045,2049,2071,2073,2058,2053
2046,2046,2048,2047,2081,2082,2059,2064
2045,2043,2050,2051,2076,2071,2049,2062
2043,2044,2049,2043,2053,2052,2081,2079
2048,2050,2049,2043,2050,2047,2074,2080
2048,2057,2046,2045,2057,2062,2092,2087
2057,2051,2041,2045,2062,2056,2100,2088
2048,2050,2044,2038,2045,2050,2059,2089
2050,2055,2045,2041,2046,2037,2041,2086
2053,2053,2046,2043,2040,2033,2030,2073
2049,2053,2047,2032,2039,2032,2022,2068
2046,2050,2041,2029,2030,2035,2052,2065
2047,2054,2047,2022,2013,2032,2040,2060
2049,2057,2044,2024,2017,2053,2060,2047
2044,2053,2045,2033,2024,2073,2046,2039
2048,2058,2045,2032,2033,2087,2048,2036
2052,2057,2043,2034,2051,2126,2088,2031
2053,2062,2045,2041,2063,2121,2055,2024
2054,2062,2046,2052,2068,2098,2057,2019
2050,2054,2046,2053,2067,2093,2045,2008
2045,2051,2045,2049,2054,2088,2031,2010
2046,2046,2044,2040,2048,2126,2021,2014
2041,2045,2041,2043,2055,2146,2019,2013
2038,2042,2030,2038,2051,2118,2049,2021
2038,2038,2031,2035,2036,2031,2035,2013
2040,2046,2038,2041,2031,1994,2048,2017
2039,2052,2042,2042,2033,1926,2034,2016
2036,2048,2043,2038,2030,1936,2027,2014
2034,2046,2046,2038,2036,1981,2028,2020
2038,2049,2047,2041,2045,2009,2034,2034
2040,2050,2047,2048,2057,2045,2036,2039
2044,2055,2050,2043,2062,2051,2015,2043
2044,2052,2050,2044,2050,2050,2033,2052
2045,2056,2054,2042,2043,2058,2034,2053
2045,2061,2049,2044,2056,2057,2040,2052
2041,2055,2049,2048,2074,2054,2030,2054
2041,2053,2045,2042,2092,2032,2039,2062
2044,2054,2049,2045,2111,2035,2036,2067
2047,2056,2055,2048,2127,2040,2052,2078
2046,2050,2047,2048,2122,2047,2026,2071
2037,2039,2042,2044,2112,2051,2031,2063
2029,2051,2040,2036,2106,2050,2032,2062
2032,2051,2041,2042,2092,2052,2059,2058
2040,2055,2041,2047,2078,2064,2049,2058
2040,2051,2037,2040,1976,2064,2054,2047
2042,2046,2038,2039,1939,2058,2059,2047
2054,2047,2042,2040,1995,2066,2061,2043
2050,2049,2048,2045,2016,2064,2063,2042
2054,2057,2058,2054,2045,2063,2062,2033
2045,2052,2053,2055,2054,2063,2034,2023
2049,2049,2051,2056,2062,2057,2033,2025
2045,2049,2053,2043,2027,2050,2031,2029
2048,2052,2052,2030,1975,2039,2032,2027
2053,2053,2050,2024,1995,2024,2018,2024
2047,2054,2052,2031,2026,2033,2032,2021
2047,2057,2052,2047,2019,2044,2042,2018
2044,2046,2050,2047,2037,2028,2038,2011
2032,2037,2039,2037,2020,2022,2050,2007
2035,2051,2051,2044,2007,2013,2055,2012
2042,2053,2046,2050,2003,1984,2043,2029
2043,2054,2053,2048,2002,1976,2060,2036
2042,2053,2056,2049,2014,2005,2085,2044
2043,2060,2054,2057,2011,2035,2101,2049
2049,2057,2058,2059,2010,2034,2067,2053
2052,2054,2052,2051,2009,2035,2058,2050
2054,2052,2048,2046,1994,2033,2056,2060
2052,2047,2044,2042,2013,2058,2077,2059
2052,2047,2046,2047,2074,2090,2069,2071
2048,2047,2046,2050,2110,2108,2074,2074
2044,2046,2044,2049,2086,2052,2048,2058
2037,2039,2039,2048,2064,1983,2034,2058
2036,2043,2038,2044,2036,2003,2041,2061
2037,2027,2025,2036,2035,2066,2041,2053
2026,2021,2025,2036,2044,2101,2051,2051
2025,2029,2034,2042,2034,2062,2039,2048
2029,2036,2038,2045,1996,2003,2020,2047
2032,2041,2038,2034,1955,1986,2022,2044
2035,2042,2041,2026,1954,1982,2012,2038
2032,2046,2034,2030,1971,1990,2017,2029
2038,2040,2028,2032,1977,2016,2028,2020
2040,2048,2037,2036,2006,2043,2042,2025
2049,2050,2053,2060,2042,2069,2052,2042
2059,2056,2053,2068,2077,2084,2074,2047
2056,2055,2054,2072,2097,2087,2063,2036
2056,2059,2053,2060,2078,2064,2053,2026
2048,2053,2045,2048,2056,2043,2050,2020
2050,2048,2043,2047,2082,2049,2044,2017
2046,2049,2044,2049,2089,2049,2053,2020
2046,2047,2048,2052,2078,2044,2060,2017
2038,2040,2039,2046,2066,2067,2073,2017
2047,2042,2035,2049,2051,2080,2071,2029
2051,2048,2042,2050,2046,2053,2071,2025
2057,2052,2049,2060,2085,2054,2053,2025
2053,2054,2050,2065,2105,2073,2044,2023
2051,2051,2047,2065,2074,2105,2046,2028
2054,2044,2050,2054,2058,2102,2062,2032
2052,2045,2054,2059,2054,2079,2064,2039
2050,2055,2054,2063,2058,2062,2057,2038
2054,2057,2050,2057,2051,2046,2044,2041
2048,2058,2054,2059,2049,2032,2044,2045
2050,2054,2056,2055,2058,2026,2041,2053
2034,2048,2053,2055,2072,2031,2018,2051
2026,2048,2050,2053,2060,2008,2047,2059
2034,2045,2046,2054,2057,1996,2046,2064
2040,2049,2045,2055,2049,1988,2045,2063
2043,2034,2045,2046,2033,1972,2032,2061
2032,2040,2037,2041,2022,1973,2032,2066
2042,2036,2040,2045,2024,1981,2041,2063
2045,2039,2040,2045,2021,1982,2038,2061
2046,2040,2037,2040,2022,2001,2050,2053
2038,2042,2039,2055,2068,2035,2032,2052
2033,2043,2036,2058,2076,2073,2036,2038
2036,2043,2042,2061,2061,2097,2032,2025
2036,2049,2050,2064,2046,2103,2056,2039
2047,2058,2052,2065,2045,2104,2052,2037
2047,2062,2053,2064,2044,2084,2058,2026
2042,2062,2053,2056,2031,2054,2053,2026
2044,2054,2049,2036,1997,2027,2045,2020
2047,2049,2046,2042,2039,2031,2045,2031
2048,2045,2054,2058,2057,2046,2059,2033
2048,2052,2049,2054,2057,2046,2058,2033
2048,2052,2045,2057,2053,2042,2053,2025
2036,2044,2043,2051,2043,2034,2040,2023
2040,2045,2039,2050,2049,2041,2057,2030
2051,2062,2053,2063,2052,2043,2063,2032
2053,2062,2052,2064,2053,2038,2037,2035
2054,2063,2055,2064,2054,2037,2045,2039
2047,2061,2054,2058,2039,2038,2038,2045
2048,2053,2050,2058,2032,2038,2054,2045
2049,2067,2054,2058,2039,2039,2045,2050
2052,2060,2055,2060,2040,2039,2041,2053
2049,2056,2051,2059,2025,2042,2040,2053
2047,2053,2051,2058,2049,2052,2044,2058
2051,2055,2049,2060,2058,2066,2049,2059
2050,2059,2055,2064,2068,2056,2061,2071
2048,2058,2058,2063,2063,2046,2057,2075
2052,2050,2050,2061,2058,2051,2061,2076
2048,2050,2049,2058,2060,2052,2050,2081
2046,2050,2043,2047,2054,2042,2037,2075
2040,2041,2039,2039,2060,2041,2029,2070
2042,2049,2044,2052,2077,2054,2059,2074
2054,2054,2048,2057,2089,2070,2055,2069
2053,2054,2049,2060,2076,2075,2066,2064
2050,2050,2045,2067,2068,2097,2070,2055
2046,2053,2047,2060,2062,2094,2072,2054
2045,2057,2045,2061,2058,2083,2070,2052
2044,2049,2042,2061,2050,2103,2072,2042
2047,2043,2039,2048,2034,2092,2077,2038
2046,2046,2040,2044,2015,2072,2057,2046
2045,2044,2041,2040,2016,2064,2046,2042
2049,2047,2045,2042,2041,2074,2054,2042
2051,2053,2043,2050,2049,2063,2044,2034
2055,2060,2051,2053,2048,2038,2047,2029
2058,2059,2056,2052,2045,2009,2048,2028
2054,2050,2051,2049,2037,1994,2053,2027
2047,2044,2044,2046,2040,2011,2042,2020
2044,2036,2039,2048,2048,2031,2041,2016
2048,2050,2051,2059,2060,2048,2049,2026
2046,2049,2048,2063,2064,2052,2059,2033
2052,2056,2056,2065,2062,2048,2044,2033
2056,2062,2052,2067,2063,2048,2056,2033
2060,2056,2058,2068,2067,2048,2058,2037
2055,2055,2057,2067,2070,2054,2048,2048
2047,2055,2054,2057,2062,2044,2049,2047
2046,2051,2052,2059,2056,2048,2045,2062
2052,2051,2049,2056,2054,2051,2048,2065
2050,2047,2053,2053,2040,2045,2062,2068
2056,2040,2044,2048,2034,2043,2069,2069
2052,2041,2046,2045,2022,2033,2058,2063
2045,2039,2046,2045,2021,2035,2049,2066
2044,2043,2041,2045,2043,2040,2038,2075
2047,2041,2045,2047,2037,2035,2046,2070
2045,2030,2036,2039,2031,2028,2022,2067
2034,2034,2034,2037,2021,2029,2030,2070
2044,2049,2037,2040,2022,2029,2021,2062
2043,2045,2049,2043,2033,2038,2041,2062
2044,2049,2048,2051,2052,2045,2050,2064
2046,2053,2045,2054,2066,2052,2055,2067
2047,2056,2044,2060,2083,2060,2057,2063
2056,2062,2050,2064,2084,2068,2055,2057
2055,2060,2052,2060,2077,2060,2064,2058
2062,2058,2051,2057,2056,2054,2063,2045
2059,2060,2050,2049,2045,2036,2058,2043
2060,2054,2046,2044,2041,2038,2053,2044
2055,2051,2047,2048,2052,2034,2045,2035
2056,2045,2054,2058,2054,2036,2039,2038
2056,2053,2054,2061,2049,2035,2053,2033
2057,2046,2054,2054,2057,2038,2038,2026
2060,2052,2053,2053,2058,2039,2037,2029
2055,2041,2046,2050,2053,2031,2029,2029
2052,2041,2047,2049,2057,2033,2053,2033
2061,2055,2057,2054,2061,2042,2045,2040
2054,2057,2063,2062,2055,2045,2063,2038
2058,2049,2056,2058,2062,2046,2055,2039
2053,2053,2057,2059,2060,2035,2064,2044
2051,2052,2052,2063,2051,2043,2072,2051
2057,2052,2058,2057,2049,2062,2068,2061
2058,2054,2059,2057,2052,2062,2074,2057
2063,2053,2060,2054,2055,2060,2068,2065
2056,2057,2059,2054,2050,2052,2063,2065
2055,2055,2064,2049,2043,2042,2062,2068
2046,2044,2048,2051,2041,2036,2038,2068
2042,2050,2052,2043,2041,2032,2037,2068
2048,2045,2052,2043,2050,2044,2020,2073
2052,2047,2054,2052,2053,2064,2056,2078
2053,2038,2046,2046,2052,2052,2054,2068
2048,2038,2042,2046,2050,2042,2050,2067
2051,2045,2053,2049,2053,2041,2063,2064
2052,2049,2054,2051,2056,2058,2065,2071
2050,2052,2053,2050,2062,2047,2060,2067
2051,2045,2049,2049,2053,2039,2049,2063
2060,2049,2051,2055,2051,2035,2041,2064
2056,2043,2054,2050,2043,2054,2057,2056
2056,2041,2051,2049,2041,2063,2061,2060
2059,2044,2056,2049,2047,2088,2051,2051
2054,2043,2050,2050,2042,2102,2071,2044
2057,2051,2053,2048,2031,2108,2065,2049
2051,2041,2051,2043,2037,2108,2063,2046
2060,2056,2051,2053,2049,2050,2049,2038
2060,2052,2053,2051,2053,1960,2063,2037
2056,2056,2056,2054,2067,1992,2065,2040
2058,2052,2055,2060,2067,2044,2071,2032
2058,2039,2050,2057,2065,2064,2057,2033
2061,2045,2054,2056,2068,2077,2076,2049
2062,2061,2060,2057,2056,2083,2081,2042
2066,2051,2061,2056,2052,2068,2063,2036
2060,2056,2052,2048,2049,2024,2055,2036
2054,2051,2057,2049,2030,2010,2051,2044
2055,2047,2052,2041,2031,2042,2053,2047
2056,2051,2054,2043,2040,2100,2058,2058
2059,2050,2054,2041,2035,2134,2085,2069
2051,2045,2053,2039,2035,2150,2079,2067
2056,2050,2048,2041,2045,2173,2092,2071
2054,2047,2052,2050,2041,2135,2072,2070
2053,2046,2053,2050,2035,2022,2053,2076
2047,2050,2057,2051,2022,1947,2039,2067
2058,2053,2060,2046,2006,1949,2016,2072
2059,2057,2062,2044,2004,1931,2005,2070
2052,2052,2055,2034,1991,1911,1970,2067
2047,2042,2046,2031,1994,1948,2008,2073
2051,2046,2047,2034,2008,1983,2015,2077
2062,2064,2056,2043,2018,1998,2014,2064
2060,2065,2060,2044,2030,1991,1998,2070
2055,2066,2058,2054,2034,2013,2012,2058
2058,2061,2051,2058,2050,2057,2030,2052
2054,2057,2052,2055,2069,2098,2026,2054
2053,2049,2051,2054,2091,2100,2050,2047
2052,2043,2045,2051,2101,2094,2046,2041
2054,2040,2044,2054,2090,2085,2036,2043
2057,2042,2041,2057,2080,2085,2066,2041
2059,2042,2049,2057,2079,2084,2062,2033
2050,2041,2049,2052,2080,2081,2065,2035
2045,2036,2046,2056,2081,2074,2055,2034
2050,2042,2045,2061,2084,2075,2061,2024
2049,2042,2049,2054,2083,2067,2046,2026
2045,2038,2041,2048,2045,2051,2042,2023
2042,2029,2038,2038,2006,2030,2044,2018
2042,2033,2045,2043,2020,2030,2041,2032
2048,2042,2049,2045,2033,2033,2066,2033
2052,2042,2053,2046,2036,2038,2072,2035
2049,2041,2053,2046,2048,2041,2072,2042
2050,2042,2054,2050,2053,2045,2076,2039
2049,2046,2053,2050,2058,2052,2070,2049
2054,2052,2051,2055,2059,2047,2061,2055
2056,2056,2056,2055,2055,2045,2061,2060
2060,2056,2056,2053,2056,2051,2057,2070
2056,2055,2059,2047,2058,2053,2044,2072
2053,2058,2052,2050,2055,2057,2055,2078
2051,2055,2056,2051,2059,2059,2051,2081
2048,2049,2054,2053,2064,2060,2052,2084
2040,2044,2059,2055,2058,2057,2062,2089
2047,2051,2057,2056,2062,2060,2057,2086
2041,2041,2049,2050,2045,2055,2045,2082
2046,2037,2053,2040,2047,2047,2037,2088
2050,2046,2056,2049,2046,2053,2044,2083
2050,2055,2059,2048,2034,2042,2046,2082
2061,2054,2058,2040,2030,2040,2050,2071
2049,2051,2058,2043,2021,2037,2029,2058
2048,2048,2058,2046,2024,2038,2024,2062
2049,2053,2059,2047,2043,2043,2038,2057
2053,2056,2055,2047,2056,2061,2057,2051
2055,2056,2056,2052,2053,2059,2052,2049
2059,2055,2048,2047,2040,2054,2054,2040
2057,2049,2049,2051,2041,2064,2051,2038
2056,2050,2053,2053,2046,2055,2046,2037
2053,2057,2060,2052,2055,2039,2044,2039
2058,2058,2056,2052,2054,2039,2031,2037
2059,2058,2059,2060,2049,2049,2063,2040
2058,2059,2062,2055,2056,2049,2064,2037
2046,2045,2049,2045,2045,2039,2053,2032
2047,2040,2048,2048,2038,2042,2060,2026
2056,2053,2049,2049,2045,2043,2047,2034
2053,2056,2053,2052,2045,2048,2049,2034
2054,2049,2050,2050,2043,2047,2064,2028
2049,2051,2051,2050,2038,2047,2064,2038
2054,2045,2056,2050,2043,2050,2062,2040
2053,2047,2050,2050,2045,2043,2036,2043
2047,2047,2048,2052,2040,2041,2030,2048
2054,2040,2044,2049,2040,2040,2042,2058
2049,2041,2043,2050,2045,2045,2068,2061
2051,2037,2045,2045,2045,2047,2076,2073
2042,2032,2046,2047,2049,2047,2072,2072
2037,2032,2044,2044,2046,2038,2056,2076
2033,2034,2046,2040,2039,2010,2052,2080
2035,2031,2043,2042,2029,1996,2042,2082
2040,2033,2043,2039,2058,1981,2024,2083
2040,2028,2037,2043,2089,1978,2010,2085
2040,2034,2046,2038,2095,1997,2039,2094
2055,2054,2057,2041,2100,2011,2044,2092
2058,2058,2054,2042,2100,2030,2034,2066
2050,2054,2060,2042,2086,2037,2059,2059
2050,2060,2061,2046,2106,2049,2052,2051
2051,2056,2066,2058,2099,2082,2042,2049
2057,2058,2064,2057,2050,2098,2041,2056
2057,2060,2067,2041,1924,2074,2046,2049
2061,2061,2061,2035,1930,2061,2068,2050
2066,2061,2063,2035,1986,2061,2055,2046
2059,2062,2060,2055,2026,2062,2053,2039
2058,2054,2064,2056,2037,2060,2056,2041
2052,2056,2062,2054,2047,2056,2052,2036
2052,2053,2055,2044,2027,2049,2051,2030
2054,2054,2054,2034,1978,2046,2054,2032
2054,2052,2046,2025,1974,2034,2031,2027
2043,2040,2044,2027,2001,2040,2041,2030
2047,2050,2054,2040,2025,2057,2068,2037
2052,2053,2060,2045,2040,2069,2054,2039
2051,2052,2058,2057,2049,2068,2048,2040
2053,2050,2056,2046,2050,2061,2063,2042
2053,2049,2059,2048,2044,2059,2060,2040
2055,2050,2057,2056,2041,2065,2025,2048
2054,2052,2064,2053,2048,2066,2041,2046
2057,2055,2059,2052,2053,2073,2048,2052
2060,2061,2062,2057,2061,2075,2062,2058
2066,2058,2054,2051,2066,2070,2039,2060
2057,2056,2057,2054,2064,2059,2050,2065
2048,2049,2047,2047,2058,2054,2060,2079
2051,2045,2047,2050,2043,2039,2061,2081
2050,2043,2047,2049,2040,2039,2045,2083
2051,2047,2051,2052,2047,2032,2057,2076
2043,2033,2042,2044,2035,2025,2042,2068
2046,2038,2040,2044,2027,2022,2040,2082
2047,2050,2055,2051,2036,2032,2050,2076
2053,2050,2057,2051,2040,2039,2046,2071
2055,2052,2052,2042,2031,2034,2047,2072
2050,2049,2051,2047,2032,2032,2059,2069
2048,2048,2049,2052,2036,2034,2051,2064
2054,2053,2049,2051,2035,2029,2052,2059
2057,2051,2052,2045,2038,2033,2042,2057
2055,2055,2054,2050,2035,2035,2047,2054
2052,2054,2053,2049,2045,2042,2023,2048
2054,2054,2056,2047,2045,2036,2049,2044
2059,2049,2052,2051,2046,2035,2062,2038
2052,2055,2051,2051,2049,2029,2042,2037
2053,2052,2051,2047,2046,2032,2045,2034
2054,2054,2051,2047,2052,2044,2034,2033
2047,2052,2053,2054,2055,2041,2032,2035
2039,2041,2043,2044,2053,2035,2033,2024
2039,2036,2044,2042,2053,2039,2029,2038
2047,2048,2045,2051,2064,2051,2051,2041
2044,2050,2050,2057,2068,2057,2058,2044
2054,2055,2051,2054,2066,2057,2039,2052
2055,2048,2050,2056,2056,2056,2052,2058
2054,2049,2052,2053,2052,2047,2056,2061
2049,2052,2052,2052,2061,2042,2040,2060
2047,2049,2051,2052,2057,2034,2033,2063
2046,2049,2050,2052,2049,2040,2033,2060
2043,2046,2050,2054,2054,2065,2079,2064
2044,2046,2052,2047,2049,2077,2075,2061
2042,2037,2050,2043,2040,2070,2070,2066
2039,2036,2044,2040,2032,2068,2052,2064
2039,2037,2050,2042,2040,2071,2071,2070
2037,2037,2048,2040,2036,2077,2073,2070
2036,2040,2040,2041,2042,2087,2055,2073
2036,2033,2043,2042,2034,2086,2044,2067
2034,2035,2042,2045,2043,2086,2054,2066
2040,2040,2050,2046,2049,2046,2056,2065
2040,2042,2050,2048,2043,2008,2041,2063
2045,2045,2047,2050,2041,2014,2058,2062
2044,2038,2047,2051,2044,2026,2056,2057
2043,2045,2050,2056,2047,2034,2044,2052
2043,2048,2047,2061,2047,2037,2022,2053
2041,2041,2045,2058,2046,2047,2038,2043
2044,2050,2043,2053,2056,2063,2059,2038
2048,2044,2050,2050,2050,2057,2060,2045
2051,2049,2048,2050,2037,2032,2063,2044
2043,2052,2051,2052,2045,2024,2064,2039
2051,2052,2046,2053,2036,2009,2040,2035
2052,2052,2052,2054,2032,2012,2052,2039
2059,2053,2051,2050,2014,2019,2037,2036
2051,2041,2041,2036,2008,2028,2037,2037
2054,2041,2043,2043,2008,2052,2053,2036
2056,2052,2054,2049,2020,2078,2070,2043
2068,2060,2057,2054,2020,2101,2082,2047
2068,2063,2057,2046,2027,2112,2062,2056
2064,2066,2054,2044,2031,2094,2065,2052
2059,2060,2052,2038,2014,1992,2078,2047
2055,2057,2049,2032,2008,1887,2045,2045
2049,2050,2047,2039,2019,1906,2042,2047
2053,2050,2053,2051,2045,1944,2037,2043
2044,2052,2053,2047,2043,1969,2055,2051
2046,2053,2049,2046,2047,2005,2061,2059
2050,2047,2051,2047,2068,2052,2064,2060
2052,2047,2056,2049,2091,2083,2056,2067
2049,2049,2052,2051,2086,2067,2040,2071
2045,2046,2049,2053,2079,2045,2025,2076
2043,2056,2054,2050,2061,2023,2018,2076
2037,2045,2045,2049,2056,2023,2019,2071
2041,2046,2042,2045,2056,2059,2045,2074
2047,2054,2052,2049,2067,2101,2049,2076
2049,2058,2047,2045,2076,2130,2056,2076
2045,2057,2051,2049,2064,2118,2060,2066
2044,2052,2042,2048,2058,2091,2074,2053
2045,2051,2043,2043,2051,2064,2054,2047
2050,2045,2044,2042,2047,2060,2063,2042
2049,2052,2045,2046,2053,2066,2063,2042
2051,2054,2049,2049,2045,2061,2058,2038
2057,2056,2046,2047,2044,2051,2041,2039
2053,2058,2046,2046,2043,2049,2026,2035
2052,2059,2045,2049,2050,2049,2032,2031
2051,2054,2044,2048,2051,2045,2039,2033
2054,2054,2042,2045,2048,2026,2036,2025
2051,2055,2050,2049,2048,2033,2034,2029
2052,2047,2047,2048,2049,2045,2019,2024
2049,2036,2034,2045,2042,2041,2018,2024
2043,2037,2038,2045,2048,2048,2037,2024
2045,2044,2043,2049,2055,2047,2044,2029
2048,2047,2044,2049,2046,2047,2046,2036
2054,2049,2049,2049,2051,2049,2069,2034
2047,2051,2046,2052,2053,2048,2050,2035
2044,2049,2046,2054,2064,2045,2038,2049
2044,2051,2045,2056,2059,2042,2049,2053
2047,2046,2045,2049,2055,2039,2036,2049
2045,2047,2047,2053,2053,2035,2054,2055
2047,2050,2044,2048,2057,2036,2052,2061
2054,2045,2043,2051,2058,2032,2053,2067
2056,2047,2042,2050,2054,2029,2045,2072
2045,2045,2042,2050,2055,2030,2035,2074
2049,2042,2038,2042,2054,2022,2034,2077
2049,2040,2040,2047,2046,2033,2045,2076
2048,2040,2032,2036,2036,2039,2050,2068
2042,2033,2029,2039,2037,2045,2049,2067
2046,2044,2044,2045,2038,2050,2044,2081
2055,2054,2051,2042,2054,2043,2037,2079
2059,2056,2048,2042,2052,2034,2043,2081
2054,2050,2050,2043,2063,2040,2066,2076
2049,2052,2048,2046,2061,2049,2068,2073
2056,2049,2046,2050,2049,2052,2027,2068
2052,2052,2054,2047,2044,2057,2026,2053
2057,2051,2048,2046,2049,2075,2050,2047
2056,2054,2052,2045,2052,2095,2049,2045
2061,2061,2051,2048,2049,2111,2055,2033
2059,2056,2052,2049,2037,2118,2041,2025
2046,2054,2049,2041,2018,2148,2034,2027
2058,2051,2045,2051,2006,2128,2031,2021
2056,2050,2048,2051,2012,2043,2015,2008
2045,2052,2051,2052,2024,1924,2006,2005
2044,2045,2047,2046,2041,1952,2019,2014
2039,2049,2047,2045,2054,2017,2028,2011
2044,2051,2048,2053,2078,2068,2043,2026
2043,2050,2046,2052,2078,2074,2054,2028
2040,2048,2050,2061,2062,2076,2069,2031
2047,2048,2049,2059,2049,2054,2065,2039
2052,2050,2049,2060,2050,2043,2071,2051
2061,2051,2044,2061,2049,2030,2064,2056
2048,2052,2052,2066,2042,2027,2054,2057
2050,2049,2047,2056,2052,2029,2062,2059
2043,2052,2052,2058,2046,2030,2068,2061
2051,2045,2048,2053,2051,2055,2070,2068
2050,2042,2048,2046,2057,2067,2067,2073
2045,2036,2049,2050,2038,2049,2068,2064
2045,2033,2048,2042,2015,2037,2063,2064
2040,2037,2043,2039,2009,2027,2034,2069
2045,2039,2047,2032,2010,2010,2050,2068
2039,2035,2036,2029,2010,2012,2061,2073
2037,2036,2036,2028,2015,2027,2049,2079
2045,2048,2047,2038,2026,2039,2064,2087
2053,2046,2042,2042,2033,2041,2066,2078
2059,2052,2043,2045,2034,2035,2069,2068
2054,2045,2048,2052,2039,2041,2055,2060
2047,2044,2046,2053,2044,2054,2077,2049
2049,2047,2044,2054,2054,2053,2059,2043
2049,2045,2046,2045,2041,2041,2049,2036
2049,2051,2050,2048,2035,2006,2036,2031
2049,2049,2050,2042,2033,1992,2019,2032
2050,2046,2046,2042,2026,2032,2038,2031
2051,2049,2046,2043,2035,2053,2052,2030
2053,2048,2045,2048,2041,2057,2055,2025
2049,2046,2047,2050,2040,2065,2059,2030
2053,2048,2044,2041,2040,2063,2060,2035
2049,2050,2051,2042,2035,2053,2042,2031
2047,2035,2049,2043,2037,2047,2038,2021
2043,2040,2037,2044,2043,2034,2049,2025
2052,2056,2045,2053,2050,2026,2050,2037
2051,2053,2052,2049,2054,2042,2054,2041
2051,2053,2052,2059,2062,2052,2048,2042
2050,2050,2048,2057,2064,2066,2056,2049
2052,2045,2047,2055,2059,2070,2057,2051
2051,2047,2050,2057,2061,2071,2042,2060
2053,2051,2046,2059,2059,2059,2034,2064
2048,2050,2046,2063,2044,2052,2035,2068
2048,2045,2048,2057,2051,2057,2054,2074
2050,2041,2048,2054,2052,2056,2037,2072
2054,2044,2046,2053,2049,2025,2038,2075
2046,2041,2040,2062,2043,1985,2045,2080
2044,2035,2036,2053,2043,1987,2047,2082
2050,2038,2036,2052,2036,2007,2068,2078
2040,2027,2026,2043,2028,2016,2022,2069
2036,2022,2023,2034,2022,2022,2021,2066
2030,2025,2030,2038,2025,2039,2043,2069
2042,2031,2040,2043,2045,2062,2061,2066
2043,2038,2033,2044,2047,2059,2054,2063
2050,2043,2031,2045,2058,2044,2072,2055
2050,2046,2042,2056,2052,2049,2070,2045
2047,2052,2043,2056,2062,2078,2065,2039
2046,2046,2038,2056,2050,2085,2072,2040
2041,2045,2042,2053,2034,2047,2057,2028
2043,2042,2032,2042,2033,2017,2051,2026
2038,2039,2035,2041,2042,2025,2047,2034
2042,2037,2036,2044,2035,2020,2041,2026
2039,2040,2041,2047,2024,2010,2031,2033
2044,2043,2039,2050,2027,2012,2033,2027
2041,2047,2039,2051,2041,2033,2057,2029
2051,2040,2040,2058,2036,2047,2068,2028
2046,2045,2041,2044,2038,2036,2063,2030
2051,2048,2043,2047,2034,2029,2081,2047
2060,2063,2054,2056,2044,2034,2075,2052
2069,2069,2056,2057,2042,2025,2077,2053
2071,2075,2056,2060,2039,2023,2073,2046
2072,2072,2057,2064,2058,2032,2052,2049
2061,2068,2054,2064,2058,2048,2057,2043
2055,2063,2046,2058,2060,2076,2064,2051
2060,2059,2053,2059,2056,2101,2075,2046
2053,2053,2045,2062,2060,2154,2083,2051
2054,2047,2047,2058,2066,2178,2071,2052
2053,2049,2051,2056,2053,2172,2072,2063
2060,2049,2046,2056,2052,2114,2054,2063
2058,2043,2044,2052,2039,1996,2048,2063
2056,2046,2042,2048,2044,1968,2038,2064
2056,2052,2041,2050,2037,2005,2037,2078
2058,2049,2050,2052,2036,2035,2043,2072
2051,2041,2038,2049,2032,2039,2032,2071
2055,2039,2038,2049,2040,2057,2065,2070
2057,2050,2044,2058,2043,2061,2078,2069
2056,2052,2049,2062,2043,2062,2072,2069
2059,2046,2048,2062,2046,2060,2058,2062
2058,2047,2043,2060,2045,2051,2056,2060
2052,2051,2045,2058,2044,2045,2045,2056
2057,2053,2048,2065,2035,2046,2050,2055
2055,2056,2051,2062,2023,2041,2054,2047
2054,2054,2046,2061,2017,2036,2018,2045
2053,2054,2045,2054,2014,2041,2049,2042
2060,2049,2046,2049,2026,2044,2060,2033
2051,2056,2041,2049,2050,2060,2059,2038
2056,2057,2040,2058,2069,2062,2055,2027
2057,2056,2042,2064,2064,2067,2052,2031
2053,2057,2044,2063,2061,2069,2053,2024
2059,2057,2042,2059,2057,2064,2057,2017
2043,2046,2036,2053,2057,2053,2031,2022
2048,2044,2045,2061,2064,2051,2038,2024
2059,2057,2046,2069,2065,2036,2043,2037
2062,2054,2047,2062,2054,2039,2065,2037
2056,2052,2053,2068,2058,2045,2042,2047
2059,2053,2047,2068,2046,2039,2062,2043
2061,2056,2045,2064,2038,2032,2065,2052
2058,2052,2047,2066,2039,2033,2039,2055
2061,2053,2053,2071,2055,2043,2061,2060
2060,2053,2054,2072,2064,2056,2067,2061
2061,2050,2051,2070,2062,2062,2061,2070
2058,2051,2048,2069,2056,2065,2069,2072
2058,2047,2042,2064,2043,2053,2051,2074
2046,2046,2044,2059,2037,2033,2039,2071
2050,2046,2041,2058,2042,2023,2036,2068
2047,2052,2040,2064,2044,2027,2019,2069
2049,2041,2040,2061,2059,2032,2012,2066
2043,2038,2039,2060,2065,2030,2028,2073
2047,2045,2046,2055,2063,2032,2037,2081
2051,2053,2047,2051,2039,2043,2042,2075
2047,2049,2040,2043,2007,2042,2034,2060
2053,2053,2044,2044,1997,2045,2039,2052
2057,2054,2043,2043,2008,2048,2056,2051
2059,2048,2039,2049,2028,2056,2054,2042
2052,2052,2044,2054,2040,2070,2046,2040
2060,2055,2039,2057,2043,2067,2044,2038
2062,2054,2042,2054,2047,2063,2045,2034
2059,2053,2041,2053,2047,2057,2050,2027
2059,2050,2048,2054,2043,2025,2045,2032
2055,2055,2047,2058,2043,2002,2046,2028
2054,2056,2048,2057,2042,2008,2036,2020
2054,2057,2046,2054,2033,2012,2035,2021
2052,2056,2041,2055,2035,2028,2039,2022
2054,2046,2037,2043,2036,2036,2036,2020
2054,2051,2036,2048,2045,2048,2036,2023
2057,2058,2042,2052,2050,2051,2051,2030
2056,2059,2049,2054,2050,2048,2053,2031
2055,2053,2044,2054,2055,2042,2049,2035
2054,2052,2043,2050,2048,2042,2048,2036
2058,2050,2051,2058,2050,2043,2054,2042
2056,2054,2049,2051,2049,2027,2047,2041
2052,2052,2053,2051,2047,2029,2050,2047
2055,2051,2046,2060,2044,2035,2050,2051
2056,2051,2053,2062,2048,2048,2054,2058
2049,2047,2051,2057,2056,2061,2049,2066
2051,2048,2043,2056,2056,2054,2027,2073
2052,2040,2044,2054,2050,2048,2040,2068
2050,2037,2042,2044,2048,2044,2041,2074
2050,2038,2047,2044,2052,2050,2040,2072
2045,2039,2044,2038,2040,2059,2049,2061
2036,2024,2031,2034,2028,2062,2035,2068
2036,2023,2030,2040,2038,2068,2039,2068
2044,2039,2042,2045,2041,2068,2042,2071
2050,2036,2041,2043,2037,2061,2040,2061
2047,2041,2042,2038,2035,2050,2050,2056
2040,2040,2043,2043,2025,2040,2039,2058
2048,2040,2043,2045,2020,2038,2021,2052
2049,2046,2045,2045,2013,2022,2041,2038
2045,2043,2036,2044,2016,2019,2034,2034
2054,2041,2039,2045,2020,2032,2045,2042
2052,2038,2043,2045,2021,2034,2046,2037
2052,2046,2050,2046,2014,2031,2044,2034
2056,2048,2047,2043,2012,2024,2057,2038
2052,2051,2047,2036,1999,2018,2048,2036
2049,2044,2045,2036,1984,2013,2052,2024
2048,2048,2048,2035,1997,2012,2041,2029
2048,2040,2041,2043,2052,2017,2001,2017
2039,2030,2030,2042,2087,2029,2003,2018
2042,2030,2035,2055,2127,2053,2044,2026
2044,2038,2040,2064,2144,2075,2068,2031
2047,2037,2037,2062,2142,2075,2071,2029
2053,2042,2042,2059,2122,2049,2059,2034
2049,2039,2046,2055,2108,2040,2054,2045
2046,2041,2053,2060,2110,2038,2045,2060
2054,2051,2051,2061,2051,2027,2068,2064
2058,2054,2057,2050,1967,2020,2068,2066
2059,2051,2055,2054,2011,2053,2082,2071
2061,2057,2061,2068,2049,2093,2089,2076
2065,2059,2061,2074,2063,2106,2088,2078
2065,2064,2062,2073,2087,2116,2085,2081
2058,2062,2067,2071,2104,2117,2084,2085
2053,2059,2057,2072,2102,2109,2078,2087
2050,2059,2054,2072,2093,2091,2065,2085
2051,2055,2045,2057,2053,1993,2025,2066
2045,2046,2045,2038,1987,1938,2018,2062
2042,2052,2049,2035,1970,1980,2024,2067
2050,2059,2051,2034,1997,2034,2050,2064
2047,2052,2050,2039,2013,2061,2057,2069
2049,2049,2044,2038,2025,2074,2054,2057
2052,2055,2047,2047,2030,2116,2045,2058
2051,2055,2058,2050,2036,2126,2041,2051
2052,2063,2055,2049,2035,2074,2045,2050
2053,2058,2052,2056,2034,1958,2015,2036
2059,2055,2056,2052,2029,1945,2005,2043
2057,2056,2052,2053,2041,2004,2009,2040
2056,2054,2052,2051,2035,2032,2035,2031
2059,2057,2048,2044,2024,2039,2044,2030
2054,2050,2045,2048,2031,2046,2050,2030
2052,2046,2047,2047,2030,2049,2064,2033
2048,2048,2038,2048,2028,2044,2044,2024
2046,2037,2034,2037,2017,2048,2046,2013
2041,2038,2040,2038,2013,2034,2040,2021
2047,2051,2042,2051,2029,2040,2042,2022
2053,2050,2042,2048,2036,2043,2022,2019
2051,2054,2046,2052,2045,2051,2048,2019
2050,2052,2043,2050,2062,2052,2037,2026
2049,2047,2039,2057,2067,2053,2054,2029
2049,2047,2045,2057,2059,2049,2058,2035
2051,2059,2049,2058,2057,2040,2052,2048
2059,2060,2051,2058,2052,2036,2056,2047
2059,2054,2055,2058,2065,2049,2060,2058
2050,2049,2048,2058,2066,2045,2060,2058
2044,2044,2045,2058,2061,2031,2041,2065
2042,2045,2046,2052,2058,2024,2024,2060
2035,2049,2045,2053,2064,2022,2035,2078
2037,2056,2046,2055,2060,2027,2046,2081
2041,2057,2044,2056,2050,2035,2042,2074
2042,2048,2038,2048,2045,2062,2044,2077
2043,2046,2036,2045,2046,2081,2043,2080
2045,2050,2043,2042,2038,2037,2024,2074
2053,2049,2041,2043,2012,1927,2018,2066
2047,2047,2037,2038,2010,1902,2023,2059
2049,2052,2044,2035,2012,1984,2047,2056
2053,2051,2040,2034,2009,2068,2047,2045
2044,2047,2037,2037,2013,2109,2051,2042
2040,2042,2040,2042,2024,2096,2036,2026
2039,2038,2033,2037,2016,2074,2057,2020
2036,2043,2031,2037,2031,2072,2055,2031
2045,2043,2036,2043,2049,2077,2074,2040
2039,2042,2037,2047,2047,2074,2067,2039
2045,2044,2041,2050,2040,2069,2063,2034
2047,2048,2045,2048,2045,2073,2051,2034
2038,2052,2043,2054,2045,2060,2077,2035
2045,2048,2038,2044,2043,2049,2058,2026
2043,2037,2035,2047,2051,2050,2071,2021
2041,2042,2041,2051,2052,2052,2072,2030
2050,2059,2042,2053,2046,2048,2066,2037
2045,2056,2048,2051,2052,2052,2051,2032
2049,2054,2048,2047,2054,2049,2060,2041
2051,2055,2047,2052,2068,2054,2041,2040
2051,2056,2049,2059,2079,2067,2078,2048
2055,2058,2044,2064,2075,2073,2073,2052
2054,2059,2048,2061,2063,2063,2081,2058
2052,2055,2046,2062,2068,2062,2066,2063
2052,2057,2050,2062,2067,2046,2062,2071
2051,2057,2047,2058,2056,2040,2050,2080
2053,2061,2050,2055,2049,2041,2055,2072
2054,2060,2046,2061,2041,2034,2064,2081
2053,2059,2048,2049,2040,2032,2045,2086
2047,2055,2045,2045,2034,2041,2051,2078
2045,2043,2038,2040,2023,2033,2034,2070
2041,2041,2036,2043,2030,2044,2030,2076
2041,2046,2041,2051,2053,2057,2058,2078
2041,2052,2046,2054,2071,2062,2053,2071
2042,2050,2046,2054,2064,2069,2050,2067
2045,2048,2049,2051,2056,2065,2055,2065
2048,2050,2050,2053,2056,2058,2044,2061
2050,2058,2046,2054,2056,2036,2054,2048
2048,2063,2046,2051,2057,2018,2063,2040
2053,2052,2046,2050,2049,2007,2048,2040
2047,2045,2044,2046,2032,1996,2029,2039
2045,2044,2043,2041,2026,2019,2026,2030
2043,2044,2039,2041,2031,2036,2040,2033
2049,2050,2047,2043,2028,2038,2034,2042
2051,2054,2048,2043,2024,2044,2052,2037
2055,2060,2053,2050,2031,2046,2059,2037
2057,2056,2048,2051,2030,2042,2051,2028
2045,2045,2038,2040,2036,2033,2062,2025
2040,2044,2035,2041,2043,2042,2039,2029
2049,2054,2046,2050,2045,2052,2071,2040
2054,2060,2046,2051,2051,2059,2059,2043
2051,2054,2045,2047,2049,2054,2071,2045
2051,2045,2046,2048,2046,2055,2066,2055
2053,2050,2046,2045,2052,2061,2071,2058
2048,2047,2046,2043,2046,2063,2085,2057
2049,2049,2044,2049,2046,2062,2089,2068
2047,2050,2042,2050,2036,2062,2089,2067
2044,2044,2046,2048,2047,2076,2093,2070
2047,2045,2048,2054,2052,2081,2097,2077
2050,2047,2043,2058,2056,2077,2093,2080
2044,2040,2043,2047,2043,2061,2087,2081
2043,2040,2044,2043,2037,2051,2052,2078
2040,2044,2043,2047,2035,2050,2067,2074
2028,2042,2044,2044,2041,2048,2053,2063
2030,2038,2041,2048,2042,2046,2051,2056
2034,2037,2042,2049,2046,2045,2051,2068
2049,2055,2053,2052,2051,2027,2039,2070
2044,2055,2047,2053,2038,2020,2028,2070
2049,2054,2051,2053,2033,2025,2042,2072
2045,2058,2049,2054,2036,2039,2044,2074
2050,2060,2046,2047,2029,2053,2052,2062
2047,2058,2046,2051,2040,2062,2060,2064
2049,2058,2051,2050,2036,2062,2067,2068
2060,2062,2055,2057,2042,2061,2057,2060
2061,2064,2052,2053,2048,2065,2050,2049
2061,2066,2052,2057,2047,2065,2038,2043
2057,2064,2049,2051,2034,2060,2044,2043
2044,2060,2048,2046,2021,2053,2057,2035
2049,2057,2040,2045,2026,2049,2058,2042
2050,2059,2041,2039,2046,2017,2049,2026
2049,2059,2038,2035,2045,1968,2033,2027
2034,2048,2036,2039,2041,1962,2029,2030
2042,2047,2040,2048,2037,2000,2042,2044
2048,2055,2050,2053,2047,2032,2055,2045
2053,2051,2047,2048,2065,2048,2044,2048
2048,2053,2045,2047,2056,2035,2045,2049
2054,2057,2047,2048,2032,2027,2064,2054
2046,2054,2049,2040,2030,2026,2068,2052
2046,2052,2051,2041,2030,2040,2065,2057
2048,2054,2047,2044,2043,2040,2068,2060
2047,2049,2041,2048,2045,2037,2070,2063
2042,2045,2046,2048,2057,2037,2063,2065
2041,2044,2047,2046,2055,2030,2060,2076
2045,2042,2042,2045,2045,2016,2053,2077
2041,2039,2045,2043,2050,2011,2044,2079
2042,2043,2046,2046,2057,2026,2056,2077
2045,2047,2046,2048,2070,2038,2040,2079
2037,2032,2043,2048,2064,2038,2050,2078
2036,2041,2039,2042,2060,2042,2050,2081
2042,2051,2051,2047,2059,2056,2065,2084
2039,2049,2050,2047,2049,2058,2038,2075
2042,2048,2042,2041,2047,2059,2035,2068
2044,2040,2045,2042,2042,2065,2038,2068
2047,2037,2046,2040,2046,2063,2042,2058
2039,2040,2048,2043,2042,2065,2031,2051
2045,2043,2048,2048,2054,2076,2030,2045
2047,2048,2045,2044,2060,2088,2025,2039
2047,2047,2050,2047,2060,2096,2035,2045
2047,2050,2046,2047,2059,2091,2020,2042
2043,2047,2054,2045,2054,2071,2018,2046
2050,2047,2046,2046,2045,2016,2033,2045
2049,2050,2050,2047,2047,1996,2044,2037
2052,2056,2052,2048,2061,2005,2025,2043
2047,2056,2053,2046,2060,2012,2025,2036
2044,2048,2045,2049,2060,2020,2034,2035
2046,2046,2037,2045,2046,2021,2038,2038
2049,2058,2051,2043,2037,2030,2056,2041
2051,2060,2047,2046,2036,2031,2042,2045
2053,2055,2053,2047,2044,2038,2036,2043
2045,2060,2054,2047,2056,2063,2054,2049
2047,2062,2049,2052,2058,2080,2053,2044
2044,2060,2051,2050,2063,2075,2068,2044
2056,2057,2057,2056,2056,2071,2052,2050
2056,2062,2053,2047,2057,2063,2049,2060
2049,2063,2053,2047,2053,2046,2051,2062
2047,2054,2054,2050,2045,2026,2049,2068
2046,2059,2052,2045,2050,2034,2034,2072
2044,2048,2048,2048,2045,2023,2031,2069
2040,2047,2050,2047,2038,2022,2037,2068
2042,2048,2046,2038,2036,2024,2044,2081
2043,2042,2046,2032,2025,2029,2037,2075
2039,2036,2036,2035,2024,2044,2050,2085
