CH1,CH2,CH3,CH4,CH5,CH6,CH7,CH8
2057,2053,2046,2038,2059,2042,2050,2036
2060,2056,2052,2031,2060,2039,2053,2045
2057,2061,2057,2031,2060,2036,2053,2044
2052,2062,2064,2034,2060,2036,2062,2057
2052,2059,2064,2033,2057,2043,2073,2058
2051,2064,2055,2035,2053,2039,2064,2068
2055,2055,2051,2034,2060,2038,2052,2071
2053,2048,2046,2039,2056,2035,2031,2074
2046,2046,2048,2037,2057,2036,2048,2085
2051,2045,2047,2043,2060,2039,2025,2077
2043,2038,2032,2032,2050,2033,2053,2068
2038,2040,2030,2032,2046,2035,2050,2072
2047,2043,2028,2032,2048,2044,2050,2070
2049,2047,2024,2037,2052,2044,2050,2062
2048,2046,2029,2037,2049,2051,2052,2067
2049,2044,2029,2034,2048,2057,2070,2062
2049,2049,2029,2036,2049,2054,2068,2051
2050,2053,2037,2036,2046,2052,2064,2047
2050,2052,2036,2038,2052,2052,2049,2046
2052,2053,2041,2041,2052,2059,2045,2037
2054,2057,2049,2047,2059,2068,2044,2029
2048,2059,2057,2049,2064,2072,2063,2027
2057,2063,2060,2054,2062,2081,2066,2035
2052,2058,2057,2047,2062,2083,2062,2029
2057,2056,2060,2049,2061,2078,2075,2027
2055,2050,2052,2046,2063,2076,2074,2029
2051,2045,2051,2041,2055,2058,2061,2023
2042,2037,2043,2042,2052,2042,2060,2016
2043,2046,2046,2048,2056,2043,2069,2024
2046,2047,2047,2053,2057,2049,2058,2019
2052,2047,2048,2052,2064,2045,2054,2024
2050,2056,2053,2050,2064,2050,2061,2024
2047,2052,2048,2047,2067,2051,2047,2032
2046,2048,2050,2049,2065,2043,2066,2028
2039,2049,2042,2046,2054,2041,2068,2032
2044,2044,2042,2045,2053,2045,2048,2037
2044,2045,2039,2049,2055,2052,2056,2037
2040,2039,2038,2046,2054,2044,2076,2053
2037,2039,2040,2049,2050,2037,2044,2053
2042,2041,2042,2047,2048,2037,2051,2056
2040,2041,2048,2050,2050,2044,2032,2060
2040,2040,2044,2051,2059,2052,2066,2064
2044,2036,2043,2040,2046,2041,2050,2059
2041,2038,2041,2036,2040,2038,2033,2071
2043,2046,2046,2045,2042,2040,2045,2072
2048,2053,2053,2040,2034,2036,2060,2064
2044,2046,2043,2036,2033,2030,2052,2060
2040,2037,2029,2028,2029,2022,2040,2056
2033,2035,2019,2027,2035,2019,2029,2055
2034,2038,2018,2026,2029,2020,2021,2051
2038,2041,2029,2033,2037,2030,2038,2045
2042,2046,2027,2031,2049,2038,2048,2043
2042,2046,2042,2040,2055,2045,2046,2035
2049,2051,2040,2033,2061,2046,2068,2034
2053,2047,2032,2036,2058,2056,2052,2034
2042,2045,2027,2030,2045,2053,2049,2029
2046,2045,2015,2023,2047,2043,2047,2027
2049,2042,2018,2034,2046,2050,2050,2025
2048,2050,2030,2036,2054,2045,2027,2027
2042,2055,2037,2044,2051,2044,2042,2023
2044,2060,2050,2047,2056,2052,2040,2019
2044,2063,2055,2052,2064,2050,2048,2021
2043,2067,2054,2058,2067,2052,2056,2029
2047,2063,2065,2060,2061,2056,2069,2035
2049,2059,2070,2065,2063,2055,2056,2043
2045,2056,2067,2065,2062,2044,2043,2034
2048,2056,2071,2066,2057,2041,2056,2043
2046,2060,2074,2068,2057,2047,2056,2047
2050,2058,2074,2072,2059,2050,2053,2054
2053,2060,2088,2074,2059,2049,2066,2060
2047,2065,2090,2072,2060,2047,2061,2067
2053,2065,2082,2069,2062,2050,2065,2078
2042,2065,2077,2068,2065,2052,2053,2076
2048,2061,2075,2071,2061,2049,2059,2074
2056,2060,2075,2072,2053,2045,2046,2082
2045,2045,2066,2065,2045,2042,2046,2077
2040,2047,2052,2058,2047,2038,2061,2074
2042,2050,2049,2047,2045,2039,2046,2066
2050,2054,2049,2042,2042,2040,2038,2063
2047,2051,2043,2035,2045,2045,2047,2060
2044,2049,2029,2027,2040,2044,2067,2056
2044,2043,2023,2019,2038,2039,2043,2050
2049,2046,2020,2019,2037,2035,2041,2047
2052,2049,2024,2032,2048,2032,2043,2043
2051,2055,2032,2033,2049,2036,2057,2042
2056,2052,2028,2039,2050,2046,2063,2039
2052,2046,2022,2037,2053,2048,2042,2035
2046,2044,2012,2031,2040,2048,2057,2024
2051,2045,2010,2022,2039,2059,2066,2027
2052,2050,2015,2018,2042,2070,2056,2025
2052,2052,2019,2018,2038,2063,2067,2022
2047,2033,2011,2022,2042,2083,2054,2016
2045,2040,2020,2033,2051,2088,2055,2026
2055,2054,2041,2048,2053,2077,2037,2020
2051,2055,2050,2057,2053,2087,2041,2021
2056,2051,2048,2061,2055,2093,2054,2029
2053,2048,2043,2061,2059,2093,2040,2031
2058,2047,2039,2059,2064,2100,2050,2036
2050,2047,2046,2057,2052,2112,2034,2042
2054,2047,2052,2054,2052,2096,2038,2041
2056,2054,2062,2058,2052,2036,2028,2047
2056,2053,2067,2051,2047,2024,2023,2046
2055,2055,2070,2053,2046,2034,2037,2055
2054,2052,2072,2049,2057,2044,2031,2062
2049,2056,2065,2043,2058,2047,2034,2056
2045,2052,2057,2036,2061,2034,2036,2059
2052,2056,2056,2018,2049,2012,2037,2060
2042,2047,2050,2016,2048,2006,2038,2066
2040,2051,2063,2026,2054,2005,2045,2070
2056,2068,2076,2033,2056,2012,2041,2073
2058,2074,2073,2042,2058,2028,2040,2069
2054,2064,2075,2049,2055,2033,2045,2057
2059,2061,2069,2048,2041,2038,2024,2056
2054,2060,2066,2037,2034,2037,2020,2047
2050,2058,2059,2032,2021,2039,2028,2041
2049,2062,2062,2040,2023,2036,2036,2043
2052,2058,2058,2038,2030,2034,2057,2042
2057,2059,2058,2038,2045,2032,2054,2035
2050,2058,2053,2033,2052,2040,2059,2031
2050,2058,2053,2040,2050,2038,2055,2025
2050,2056,2057,2048,2044,2035,2046,2027
2045,2045,2059,2055,2043,2032,2055,2027
2040,2049,2054,2049,2036,2023,2040,2020
2040,2041,2053,2047,2032,2016,2037,2010
2040,2036,2048,2046,2034,2027,2045,2012
2038,2041,2052,2055,2044,2041,2061,2025
2039,2048,2062,2058,2049,2045,2061,2021
2037,2052,2064,2066,2058,2046,2054,2013
2041,2054,2069,2068,2056,2052,2069,2021
2044,2057,2067,2074,2056,2045,2076,2025
2042,2052,2060,2075,2056,2051,2034,2027
2039,2050,2054,2077,2053,2050,2041,2034
2033,2050,2050,2073,2056,2049,2049,2029
2035,2046,2038,2069,2058,2047,2043,2038
2038,2045,2027,2062,2053,2048,2030,2044
2042,2038,2028,2054,2048,2049,2043,2056
2039,2040,2022,2051,2053,2056,2044,2059
2037,2046,2021,2046,2048,2062,2034,2070
2044,2043,2020,2037,2054,2058,2043,2075
2047,2039,2013,2041,2051,2056,2067,2076
2035,2031,2010,2028,2033,2048,2051,2076
2036,2030,2018,2024,2041,2052,2050,2072
2044,2043,2024,2029,2038,2054,2056,2071
2047,2052,2030,2022,2036,2053,2048,2069
2047,2054,2028,2024,2032,2047,2045,2072
2052,2061,2042,2024,2043,2049,2042,2064
2055,2071,2053,2034,2044,2048,2046,2057
2051,2069,2058,2039,2045,2047,2028,2052
2045,2060,2051,2037,2049,2047,2075,2050
2057,2059,2048,2043,2050,2042,2065,2046
2049,2059,2045,2046,2044,2040,2053,2035
2052,2055,2049,2044,2046,2045,2042,2034
2048,2057,2041,2046,2044,2045,2050,2030
2051,2054,2028,2041,2047,2050,2064,2031
2057,2049,2021,2042,2037,2047,2045,2026
2054,2048,2028,2042,2043,2041,2046,2026
2047,2052,2021,2047,2052,2038,2045,2020
2039,2035,2005,2044,2045,2037,2034,2009
2035,2027,1996,2045,2051,2041,2044,2018
2037,2036,2008,2057,2050,2046,2037,2017
2033,2040,2021,2065,2052,2051,2048,2028
2033,2042,2024,2076,2052,2055,2036,2029
2034,2045,2042,2078,2055,2058,2038,2037
2039,2050,2046,2080,2058,2061,2045,2039
2043,2052,2053,2079,2057,2050,2053,2044
2044,2051,2048,2081,2055,2042,2040,2047
2040,2048,2052,2071,2053,2039,2054,2049
2041,2040,2056,2068,2041,2034,2041,2054
2036,2039,2038,2056,2039,2029,2020,2051
2028,2036,2035,2040,2038,2030,2028,2061
2034,2040,2040,2035,2046,2041,2034,2067
2039,2046,2046,2039,2061,2054,2056,2070
2042,2058,2050,2044,2076,2058,2066,2082
2043,2050,2045,2030,2069,2052,2044,2074
2036,2045,2045,2030,2050,2050,2050,2075
2037,2046,2050,2021,2038,2050,2064,2072
2042,2046,2058,2007,2020,2034,2056,2066
2042,2042,2065,2011,1993,2020,2060,2069
2044,2046,2067,2010,1981,2010,2040,2058
2036,2043,2052,1995,1947,1990,2038,2050
2042,2035,2040,1982,1936,1994,2042,2036
2037,2041,2046,2003,1970,2035,2056,2034
2043,2052,2056,2030,2001,2053,2054,2029
2040,2054,2060,2035,2027,2072,2039,2029
2043,2056,2065,2051,2059,2101,2062,2024
2045,2059,2074,2063,2075,2088,2055,2031
2048,2059,2074,2069,2075,2048,2039,2032
2047,2055,2071,2074,2093,2052,2060,2034
2052,2049,2071,2085,2111,2066,2067,2042
2052,2053,2058,2081,2114,2071,2062,2032
2051,2041,2050,2074,2106,2064,2057,2027
2053,2037,2046,2065,2091,2059,2058,2031
2060,2044,2049,2068,2090,2061,2050,2035
2053,2049,2045,2071,2092,2062,2053,2034
2049,2041,2040,2073,2108,2065,2066,2036
2052,2058,2053,2070,2109,2060,2068,2039
2053,2059,2055,2073,2090,2053,2057,2039
2056,2057,2053,2064,2068,2046,2047,2043
2060,2057,2053,2050,2047,2033,2049,2046
2048,2053,2061,2044,2037,2028,2045,2039
2057,2053,2075,2046,2035,2030,2045,2043
2046,2054,2076,2045,2013,2028,2046,2058
2051,2055,2073,2038,2004,2019,2040,2062
2054,2056,2075,2042,2015,2026,2051,2073
2054,2056,2078,2043,2020,2022,2042,2073
2057,2048,2079,2044,2026,2024,2037,2071
2043,2040,2072,2041,2022,2021,2032,2069
2041,2041,2061,2040,2026,2020,2035,2071
2047,2050,2067,2047,2035,2025,2036,2070
2051,2052,2064,2053,2040,2031,2029,2058
2055,2051,2057,2062,2058,2037,2058,2060
2054,2056,2059,2068,2069,2038,2059,2050
2056,2054,2046,2067,2059,2040,2058,2046
2053,2047,2045,2066,2044,2045,2062,2041
2053,2059,2055,2067,2030,2054,2044,2034
2064,2064,2064,2064,2033,2061,2029,2035
2058,2074,2071,2063,2035,2066,2044,2035
2060,2075,2076,2053,2032,2065,2049,2023
2050,2065,2061,2061,2037,2049,2045,2026
2057,2058,2051,2064,2044,2037,2060,2026
2050,2056,2035,2047,2047,2042,2062,2026
2043,2049,2022,2054,2044,2046,2034,2023
2042,2041,2022,2058,2043,2043,2037,2019
2045,2039,2021,2058,2040,2044,2058,2024
2050,2055,2026,2058,2051,2052,2057,2031
2053,2058,2036,2051,2033,2060,2055,2025
2050,2057,2038,2044,2043,2066,2050,2026
2059,2056,2045,2042,2034,2066,2066,2030
2057,2061,2046,2032,2036,2061,2072,2039
2050,2057,2056,2029,2044,2064,2067,2044
2052,2049,2039,2014,2038,2063,2072,2045
2050,2046,2024,2007,2029,2056,2069,2052
2045,2040,2027,2016,2032,2052,2062,2056
2049,2041,2034,2028,2041,2058,2085,2064
2052,2047,2053,2039,2052,2061,2061,2074
2051,2049,2057,2040,2056,2058,2063,2070
2052,2052,2056,2040,2044,2057,2069,2075
2050,2057,2066,2045,2062,2055,2048,2076
2043,2042,2064,2050,2059,2053,2029,2070
2045,2038,2064,2048,2051,2048,2024,2080
2054,2049,2076,2054,2057,2052,2035,2077
2048,2057,2078,2062,2065,2057,2040,2069
2051,2066,2088,2072,2067,2058,2021,2064
2052,2075,2085,2071,2069,2061,2035,2066
2049,2064,2069,2052,2058,2055,2065,2058
2051,2055,2054,2045,2063,2052,2070,2045
2055,2051,2051,2049,2055,2054,2071,2042
2061,2054,2048,2049,2062,2054,2080,2043
2054,2053,2056,2047,2066,2057,2062,2040
2049,2054,2051,2036,2050,2058,2049,2040
2056,2046,2043,2027,2044,2059,2043,2030
2056,2043,2041,2019,2074,2057,2053,2029
2048,2036,2033,2013,2087,2057,2050,2021
2045,2040,2019,2002,2081,2055,2047,2019
2042,2023,2012,1999,2065,2050,2059,2013
2036,2020,2016,2002,2072,2049,2064,2018
2049,2041,2024,2014,2083,2055,2077,2024
2051,2048,2033,2030,2089,2050,2076,2027
2049,2054,2037,2041,2082,2055,2082,2036
2054,2053,2037,2037,2068,2058,2089,2031
2057,2050,2039,2033,2034,2052,2071,2031
2052,2049,2039,2030,1941,2037,2052,2037
2050,2046,2036,2022,1926,2037,2060,2042
2048,2044,2038,2015,1967,2046,2062,2044
2050,2048,2042,2018,2000,2053,2053,2053
2047,2046,2041,2025,2032,2066,2057,2056
2046,2044,2057,2038,2047,2077,2065,2064
2049,2060,2067,2037,2045,2078,2068,2066
2049,2060,2073,2044,2052,2077,2061,2067
2053,2059,2070,2042,2037,2053,2064,2080
2051,2058,2063,2042,2040,2019,2057,2084
2044,2051,2042,2050,2053,2026,2051,2076
2049,2058,2040,2060,2045,2049,2067,2074
2051,2054,2042,2058,2041,2057,2068,2073
2050,2052,2031,2061,2026,2051,2065,2070
2050,2043,2026,2059,2024,2045,2062,2067
2049,2037,2019,2048,2027,2042,2067,2064
2048,2033,2008,2041,2017,2042,2066,2063
2061,2045,2010,2041,2023,2041,2072,2059
2064,2056,2023,2053,2070,2044,2072,2056
2057,2051,2026,2056,2093,2053,2049,2042
2053,2043,2020,2054,2095,2062,2051,2043
2053,2046,2028,2072,2099,2071,2076,2035
2050,2040,2035,2080,2087,2080,2070,2031
2054,2047,2046,2076,2064,2067,2052,2022
2050,2043,2053,2072,2055,2060,2078,2024
2053,2051,2057,2065,2041,2051,2042,2026
2056,2047,2067,2044,1993,2033,2042,2012
2051,2039,2058,2013,1974,2030,2040,2018
2055,2049,2070,2033,2016,2050,2048,2040
2065,2063,2068,2042,2050,2064,2065,2044
2074,2072,2069,2048,2037,2048,2066,2051
2068,2062,2058,2036,1988,2030,2056,2037
2055,2050,2056,2025,1941,2003,2055,2034
2050,2037,2048,2005,1895,1994,2031,2035
2047,2029,2052,2003,1876,1999,2050,2040
2043,2045,2074,2028,1910,2031,2062,2047
2049,2068,2084,2053,1997,2044,2068,2052
2046,2076,2104,2075,2064,2059,2069,2067
2053,2078,2111,2082,2094,2079,2076,2074
2054,2077,2099,2089,2098,2074,2074,2072
2055,2075,2093,2093,2081,2058,2071,2073
2059,2072,2094,2113,2092,2049,2055,2073
2050,2060,2082,2119,2114,2047,2029,2069
2044,2050,2081,2127,2117,2046,2044,2073
2047,2056,2084,2127,2112,2051,2052,2060
2043,2059,2084,2120,2095,2064,2054,2054
2043,2053,2072,2090,2056,2064,2045,2051
2043,2058,2065,2076,2062,2073,2036,2053
2050,2062,2073,2068,2065,2077,2015,2044
2055,2064,2083,2065,2071,2082,2024,2043
2058,2072,2088,2076,2066,2088,2056,2045
2064,2075,2087,2078,2023,2089,2068,2052
2065,2069,2066,2069,2019,2087,2073,2047
2064,2058,2051,2064,2051,2064,2056,2054
2066,2052,2042,2069,2091,2034,2052,2041
2057,2040,2027,2054,2101,2034,2052,2030
2055,2034,2021,2050,2149,2058,2032,2025
2046,2031,2013,2053,2221,2066,2038,2025
2050,2036,1998,2054,2210,2065,2029,2016
2045,2033,1999,2045,2214,2053,2020,2009
2043,2041,2010,2019,2136,2031,2022,2011
2042,2040,2031,2013,2047,2026,2055,2020
2047,2045,2043,2013,1933,2016,2063,2028
2046,2050,2050,2034,1926,2025,2074,2037
2064,2061,2051,2052,1985,2045,2068,2042
2059,2061,2055,2052,2032,2064,2065,2050
2063,2059,2053,2055,2085,2090,2077,2059
2061,2058,2061,2053,2135,2102,2081,2058
2060,2056,2053,2041,2152,2119,2086,2057
2055,2050,2052,2020,2149,2136,2069,2059
2049,2041,2044,1992,2116,2152,2086,2062
2048,2047,2044,1980,2114,2155,2065,2068
2044,2042,2054,1987,2088,2138,2053,2068
2039,2043,2048,1991,1988,2078,2037,2075
2039,2036,2039,2009,1963,2010,2043,2075
2030,2031,2037,2020,2004,1947,2030,2081
2030,2034,2047,2016,1972,1928,2027,2073
2038,2047,2064,2007,1883,1952,2014,2071
2045,2061,2064,2013,1932,1987,2029,2067
2051,2062,2047,2023,1986,2007,2028,2060
2044,2051,2032,2013,1973,2008,2031,2047
2044,2043,2034,2005,1991,2021,2037,2041
2044,2046,2033,2013,2039,2029,2033,2033
2045,2046,2042,2023,2058,2029,2040,2033
2057,2057,2057,2036,2059,2032,2050,2028
2055,2065,2063,2037,2036,2040,2037,2022
2062,2060,2059,2039,2029,2040,2035,2025
2063,2063,2057,2032,2009,2042,2037,2022
2060,2062,2055,2022,1995,2034,2045,2023
2058,2068,2047,2022,1994,2037,2024,2026
2065,2066,2039,2024,2008,2051,2022,2024
2048,2046,2030,2029,2018,2057,2031,2018
2043,2052,2039,2045,2045,2068,2046,2025
2049,2061,2050,2061,2071,2073,2056,2033
2057,2063,2049,2067,2076,2070,2055,2042
2063,2062,2048,2061,2058,2067,2054,2042
2060,2053,2044,2059,2046,2060,2051,2046
2053,2054,2043,2065,2044,2050,2049,2044
2043,2037,2043,2070,2037,2040,2049,2040
2034,2025,2051,2079,2037,2023,2055,2037
2032,2025,2056,2084,2039,2021,2061,2047
2042,2039,2054,2103,2036,2018,2070,2050
2045,2038,2035,2088,2026,2014,2053,2043
2031,2029,2025,2096,2053,2036,2049,2052
2039,2034,2024,2103,2087,2057,2063,2068
2048,2038,2019,2111,2093,2051,2072,2073
2052,2033,2003,2095,2075,2033,2043,2073
2042,2027,1995,2072,2056,2018,2046,2062
2034,2019,1999,2062,2036,2017,2044,2065
2036,2035,2012,2079,2047,2023,2043,2067
2046,2050,2021,2078,2052,2029,2052,2065
2052,2056,2018,2077,2035,2033,2044,2058
2051,2049,2003,2071,1998,2026,2040,2041
2041,2039,1991,2064,1969,2017,2024,2039
2039,2034,1974,2047,1959,2016,2027,2030
2039,2033,1978,2036,1964,2014,2032,2028
2042,2033,1985,2042,1990,1998,2049,2032
2045,2040,1999,2051,2041,2010,2064,2028
2043,2039,2016,2058,2112,2048,2069,2032
2049,2031,2013,2049,2132,2064,2066,2037
2049,2026,2017,2036,2105,2072,2069,2033
2050,2028,2020,2015,2065,2068,2068,2033
2056,2033,2034,2024,2052,2062,2055,2031
2059,2049,2062,2014,2041,2064,2063,2024
2055,2043,2065,2009,2028,2070,2073,2028
2050,2045,2082,2011,2022,2070,2074,2035
2056,2052,2084,2004,2007,2062,2068,2039
2052,2058,2087,1995,1990,2058,2063,2036
2052,2051,2092,1995,1982,2046,2061,2032
2048,2049,2102,1993,1994,2039,2049,2033
2042,2049,2110,2009,2017,2030,2062,2038
2041,2050,2116,2024,2050,2027,2049,2045
2047,2054,2111,2039,2121,2028,2051,2043
2040,2046,2089,2025,2111,2019,2057,2054
2041,2050,2083,2017,2056,2018,2044,2058
2053,2062,2099,2028,2059,2035,2056,2069
2066,2074,2104,2046,2070,2040,2064,2078
2066,2075,2116,2050,2057,2056,2068,2083
2064,2071,2111,2050,1982,2058,2059,2072
2058,2054,2092,2043,1979,2064,2061,2069
2054,2044,2073,2054,2039,2072,2062,2075
2051,2042,2068,2064,2071,2061,2058,2077
2052,2043,2072,2068,2059,2060,2060,2077
2056,2049,2073,2087,2111,2073,2062,2078
2059,2059,2080,2103,2146,2082,2063,2073
2057,2065,2082,2099,2153,2083,2066,2071
2060,2057,2071,2101,2167,2091,2066,2064
2060,2058,2066,2102,2196,2114,2081,2056
2058,2059,2067,2090,2164,2122,2077,2056
2061,2055,2066,2054,2095,2123,2069,2047
2054,2050,2054,2024,1991,2097,2044,2031
2051,2047,2039,1990,1960,2078,2030,2024
2038,2037,2032,1982,2068,2073,2023,2018
2039,2041,2039,2019,2157,2082,2059,2029
2052,2052,2049,2041,2125,2064,2069,2035
2056,2058,2050,2023,2038,2014,2060,2039
2060,2054,2041,2013,2008,1975,2044,2033
2041,2041,2032,2019,2029,1983,2046,2031
2036,2030,2023,2046,2108,2005,2034,2021
2034,2026,2026,2051,2096,1998,2034,2019
2038,2040,2035,2047,1998,2018,2041,2029
2045,2057,2053,2062,2049,2041,2049,2031
2054,2060,2053,2065,2079,2046,2047,2032
2048,2055,2048,2057,2134,2053,2046,2034
2058,2049,2054,2044,2148,2043,2040,2039
2048,2039,2047,2025,2050,2021,2041,2042
2039,2034,2039,1998,1870,2020,2025,2038
2039,2032,2037,2006,1891,2038,2045,2044
2045,2033,2041,2047,2015,2044,2058,2056
2045,2040,2048,2052,2000,2049,2045,2068
2045,2042,2055,2066,2020,2062,2042,2072
2044,2044,2050,2065,2031,2044,2041,2074
2045,2053,2057,2058,2029,2013,2038,2078
2039,2048,2053,2040,1995,1995,2029,2085
2045,2048,2048,2030,1984,2014,2040,2089
2054,2061,2053,2035,1999,2031,2055,2083
2068,2068,2058,2032,2020,2054,2056,2073
2060,2056,2044,2034,2042,2057,2062,2060
2052,2044,2031,2020,2056,2059,2053,2050
2054,2041,2028,2035,2098,2076,2046,2042
2046,2037,2034,2037,2085,2082,2040,2038
2047,2038,2037,2051,2059,2075,2041,2035
2044,2035,2041,2053,2028,2076,2039,2030
2048,2036,2038,2045,1986,2066,2045,2031
2054,2034,2037,2029,1973,2026,2046,2046
2061,2043,2044,2038,2013,2024,2045,2050
2070,2048,2052,2055,2052,2060,2043,2053
2077,2048,2045,2050,2035,2078,2052,2043
2073,2046,2046,2041,2046,2070,2044,2032
2056,2035,2047,2037,2043,2055,2048,2034
2046,2034,2053,2035,2036,2036,2059,2040
2049,2041,2062,2026,2053,2019,2043,2034
2046,2035,2057,2039,2138,2041,2060,2041
2049,2032,2054,2062,2193,2047,2044,2042
2056,2035,2061,2066,2157,2036,2059,2044
2057,2052,2059,2065,2112,2023,2062,2042
2050,2047,2051,2056,2087,2023,2047,2040
2048,2041,2043,2069,2127,2053,2055,2045
2044,2042,2049,2082,2138,2078,2067,2052
2039,2038,2052,2085,2134,2080,2058,2051
2044,2035,2046,2069,2054,2055,2039,2060
2032,2031,2042,2054,1979,2043,2040,2060
2039,2037,2044,2050,1997,2056,2043,2071
2045,2040,2044,2047,2006,2066,2044,2065
2046,2035,2041,2049,2044,2070,2030,2069
2035,2026,2032,2051,2113,2081,2029,2058
2030,2026,2032,2041,2103,2074,2029,2060
2038,2037,2042,2026,2016,2055,2023,2059
2041,2042,2043,2022,1999,2051,2014,2057
2043,2042,2036,2032,2007,2056,2043,2049
2041,2038,2034,2050,2024,2036,2025,2046
2046,2039,2035,2064,2064,2006,2027,2051
2050,2040,2043,2069,2071,2005,2028,2048
2060,2054,2046,2060,2058,2012,2025,2049
2067,2060,2052,2057,2050,2022,2047,2046
2065,2059,2044,2054,2031,2019,2042,2035
2051,2050,2043,2045,2031,2022,2032,2030
2049,2052,2046,2054,2075,2041,2044,2026
2054,2049,2038,2056,2086,2044,2037,2028
2045,2040,2041,2052,2084,2057,2038,2020
2043,2046,2041,2065,2058,2066,2056,2024
2044,2030,2023,2047,2036,2079,2034,2021
2040,2026,2030,2051,2037,2091,2041,2030
2053,2040,2041,2056,2048,2088,2044,2034
2052,2050,2052,2062,2064,2093,2047,2040
2062,2056,2057,2066,2093,2101,2064,2037
2064,2060,2058,2062,2123,2096,2061,2050
2053,2051,2056,2065,2145,2090,2063,2060
2058,2047,2051,2054,2129,2058,2047,2054
2054,2039,2046,2032,2060,2019,2036,2048
2049,2038,2038,2033,2048,2027,2029,2049
2047,2045,2049,2056,2098,2032,2041,2053
2058,2048,2055,2071,2131,2054,2053,2067
2058,2041,2046,2066,2121,2051,2052,2071
2049,2034,2036,2057,2082,2032,2047,2076
2040,2025,2027,2054,2054,2035,2036,2082
2045,2029,2035,2047,2019,2069,2053,2075
2046,2034,2037,2044,1973,2072,2058,2070
2046,2038,2037,2036,1953,2077,2038,2072
2052,2037,2038,2045,1971,2086,2027,2068
2044,2035,2036,2041,1951,2075,2049,2069
2043,2037,2036,2049,1955,2039,2052,2060
2037,2039,2037,2059,2018,2025,2045,2062
2040,2037,2042,2061,2030,2029,2037,2053
2034,2041,2036,2060,2033,2037,2046,2045
2044,2046,2043,2065,2074,2024,2038,2038
2054,2050,2049,2077,2105,2023,2044,2035
2056,2041,2042,2081,2106,2027,2024,2032
2046,2041,2038,2074,2105,2020,2024,2033
2038,2035,2040,2071,2115,2007,2022,2034
2045,2039,2038,2077,2161,2013,2046,2038
2054,2050,2044,2079,2154,2026,2040,2043
2051,2055,2049,2078,2167,2035,2044,2035
2053,2049,2037,2068,2152,2038,2035,2026
2043,2033,2035,2051,2064,2023,2032,2029
2051,2043,2043,2035,1994,2004,2040,2023
2050,2043,2038,2020,1967,1977,2027,2028
2054,2038,2034,2025,1988,2005,2040,2030
2053,2042,2037,2035,1965,2042,2047,2033
2055,2049,2043,2051,1997,2062,2049,2036
2054,2057,2049,2060,2027,2100,2067,2043
2062,2062,2064,2069,2025,2136,2078,2050
2060,2064,2059,2056,2015,2134,2073,2052
2049,2058,2051,2046,1981,2120,2060,2043
2052,2058,2052,2033,1956,2098,2057,2051
2053,2056,2055,2045,1963,2019,2050,2068
2051,2055,2059,2042,1957,1954,2055,2080
2053,2053,2051,2041,1966,1957,2053,2078
2044,2038,2038,2016,1936,1973,2047,2070
2041,2032,2030,2007,1910,1976,2038,2064
2032,2031,2026,1993,1882,1994,2039,2061
2029,2023,2023,1985,1916,1986,2032,2053
2037,2029,2029,2000,1942,1979,2046,2056
2046,2041,2034,2041,2063,2005,2056,2061
2052,2037,2032,2054,2185,2019,2053,2058
2054,2039,2043,2069,2247,2067,2060,2059
2051,2038,2045,2076,2213,2074,2045,2058
2054,2041,2041,2062,2121,2051,2054,2054
2056,2033,2030,2041,2026,2013,2038,2036
2043,2034,2028,2051,2065,2007,2028,2029
2044,2035,2033,2066,2089,2032,2041,2025
2042,2034,2036,2070,2076,2051,2055,2017
2031,2030,2030,2066,2074,2047,2039,2015
2034,2032,2024,2070,2084,2066,2042,2014
2036,2034,2027,2073,2087,2080,2055,2020
2040,2042,2036,2070,2085,2057,2035,2015
2034,2031,2030,2061,2111,2036,2054,2009
2035,2029,2033,2069,2139,2035,2064,2021
2031,2038,2043,2072,2116,2035,2055,2019
2035,2036,2045,2061,2061,2041,2034,2020
2043,2038,2043,2045,2021,2046,2038,2024
2037,2041,2040,2042,2002,2055,2031,2028
2038,2042,2036,2036,2004,2047,2046,2028
2037,2035,2029,2039,2013,2052,2042,2036
2040,2037,2033,2044,2019,2047,2025,2050
2041,2036,2038,2044,2018,2049,2045,2052
2039,2039,2039,2047,2019,2040,2050,2056
2044,2040,2033,2048,2018,2029,2030,2065
2039,2039,2031,2038,2031,2031,2042,2066
2035,2035,2029,2050,2057,2042,2052,2060
2043,2048,2036,2075,2090,2063,2054,2070
2049,2054,2041,2082,2084,2052,2040,2063
2047,2053,2043,2065,2069,2056,2035,2077
2045,2057,2050,2066,2068,2057,2041,2076
2051,2058,2054,2066,2052,2050,2031,2070
2058,2060,2056,2057,2037,2047,2042,2065
2056,2055,2064,2058,2042,2046,2050,2056
2053,2050,2069,2057,2029,2043,2038,2060
2048,2055,2072,2066,2037,2047,2043,2053
2045,2054,2074,2072,2045,2054,2021,2043
2050,2052,2075,2062,2052,2057,2034,2035
2051,2053,2074,2059,2052,2051,2048,2027
2053,2048,2069,2062,2050,2061,2044,2026
2052,2053,2073,2065,2083,2072,2054,2017
2051,2060,2072,2076,2109,2072,2047,2010
2046,2056,2076,2085,2097,2069,2047,2006
2043,2046,2065,2070,2076,2053,2018,2013
2049,2043,2057,2057,2025,1992,2004,2016
2046,2039,2060,2062,1993,1950,2014,2017
2042,2049,2066,2050,1988,1952,1997,2023
2044,2048,2062,2035,1950,1967,2011,2016
2037,2038,2045,2020,1959,1994,2023,2020
2041,2027,2041,2033,2035,2028,2024,2019
2039,2028,2041,2054,2098,2057,2054,2020
2040,2031,2043,2061,2143,2077,2062,2031
2038,2030,2045,2064,2163,2090,2063,2042
2046,2037,2054,2076,2189,2114,2060,2047
2049,2048,2055,2068,2145,2123,2064,2051
2043,2047,2050,2064,2137,2142,2063,2059
2042,2049,2050,2066,2145,2172,2048,2056
2041,2043,2049,2056,2093,2172,2053,2050
2037,2041,2050,2043,2038,2162,2059,2060
2030,2044,2050,2040,2003,2154,2054,2055
2036,2049,2045,2041,1992,2116,2043,2040
2028,2038,2038,2038,1998,2008,2019,2038
2035,2043,2045,2050,2017,1930,2012,2053
2044,2057,2049,2055,2026,1955,2033,2055
2053,2062,2056,2054,2030,1996,2013,2067
2055,2060,2052,2060,2043,2030,2028,2072
2058,2061,2057,2056,2058,2040,2031,2068
2059,2063,2056,2063,2058,2041,2046,2054
2055,2061,2057,2062,2066,2042,2056,2050
2057,2060,2061,2062,2069,2053,2054,2044
2053,2057,2059,2058,2068,2056,2058,2029
2053,2045,2046,2055,2074,2052,2027,2029
2059,2050,2049,2062,2095,2062,2045,2028
2056,2060,2053,2064,2095,2070,2047,2020
2048,2058,2053,2057,2055,2058,2044,2018
2046,2054,2055,2061,2027,2044,2031,2011
2044,2050,2046,2054,1999,2029,2028,2002
2033,2029,2036,2042,1994,2044,2034,2004
2039,2038,2039,2048,2014,2067,2057,2012
2050,2050,2047,2067,2025,2082,2052,2033
2059,2058,2053,2067,2003,2059,2053,2032
2060,2059,2048,2059,1988,2026,2063,2034
2057,2059,2047,2055,2014,2026,2062,2041
2055,2054,2051,2068,2096,2076,2057,2056
2057,2060,2064,2090,2092,2102,2056,2064
2056,2064,2064,2088,2129,2108,2047,2066
2048,2060,2062,2089,2163,2082,2048,2082
2051,2057,2063,2094,2140,2020,2034,2089
2048,2054,2062,2083,2119,2002,2026,2084
2033,2054,2052,2066,2090,2010,2003,2086
2039,2054,2049,2045,2008,1997,2011,2094
2038,2044,2048,2033,1949,2007,2040,2109
2045,2045,2040,2020,1910,2012,2022,2106
2036,2037,2038,2012,1915,2030,2039,2110
2029,2031,2042,2019,1968,2051,2056,2116
2036,2040,2038,2027,2031,2068,2057,2125
2036,2042,2046,2041,2058,2080,2056,2124
2042,2052,2044,2049,2084,2091,2068,2119
2050,2051,2045,2064,2115,2098,2082,2118
2051,2040,2045,2067,2150,2104,2083,2106
2046,2045,2056,2075,2167,2111,2071,2097
2042,2042,2052,2070,2130,2110,2067,2088
2044,2043,2050,2058,2073,2094,2042,2085
2038,2040,2053,2053,2058,2082,2042,2066
2043,2045,2052,2060,2066,2074,2022,2067
2042,2044,2049,2064,2074,2060,2001,2069
2038,2048,2053,2058,2067,2039,1993,2064
2047,2050,2054,2058,2066,2030,1995,2069
2043,2042,2041,2050,2056,2041,1992,2060
2036,2036,2037,2044,2051,2056,2011,2059
2044,2042,2053,2051,2039,2052,2027,2064
2043,2044,2052,2045,2026,2054,2001,2065
2026,2036,2040,2030,2008,2062,2013,2062
2029,2027,2037,2029,2015,2072,2025,2063
2029,2031,2038,2037,2029,2034,2038,2060
2025,2021,2038,2041,2029,1993,2026,2064
2019,2019,2034,2045,2030,1991,2022,2083
2036,2024,2037,2048,2041,2010,2044,2097
2042,2037,2036,2052,2055,2029,2045,2113
2044,2041,2040,2057,2068,2041,2047,2125
2049,2046,2042,2064,2086,2056,2049,2128
2054,2043,2043,2067,2076,2050,2044,2137
2048,2044,2041,2070,2075,2047,2049,2138
2047,2051,2040,2061,2068,2044,2040,2128
2042,2043,2038,2051,2056,2031,2030,2124
2032,2039,2032,2052,2057,2032,2029,2128
2041,2050,2034,2059,2049,2034,2026,2132
2038,2050,2037,2061,2048,2040,2016,2131
2037,2051,2033,2052,2049,2055,2018,2113
2040,2047,2034,2055,2053,2074,2032,2108
2043,2049,2039,2052,2052,2084,2021,2103
2045,2051,2049,2059,2054,2101,2037,2099
2050,2053,2055,2058,2059,2100,2061,2100
2056,2060,2050,2054,2063,2102,2070,2096
2054,2057,2046,2046,2061,2095,2056,2093
2056,2050,2049,2045,2055,2065,2053,2091
2047,2049,2049,2049,2040,2059,2061,2085
2043,2050,2054,2051,2055,2043,2061,2089
2046,2049,2064,2054,2064,2036,2074,2086
2048,2048,2062,2050,2068,2026,2069,2085
2046,2041,2052,2046,2060,2016,2039,2079
2037,2037,2052,2042,2059,2017,2035,2069
2037,2042,2054,2049,2046,2005,2048,2069
2038,2047,2054,2054,2047,2007,2042,2071
2041,2049,2055,2045,2050,2028,2047,2072
2045,2045,2065,2047,2044,2046,2041,2072
2046,2056,2061,2054,2044,2045,2035,2073
2041,2057,2063,2050,2049,2027,2032,2078
2037,2054,2062,2057,2049,2017,2038,2081
2039,2051,2058,2057,2054,2036,2022,2081
2044,2055,2065,2053,2054,2060,2026,2087
2046,2062,2067,2053,2054,2078,2018,2101
2045,2067,2072,2060,2058,2068,2028,2112
2038,2063,2070,2057,2044,2045,2024,2110
2039,2056,2067,2057,2049,2051,2042,2111
2030,2053,2074,2052,2048,2049,2046,2120
2037,2050,2067,2053,2038,2040,2022,2110
2026,2034,2061,2045,2032,2042,2048,2109
2029,2041,2059,2052,2041,2051,2056,2105
2040,2047,2064,2056,2053,2055,2050,2109
2041,2048,2063,2064,2057,2056,2040,2106
2040,2048,2061,2065,2045,2051,2049,2104
2038,2048,2064,2069,2057,2046,2047,2094
2041,2045,2060,2068,2057,2052,2041,2085
2041,2045,2056,2069,2055,2052,2047,2080
2045,2040,2054,2070,2067,2046,2040,2078
2041,2039,2048,2070,2063,2044,2048,2075
2035,2041,2046,2065,2060,2042,2044,2067
2045,2036,2037,2057,2047,2028,2045,2062
2038,2040,2034,2063,2050,2029,2040,2063
2040,2041,2030,2062,2054,2017,2034,2065
2038,2042,2030,2061,2056,2021,2032,2061
2034,2035,2015,2050,2053,2012,2025,2049
2029,2025,2008,2048,2049,2007,2023,2051
2028,2024,2006,2044,2059,2026,2022,2059
2031,2030,2004,2028,2045,2042,2037,2050
2031,2030,1996,2018,2038,2041,2026,2046
2033,2032,2001,2017,2045,2047,2043,2056
2042,2046,2011,2020,2047,2061,2055,2063
2047,2054,2024,2026,2064,2072,2060,2075
2043,2056,2029,2032,2070,2071,2067,2082
2045,2054,2033,2037,2067,2064,2068,2086
2042,2047,2037,2041,2061,2054,2055,2086
2050,2049,2045,2039,2050,2050,2072,2094
2045,2053,2057,2048,2047,2055,2062,2094
2039,2053,2068,2045,2041,2059,2064,2097
2041,2051,2070,2044,2039,2066,2067,2105
2048,2054,2070,2042,2044,2065,2058,2100
2044,2049,2068,2031,2039,2071,2056,2095
2041,2044,2058,2036,2043,2070,2038,2093
2038,2053,2055,2035,2048,2070,2026,2102
2041,2056,2056,2034,2035,2044,2040,2103
2038,2046,2053,2033,2029,2030,2038,2094
2038,2050,2063,2039,2034,2035,2047,2086
2042,2057,2066,2044,2044,2049,2048,2081
2044,2055,2065,2046,2041,2056,2033,2076
2051,2060,2067,2047,2046,2060,2036,2078
2052,2057,2064,2047,2053,2067,2052,2064
2049,2052,2071,2055,2056,2072,2067,2064
2049,2051,2079,2055,2066,2073,2072,2064
2052,2057,2077,2057,2062,2073,2067,2057
2044,2054,2081,2056,2050,2061,2054,2059
2043,2052,2080,2046,2024,2043,2034,2053
2042,2046,2070,2038,2014,2034,2039,2046
2043,2045,2060,2035,1997,2008,2009,2035
2036,2040,2046,2020,2005,2017,2012,2036
2049,2047,2054,2034,2038,2045,2052,2044
2050,2062,2062,2052,2076,2044,2062,2051
2050,2064,2067,2060,2075,2043,2045,2056
2049,2058,2064,2055,2073,2055,2058,2053
2044,2058,2066,2055,2082,2068,2061,2057
2047,2064,2066,2058,2069,2067,2070,2065
2055,2055,2062,2050,2070,2062,2063,2073
2051,2053,2064,2052,2074,2063,2059,2071
2049,2050,2059,2055,2074,2060,2063,2080
2047,2051,2056,2056,2075,2061,2078,2087
2048,2051,2054,2059,2079,2052,2045,2088
2042,2049,2050,2058,2066,2051,2058,2089
2044,2044,2044,2052,2066,2044,2058,2090
2038,2045,2042,2050,2062,2038,2064,2088
2038,2033,2036,2047,2057,2031,2062,2084
2030,2033,2034,2046,2061,2037,2075,2093
2042,2043,2045,2050,2068,2035,2059,2089
2039,2043,2040,2056,2076,2029,2052,2083
2044,2045,2030,2058,2074,2050,2041,2071
2047,2046,2038,2058,2077,2052,2034,2066
2039,2038,2024,2044,2068,2038,2017,2054
2031,2034,2025,2039,2053,2024,2028,2044
2029,2025,2018,2027,2043,2056,2011,2041
2027,2029,2019,2014,2043,2071,2019,2036
2034,2037,2022,2020,2042,2063,2042,2032
2040,2041,2037,2030,2048,2054,2042,2033
2049,2047,2054,2039,2053,2049,2046,2025
2052,2060,2066,2043,2054,2033,2039,2039
2054,2061,2071,2044,2056,2018,2040,2028
2046,2061,2063,2043,2059,2016,2032,2037
2041,2047,2052,2036,2055,2016,2036,2028
2038,2041,2049,2029,2048,2018,2049,2031
2044,2054,2054,2040,2054,2020,2045,2031
2052,2051,2057,2042,2059,2030,2060,2054
2052,2053,2054,2044,2049,2045,2060,2051
2053,2055,2056,2037,2042,2045,2057,2045
2049,2051,2062,2037,2049,2065,2067,2050
2051,2050,2063,2038,2054,2091,2080,2056
2048,2055,2059,2041,2059,2130,2056,2060
2049,2053,2062,2044,2064,2190,2079,2064
2047,2051,2058,2050,2064,2213,2080,2057
2050,2056,2067,2052,2061,2173,2069,2054
2054,2061,2071,2060,2054,2053,2046,2053
2040,2056,2061,2055,2053,1976,2034,2058
2047,2051,2052,2054,2056,2005,2037,2059
2048,2049,2053,2054,2053,2032,2036,2062
2038,2049,2047,2048,2052,2053,2034,2078
2042,2042,2048,2040,2059,2068,2041,2084
2046,2049,2061,2051,2060,2074,2047,2082
2053,2052,2062,2057,2063,2085,2060,2082
2054,2059,2061,2058,2070,2082,2034,2079
2051,2052,2057,2046,2066,2069,2028,2070
2048,2052,2055,2035,2052,2037,2015,2053
2044,2046,2046,2020,2034,2006,2020,2040
2034,2042,2036,2013,2021,2019,2029,2034
2036,2040,2031,2012,2016,2023,2027,2031
2038,2036,2036,2015,2025,2038,2033,2026
2035,2042,2043,2020,2024,2039,2029,2026
2039,2042,2040,2030,2026,2046,2036,2032
2044,2048,2049,2032,2037,2046,2027,2019
2045,2047,2048,2033,2042,2051,2034,2028
2047,2053,2050,2038,2038,2045,2034,2027
2039,2042,2045,2032,2034,2030,2005,2019
2042,2041,2042,2032,2035,2039,2013,2017
2045,2047,2046,2037,2046,2054,2010,2021
2041,2052,2051,2044,2054,2063,2030,2028
2045,2053,2051,2045,2053,2069,2024,2023
2046,2049,2052,2045,2054,2062,2033,2031
2046,2050,2048,2043,2052,2061,2042,2033
2045,2052,2052,2047,2056,2061,2052,2038
2053,2053,2048,2046,2055,2056,2015,2052
2049,2054,2054,2039,2053,2054,2029,2050
2045,2047,2054,2040,2060,2050,2035,2057
2053,2051,2058,2037,2052,2052,2046,2058
2045,2044,2050,2038,2054,2042,2036,2054
2037,2032,2042,2035,2047,2039,2062,2060
2038,2037,2049,2031,2048,2040,2056,2073
2048,2041,2053,2033,2051,2050,2054,2071
2041,2036,2050,2022,2040,2053,2064,2076
2042,2041,2044,2021,2030,2054,2068,2082
2049,2054,2058,2027,2041,2075,2076,2080
2052,2058,2060,2033,2050,2073,2064,2077
2047,2055,2057,2034,2042,2058,2055,2062
2046,2056,2057,2035,2046,2056,2040,2043
2037,2053,2059,2031,2052,2059,2028,2037
2039,2046,2052,2036,2051,2066,2032,2027
2040,2048,2047,2030,2060,2073,2024,2031
2045,2044,2052,2032,2058,2071,2028,2036
2050,2047,2054,2032,2050,2039,2032,2037
2047,2051,2054,2028,2053,2022,2028,2033
2046,2045,2049,2036,2053,2032,2027,2038
2054,2050,2050,2034,2054,2048,2036,2027
2052,2050,2050,2035,2055,2050,2041,2025
2054,2052,2051,2032,2062,2053,2040,2023
2049,2046,2047,2027,2050,2046,2033,2014
2052,2039,2045,2028,2048,2046,2028,2016
2056,2050,2054,2030,2047,2050,2054,2024
2060,2055,2054,2032,2048,2047,2051,2026
2058,2050,2054,2031,2043,2035,2043,2033
2060,2054,2054,2029,2044,2027,2042,2041
2064,2052,2055,2034,2051,2022,2060,2038
2055,2048,2056,2030,2050,2010,2047,2033
2046,2046,2051,2031,2054,2023,2038,2035
2043,2039,2043,2030,2054,2017,2029,2037
2041,2037,2043,2028,2054,2013,2028,2046
2046,2038,2040,2024,2038,2028,2028,2054
2050,2042,2036,2020,2023,2057,2041,2063
2042,2028,2024,2012,1992,2077,2031,2064
2029,2024,2014,2001,1961,2076,2025,2058
2027,2022,2004,1992,1938,2064,2030,2063
2024,2024,2000,1992,1937,2027,2013,2062
2024,2024,1999,1993,1977,2010,2015,2060
2042,2033,2013,2033,2055,2030,2037,2075
2057,2047,2028,2053,2103,2053,2050,2076
2048,2041,2028,2060,2130,2091,2050,2066
2044,2038,2022,2056,2133,2130,2054,2069
2046,2034,2029,2056,2112,2135,2063,2058
2049,2035,2029,2049,2096,2119,2059,2054
2043,2037,2033,2045,2089,2102,2045,2045
2042,2036,2046,2041,2073,2087,2042,2035
2043,2035,2048,2041,2071,2073,2050,2031
2044,2042,2053,2037,2064,2064,2051,2041
2050,2055,2068,2040,2073,2058,2062,2040
2053,2064,2077,2047,2082,2052,2056,2034
2059,2059,2085,2042,2080,2052,2044,2024
2060,2047,2076,2040,2066,2040,2040,2010
2044,2032,2057,2018,2019,2038,2020,2013
2034,2024,2053,2007,1996,2050,2025,2014
2041,2047,2062,2022,2017,2062,2029,2022
2064,2060,2068,2030,2039,2060,2045,2030
2064,2068,2068,2038,2055,2061,2036,2037
2069,2054,2065,2039,2055,2047,2049,2034
2066,2053,2068,2035,2068,2064,2055,2032
2056,2052,2065,2042,2070,2078,2064,2029
2048,2050,2058,2036,2059,2058,2051,2019
2047,2048,2059,2028,2047,2001,2028,2035
2047,2046,2054,2029,2057,2005,2021,2037
2044,2049,2052,2029,2095,2048,2033,2044
2042,2049,2051,2026,2088,2068,2048,2055
2051,2051,2051,2028,2078,2083,2046,2060
2057,2062,2054,2036,2083,2078,2048,2067
2055,2061,2058,2045,2084,2041,2050,2078
2059,2056,2053,2049,2075,2025,2045,2080
2052,2053,2047,2046,2014,2031,2052,2079
2063,2058,2058,2043,1982,2032,2053,2080
2058,2055,2052,2032,1871,2011,2054,2068
2054,2050,2047,2021,1889,2017,2044,2058
2054,2051,2044,2033,1944,2016,2036,2051
2055,2058,2045,2037,1983,2018,2050,2045
2062,2066,2049,2054,2055,2047,2059,2043
2061,2064,2056,2067,2094,2054,2060,2034
2053,2054,2048,2044,2046,2033,2016,2023
2054,2050,2037,2033,2076,2053,2015,2028
2055,2052,2051,2050,2092,2082,2053,2031
2064,2052,2053,2051,2044,2079,2053,2028
2054,2046,2045,2040,2070,2069,2036,2021
2054,2048,2040,2035,2072,2049,2050,2010
2046,2038,2040,2022,2029,2026,2055,2010
2044,2032,2030,2016,2006,2018,2045,2007
2042,2032,2026,2017,2004,2023,2054,2012
2047,2045,2050,2031,2028,2047,2066,2012
2053,2053,2054,2039,2041,2080,2071,2008
2053,2051,2060,2030,2014,2104,2069,2007
2050,2047,2057,2020,1983,2096,2057,2006
2048,2050,2057,2011,1955,2073,2025,2013
2044,2055,2065,2005,1941,2045,2024,2026
2051,2054,2073,2030,1997,1989,2035,2044
2068,2065,2072,2056,2069,1965,2056,2064
2066,2062,2066,2064,2096,1989,2069,2063
2071,2058,2063,2062,2087,2016,2063,2080
2075,2063,2061,2068,2073,2049,2077,2075
2060,2057,2054,2059,2070,2070,2070,2066
2051,2047,2038,2051,2058,2062,2059,2058
2049,2048,2049,2051,2025,2050,2045,2069
2046,2039,2050,2053,2001,2029,2029,2069
2042,2035,2044,2049,2010,2047,2058,2060
2044,2034,2048,2055,2010,2025,2048,2053
2045,2037,2052,2066,2028,2023,2069,2061
2057,2050,2058,2083,2051,2057,2085,2058
2059,2057,2059,2077,2040,2068,2087,2053
2057,2051,2048,2064,2014,2054,2076,2051
2055,2042,2032,2058,2001,2032,2054,2034
2059,2035,2019,2053,1992,2000,2038,2027
2048,2031,2009,2046,1976,2000,2041,2021
2046,2028,2010,2057,2013,2040,2045,2021
2047,2022,2000,2058,2079,2079,2057,2017
2043,2017,1981,2054,2109,2142,2071,2022
2040,2014,1979,2046,2104,2196,2079,2014
2042,2011,1981,2023,2068,2203,2074,2017
2035,2010,1977,2000,2020,2129,2054,2006
2039,2005,1979,1971,1988,1978,2033,1997
2035,2014,1992,1969,2034,1929,2029,2003
2050,2036,2021,1978,2074,1953,2032,2025
2056,2054,2022,1990,2082,1967,2052,2034
2069,2050,2010,1989,2081,1985,2041,2041
2061,2048,2002,1996,2070,2004,2043,2045
2067,2054,1998,1989,2068,1996,2043,2029
2062,2039,1980,1976,2058,2009,2035,2030
2058,2032,1970,1975,2045,2018,2028,2028
2048,2031,1973,1985,2050,2047,2047,2029
2045,2030,1987,2001,2057,2061,2070,2033
2040,2023,1980,2002,2043,2093,2060,2033
2038,2024,1988,2003,1993,2104,2088,2048
2041,2031,1998,2008,2020,2098,2073,2045
2050,2035,2012,2028,2045,2081,2039,2045
2051,2039,2027,2054,2057,2056,2024,2053
2045,2036,2044,2061,2073,2052,2027,2055
2040,2032,2072,2066,2080,2044,2024,2050
2043,2043,2094,2071,2093,2025,2032,2043
2042,2049,2103,2076,2099,2040,2033,2037
2035,2053,2114,2068,2068,2047,2032,2041
2040,2051,2109,2046,2044,2051,2022,2039
2047,2055,2092,2049,2059,2070,2032,2036
2054,2059,2095,2049,2066,2086,2039,2040
2052,2059,2091,2040,2061,2093,2028,2033
2049,2051,2081,2028,2041,2074,2042,2029
2048,2042,2070,2025,2024,2039,2038,2021
2050,2039,2057,2015,2001,2038,2025,2017
2041,2040,2057,2019,2007,2033,2032,2014
2043,2044,2044,2015,2017,2009,2026,2013
2053,2055,2051,2020,2065,2036,2034,2025
2060,2064,2062,2022,2094,2063,2053,2011
2052,2059,2067,2017,2097,2066,2032,2010
2050,2053,2065,2005,2110,2058,2044,2008
2052,2059,2059,1996,2065,2039,2053,2013
2048,2060,2051,2002,1999,2026,2043,2016
2046,2058,2059,2017,1988,2028,2061,2026
2049,2058,2061,2035,2001,2034,2060,2022
2053,2058,2072,2047,2018,2043,2052,2032
2054,2054,2075,2057,2030,2050,2054,2031
2056,2045,2080,2050,2026,2038,2049,2030
2051,2048,2073,2041,2029,2043,2041,2035
2047,2045,2068,2042,2062,2056,2021,2047
2050,2046,2065,2045,2076,2050,2024,2048
2051,2046,2052,2039,2044,2037,2022,2056
2048,2046,2045,2038,2028,2041,2021,2057
2048,2049,2042,2041,2020,2040,2013,2054
2050,2044,2031,2035,2035,2051,2041,2054
2047,2042,2022,2039,2054,2063,2048,2057
2049,2039,2019,2046,2071,2073,2060,2060
2053,2046,2027,2044,2058,2061,2051,2063
2058,2053,2031,2042,2050,2043,2047,2054
2055,2054,2040,2035,2062,2021,2046,2042
2054,2048,2037,2030,2056,2032,2043,2035
2047,2043,2042,2030,2043,2046,2044,2030
2044,2048,2052,2021,2045,2053,2052,2030
2050,2053,2055,2018,2039,2056,2044,2021
2051,2057,2058,2024,2048,2062,2054,2024
2054,2056,2058,2026,2048,2056,2042,2018
2056,2050,2050,2027,2048,2058,2042,2013
2048,2050,2055,2037,2040,2037,2046,2005
2046,2052,2051,2029,2040,2025,2052,2007
2051,2046,2046,2030,2076,2036,2062,2014
2046,2049,2048,2036,2104,2047,2031,2010
2056,2039,2036,2032,2095,2042,2053,2000
2042,2030,2030,2029,2102,2046,2042,2002
2037,2038,2029,2030,2122,2061,2070,2008
2054,2044,2040,2040,2131,2065,2072,2011
2051,2041,2038,2049,2119,2083,2069,2017
2054,2044,2045,2045,2094,2094,2075,2018
2054,2047,2044,2038,2010,2076,2068,2018
2057,2046,2040,2029,1898,2046,2070,2027
2050,2039,2042,2020,1914,2035,2060,2023
2053,2054,2045,2025,1975,2051,2073,2035
2062,2053,2042,2032,2009,2071,2065,2047
2063,2049,2044,2035,2030,2066,2072,2046
2056,2045,2035,2040,2047,2061,2061,2052
2055,2058,2046,2047,2056,2042,2054,2056
2055,2056,2056,2050,2060,2035,2061,2061
2060,2052,2051,2046,2051,2020,2059,2067
2051,2054,2049,2038,2026,1997,2057,2060
2056,2046,2049,2033,2011,1992,2048,2063
2050,2050,2054,2033,2007,2010,2048,2068
2066,2058,2057,2037,2011,2021,2053,2061
2065,2062,2056,2035,2020,2039,2056,2064
2064,2062,2058,2033,2027,2059,2051,2054
2065,2061,2058,2040,2027,2068,2064,2040
2061,2057,2054,2038,2027,2082,2058,2020
2058,2059,2042,2030,2030,2067,2039,2001
2053,2044,2035,2032,2030,2046,2026,1998
2052,2047,2041,2025,2029,2036,2028,1998
2044,2049,2044,2026,2036,2044,2043,1999
2050,2051,2041,2024,2036,2044,2040,1998
2056,2053,2044,2032,2037,2041,2034,1996
2056,2049,2051,2034,2047,2040,2033,2000
2056,2051,2048,2032,2045,2041,2049,2000
2056,2057,2049,2033,2046,2043,2024,2001
2050,2045,2045,2027,2041,2051,2020,1999
2060,2048,2041,2034,2056,2061,2054,2005
2057,2057,2047,2040,2049,2053,2040,2008
2057,2050,2048,2043,2046,2071,2036,2000
2053,2052,2046,2039,2049,2074,2013,2004
2052,2051,2046,2038,2043,2073,2029,1997
2046,2043,2040,2038,2048,2073,2025,1994
2036,2037,2045,2043,2036,2071,2039,2008
2049,2039,2044,2043,2040,2076,2049,2018
2046,2042,2040,2044,2053,2089,2055,2024
2052,2040,2041,2044,2067,2088,2066,2036
2048,2040,2038,2042,2075,2070,2060,2055
2049,2040,2037,2047,2066,2046,2052,2065
2054,2045,2040,2047,2060,2030,2069,2073
2059,2050,2044,2049,2061,2023,2074,2075
2058,2064,2049,2049,2057,2018,2067,2061
2058,2051,2037,2042,2049,2035,2065,2064
2049,2047,2035,2037,2049,2047,2065,2060
2058,2047,2047,2044,2039,2043,2046,2057
2053,2054,2047,2043,2020,2030,2058,2048
2062,2052,2042,2031,2010,2022,2060,2038
2045,2050,2037,2034,1999,2026,2050,2038
2045,2050,2036,2036,1999,2037,2039,2030
2055,2048,2032,2038,2019,2038,2043,2021
2049,2041,2034,2038,2017,2039,2050,2017
2042,2039,2034,2037,2024,2034,2045,2008
2040,2035,2038,2038,2020,2044,2039,2003
2039,2039,2036,2041,2014,2049,2031,2007
2046,2039,2039,2044,2027,2050,2026,2010
2050,2049,2040,2044,2027,2046,2051,2009
2049,2052,2049,2045,2025,2047,2053,2017
2058,2054,2046,2048,2031,2049,2044,2007
2052,2046,2041,2040,2023,2048,2060,1997
2049,2043,2042,2037,2032,2052,2058,2000
2056,2052,2041,2035,2032,2060,2065,1995
2051,2045,2035,2029,1983,2043,2058,1996
2050,2049,2034,2019,1945,2026,2063,2004
2054,2046,2034,2020,1959,2003,2059,2014
2060,2049,2039,2018,1961,2004,2066,2013
2052,2039,2036,2020,1990,2025,2057,2013
2052,2036,2036,2041,2026,2039,2080,2012
2049,2041,2044,2056,2064,2059,2089,2018
2051,2040,2044,2066,2089,2079,2083,2027
2056,2047,2049,2062,2092,2070,2091,2019
2055,2047,2041,2055,2068,2069,2087,2020
2052,2043,2034,2045,2039,2076,2080,2014
2046,2042,2030,2038,2017,2069,2069,2017
2043,2039,2032,2037,2006,2066,2061,2011
2045,2034,2025,2033,1993,2056,2043,2004
2038,2028,2030,2031,2004,2037,2052,2008
2043,2041,2043,2053,2054,2025,2058,2020
2053,2049,2053,2069,2092,2057,2062,2015
2058,2054,2056,2067,2082,2106,2058,2005
2048,2055,2047,2054,2073,2153,2053,1998
2042,2047,2040,2049,2062,2166,2042,1992
2041,2046,2034,2042,2040,2142,2041,1989
2041,2043,2032,2037,2027,2064,2048,1990
2048,2052,2037,2047,2006,1986,2058,1999
2062,2053,2045,2056,2043,1994,2069,1996
2062,2060,2045,2058,2058,2028,2071,1985
2057,2055,2043,2054,2047,2046,2064,1982
2052,2052,2042,2050,2055,2051,2073,1977
2046,2052,2040,2050,2037,2045,2062,1964
2043,2042,2039,2045,2034,2037,2066,1957
2045,2042,2038,2043,2035,2035,2070,1950
2040,2033,2035,2040,2026,1995,2048,1947
2043,2027,2030,2030,2018,1978,2063,1969
2052,2042,2041,2035,2035,2002,2072,1978
2050,2050,2041,2043,2037,2004,2076,1974
2049,2045,2035,2037,2029,1995,2060,1975
2051,2050,2038,2038,2052,2002,2054,1974
2049,2047,2040,2046,2073,2026,2065,1980
2044,2044,2036,2056,2066,2031,2067,1983
2045,2042,2038,2048,2047,2023,2055,1984
2047,2042,2033,2044,2037,2020,2048,1982
2043,2031,2038,2043,2026,2026,2039,1983
2041,2035,2040,2049,2032,2021,2041,1990
2044,2039,2044,2054,2040,2025,2050,1997
2050,2037,2044,2047,2028,2062,2064,2010
2052,2042,2043,2042,2004,2089,2065,2015
2053,2042,2039,2038,1996,2104,2066,2011
2042,2036,2034,2026,1980,2108,2035,2002
2031,2028,2025,2017,1991,2044,2029,2008
2041,2038,2035,2037,2014,2018,2048,2014
2047,2039,2036,2047,2038,2026,2071,2015
2050,2034,2038,2048,2032,2040,2058,2009
2040,2030,2028,2036,2022,2068,2045,1999
2041,2026,2028,2037,2042,2059,2063,2005
2058,2047,2045,2068,2077,2027,2062,2006
2065,2051,2046,2076,2083,2036,2071,2006
2065,2042,2039,2065,2076,2028,2069,1996
2059,2045,2027,2045,2064,2025,2076,1991
2046,2030,2016,2043,2082,2045,2067,1984
2042,2032,2016,2045,2086,2044,2075,1981
2044,2033,2015,2036,2063,2037,2065,1975
2046,2029,2021,2037,2056,2032,2066,1974
2049,2035,2029,2034,2051,2022,2064,1973
2046,2032,2026,2022,2029,2015,2022,1969
2037,2028,2030,2013,2011,2000,2019,1967
2039,2034,2039,2020,2010,1990,2047,1972
2048,2044,2044,2031,2010,1995,2036,1967
2043,2031,2037,2021,2014,2023,2049,1960
2040,2034,2032,2028,2023,2074,2062,1970
2054,2038,2040,2040,2046,2096,2081,1990
2055,2053,2056,2046,2054,2094,2070,2000
2064,2059,2068,2054,2054,2101,2088,2009
2069,2060,2069,2057,2060,2117,2086,2020
2069,2061,2065,2056,2049,2120,2094,2022
2064,2058,2071,2058,2075,2142,2097,2026
2058,2056,2074,2063,2097,2167,2096,2031
2058,2058,2071,2057,2090,2175,2095,2033
2050,2056,2064,2051,2065,2191,2083,2034
2054,2052,2065,2052,2074,2184,2080,2029
2053,2044,2062,2057,2097,2141,2060,2021
2046,2043,2051,2055,2093,2009,2035,2019
2046,2040,2046,2054,2080,1937,2014,2021
2055,2045,2051,2054,2064,1923,2028,2025
2050,2048,2046,2052,2067,1936,2027,2016
2050,2048,2052,2052,2070,1972,2025,2012
2049,2056,2053,2061,2083,2002,2032,2007
2047,2054,2052,2068,2117,2023,2011,1996
2054,2056,2053,2074,2156,2041,2019,1996
2048,2050,2049,2074,2173,2054,2015,1993
2046,2054,2047,2063,2146,2056,2036,1989
2052,2045,2049,2060,2136,2055,2037,1987
2051,2047,2049,2056,2109,2056,2041,1982
2044,2048,2041,2044,2076,2058,2029,1980
2047,2041,2038,2047,2059,2054,2050,1979
2042,2039,2035,2042,2016,2046,2040,1975
2043,2039,2031,2044,1954,2042,2046,1980
2049,2036,2031,2043,1970,2043,2064,1976
2045,2030,2033,2049,2014,2046,2056,1977
2048,2042,2040,2058,2032,2053,2066,1983
2048,2049,2044,2052,2033,2045,2043,1980
2051,2046,2041,2049,2028,2050,2021,1985
2048,2041,2039,2054,2033,2052,2024,1988
2054,2046,2040,2049,2032,2032,2056,1991
2056,2042,2045,2051,2035,2031,2072,1997
2054,2042,2042,2051,2044,2047,2077,2004
2057,2046,2043,2050,2039,2050,2077,2007
2051,2043,2048,2050,2038,2044,2072,2012
2052,2039,2066,2066,2045,2055,2070,2020
2048,2040,2076,2075,2044,2065,2065,2021
2042,2037,2068,2075,2045,2064,2072,2030
2049,2034,2065,2076,2038,2060,2070,2032
2041,2034,2059,2070,2040,2059,2066,2037
2038,2034,2054,2072,2044,2058,2059,2034
2038,2032,2039,2062,2039,2053,2049,2034
2048,2026,2035,2071,2042,2052,2061,2035
2053,2039,2042,2068,2038,2050,2053,2038
2058,2036,2028,2066,2046,2044,2064,2038
2054,2038,2025,2066,2051,2058,2053,2029
2049,2028,2003,2043,2026,2063,2056,2008
2046,2026,1992,2038,2017,2075,2051,2001
2039,2023,1998,2034,2021,2096,2062,1997
2038,2032,2005,2029,2013,2103,2065,1990
2039,2030,1996,2018,2014,2042,2051,2001
2041,2037,1994,2008,2017,1981,2050,2011
2047,2038,1994,2001,2035,2000,2049,2004
2048,2045,2001,1986,2040,2028,2059,1998
2048,2058,2020,1989,2053,2040,2067,1998
2059,2058,2032,1994,2063,2037,2053,1989
2060,2057,2044,2005,2059,2028,2052,1989
2053,2046,2041,2006,2048,2016,2037,1983
2050,2046,2049,2010,2042,1997,2035,1990
2050,2057,2061,2023,2028,2005,2035,1999
2054,2054,2065,2033,2037,2027,2043,2008
2057,2065,2076,2044,2058,2032,2038,2008
2056,2059,2067,2046,2065,2034,2025,2011
2061,2060,2069,2043,2053,2021,2064,2016
2071,2066,2069,2041,2046,2020,2042,2026
2069,2072,2069,2048,2042,2028,2044,2039
2062,2074,2080,2053,2025,2030,2058,2039
2068,2073,2083,2048,2028,2034,2040,2040
2067,2067,2083,2054,2026,2041,2051,2041
2056,2063,2062,2053,2013,2042,2053,2034
2051,2052,2052,2037,2000,2039,2060,2042
2057,2048,2051,2041,2001,2043,2059,2041
2049,2045,2045,2040,2012,2039,2054,2038
2043,2036,2037,2028,2026,2026,2043,2038
2043,2034,2038,2032,2049,2031,2054,2039
2045,2043,2046,2035,2068,2030,2056,2039
2050,2043,2053,2045,2056,2036,2040,2037
2049,2049,2063,2054,2041,2034,2060,2038
2054,2047,2074,2064,2067,2038,2053,2034
2052,2046,2075,2067,2063,2042,2053,2025
2043,2048,2076,2076,2066,2049,2059,2017
2053,2054,2075,2082,2072,2052,2060,2029
2066,2057,2090,2085,2065,2042,2056,2021
2057,2061,2085,2088,2069,2046,2064,2014
2052,2059,2081,2081,2044,2042,2064,2011
2052,2052,2070,2057,1981,2032,2046,2003
2052,2042,2070,2047,1970,2027,2049,2004
2052,2043,2063,2024,1922,2016,2048,1996
2047,2044,2058,2023,1926,2029,2056,1992
2043,2045,2062,2042,2018,2056,2046,1999
2053,2049,2070,2060,2100,2074,2072,2016
2064,2058,2067,2074,2151,2083,2074,2017
2063,2054,2058,2061,2160,2058,2069,2015
2060,2039,2049,2032,2140,2031,2041,2016
2049,2035,2031,2024,2138,2011,2032,2010
2043,2037,2037,2028,2143,2013,2049,2015
2049,2040,2053,2036,2163,2027,2028,2014
2052,2042,2063,2035,2157,2057,2063,2019
2052,2046,2056,2037,2172,2095,2063,2030
2050,2048,2054,2041,2167,2118,2066,2043
2055,2047,2058,2034,2080,2121,2070,2050
2053,2042,2048,2027,2020,2109,2055,2049
2051,2039,2048,2050,2094,2112,2059,2058
2055,2047,2056,2070,2140,2116,2067,2069
2058,2046,2061,2069,2136,2070,2041,2060
2046,2037,2051,2049,2132,2033,2029,2049
2043,2032,2048,2035,2056,2004,2013,2052
2049,2044,2056,2016,1922,1982,2005,2050
2055,2050,2054,2016,1884,1986,2022,2039
2051,2053,2055,2016,1836,1983,2036,2029
2052,2055,2052,2011,1814,1995,2023,2026
2041,2050,2044,1990,1824,2018,2036,2009
2039,2036,2038,1981,1857,2060,2037,1992
2032,2033,2029,1979,1895,2073,2034,1997
2046,2041,2043,2003,1946,2069,2040,2016
2054,2051,2059,2037,1982,2041,2028,2027
2062,2058,2064,2059,2050,2017,2037,2031
2058,2063,2075,2088,2224,2023,2075,2040
2068,2064,2070,2097,2352,2086,2080,2034
2067,2059,2064,2084,2307,2117,2083,2022
2065,2056,2060,2071,2253,2122,2073,2012
2061,2046,2058,2066,2204,2111,2045,2017
2060,2049,2059,2056,2159,2102,2036,2023
2061,2061,2066,2061,2117,2107,2062,2021
2060,2058,2062,2060,2086,2132,2058,2023
2056,2050,2054,2042,1969,2101,2038,2019
2044,2049,2046,2021,1876,2041,2040,2023
2048,2053,2046,2008,1846,1986,2020,2015
2045,2049,2049,1990,1799,1967,2027,2022
2045,2052,2041,1976,1768,1969,2016,2029
2052,2047,2046,1997,1907,1969,2029,2044
2055,2049,2048,2011,2032,2005,2038,2053
2070,2061,2058,2049,2112,2034,2056,2074
2076,2063,2070,2058,2113,2032,2039,2062
2062,2054,2062,2042,2048,2023,2046,2047
2060,2051,2051,2027,2021,2024,2045,2042
2055,2043,2049,2017,2012,2028,2055,2043
2049,2030,2037,2012,1992,2005,2053,2054
2041,2025,2036,2015,2019,2023,2074,2065
2054,2038,2048,2024,2022,2020,2056,2063
2052,2039,2045,2024,2022,2001,2059,2055
2042,2028,2034,2028,2037,2017,2066,2035
2044,2033,2037,2046,2118,2060,2066,2036
2050,2045,2049,2058,2182,2114,2083,2049
2059,2058,2055,2050,2135,2130,2111,2046
2067,2045,2050,2016,2051,2091,2082,2039
2059,2041,2042,1999,1997,2054,2072,2028
2052,2039,2044,2010,2033,2058,2079,2016
2044,2043,2043,2044,2092,2076,2065,2013
2048,2044,2044,2042,2064,2066,2056,2005
2043,2042,2057,2044,2005,2020,2051,2008
2048,2041,2069,2051,1978,1964,2032,2008
2036,2033,2076,2063,2028,1967,2004,1999
2024,2035,2077,2074,2101,1965,2017,1991
2027,2045,2077,2083,2153,1982,2001,1995
2039,2055,2077,2098,2166,2008,2043,2002
2044,2052,2067,2101,2167,2050,2043,2014
2043,2046,2063,2089,2036,2066,2056,2029
2047,2053,2061,2072,2028,2079,2045,2031
2049,2059,2062,2081,2099,2077,2067,2037
2048,2064,2064,2103,2141,2054,2067,2038
2044,2065,2069,2120,2215,2044,2072,2047
2042,2055,2064,2113,2223,2056,2060,2041
2050,2047,2061,2110,2233,2077,2074,2044
2050,2039,2055,2103,2199,2102,2070,2058
2051,2042,2051,2052,2000,2093,2079,2062
2052,2045,2040,1986,1841,2078,2058,2067
2050,2043,2024,1960,1795,2043,2053,2068
2049,2030,2008,1938,1801,2017,2027,2062
2046,2021,1997,1930,1837,1989,2042,2064
2047,2038,2009,1947,1873,2005,2059,2066
2060,2045,2028,1982,1952,2016,2036,2061
2056,2046,2038,2016,1990,2022,2040,2062
2058,2045,2041,2069,2097,2034,2031,2051
2046,2039,2042,2096,2202,2042,2029,2036
2044,2028,2046,2102,2206,2035,2024,2028
2043,2036,2057,2098,2219,2056,2044,2023
2054,2048,2065,2093,2175,2084,2060,2022
2065,2057,2066,2080,2105,2088,2059,2023
2062,2054,2053,2064,2042,2066,2060,2009
2054,2042,2038,2028,1937,2016,2039,2009
2051,2041,2035,2024,1955,1975,2030,2018
2058,2040,2040,2046,2058,1990,2061,2017
2055,2038,2037,2077,2129,2044,2071,2020
2048,2044,2044,2064,2105,2064,2059,2016
2044,2038,2041,2046,2096,2074,2052,2006
2038,2045,2038,2040,2094,2083,2029,2009
2050,2058,2057,2040,2085,2084,2051,2010
2056,2069,2061,2040,2076,2031,2030,2016
2064,2072,2056,2032,2054,2007,2028,2020
2057,2070,2050,1979,1826,1970,2007,2008
2048,2056,2047,1971,1828,1953,2019,2026
2052,2058,2052,1990,1921,1970,2028,2029
2055,2061,2051,2010,1976,1990,2042,2047
2058,2058,2050,2033,2043,1976,2049,2064
2066,2072,2056,2059,2135,2000,2057,2080
2069,2064,2060,2068,2159,2059,2070,2084
2067,2056,2058,2065,2125,2084,2081,2080
2072,2064,2063,2051,2103,2097,2071,2078
2064,2060,2051,2035,2056,2095,2060,2074
2059,2052,2043,2031,2064,2126,2043,2070
2048,2046,2037,2031,2071,2124,2010,2065
2041,2040,2028,2032,2072,2078,2012,2068
2042,2046,2037,2046,2100,2075,2014,2077
2051,2050,2035,2074,2153,2095,2020,2061
2049,2048,2040,2077,2152,2099,2038,2050
2041,2049,2037,2071,2147,2082,2018,2040
2047,2048,2034,2043,2047,2059,2018,2040
2049,2045,2031,2038,1949,2049,2023,2029
2040,2046,2035,2042,1904,2054,2033,2030
2044,2047,2038,2044,1893,2036,2037,2030
2054,2053,2037,2031,1841,2018,2038,2027
2050,2052,2048,2035,1896,2031,2020,2006
2047,2046,2039,2038,1920,2050,2008,2004
2043,2053,2043,2041,1871,2055,2009,2001
2044,2053,2045,2043,1875,2053,2022,1998
2041,2045,2038,2039,1989,2013,2006,2014
2037,2035,2045,2057,2117,1959,2038,2033
2056,2038,2052,2104,2283,2018,2058,2044
2064,2049,2067,2147,2432,2085,2077,2038
2061,2049,2066,2146,2413,2108,2071,2047
2062,2056,2074,2139,2403,2126,2090,2041
2061,2067,2082,2148,2404,2120,2077,2044
2064,2069,2078,2135,2361,2113,2064,2039
2054,2068,2075,2106,2257,2104,2062,2050
2056,2069,2067,2071,2147,2101,2068,2058
2072,2060,2062,2037,2083,2103,2066,2058
2057,2046,2044,1998,1872,2075,2051,2050
2038,2034,2028,1945,1574,2051,2038,2059
2034,2030,2024,1929,1609,2072,2032,2064
2028,2030,2036,1939,1713,2111,2025,2068
2026,2051,2043,1972,1884,2106,2045,2077
2045,2044,2045,1986,2025,1979,2010,2073
2043,2035,2024,1998,2054,1939,2018,2076
2042,2042,2028,2026,2110,1999,2020,2089
2046,2046,2033,2040,2153,2028,2011,2068
2039,2038,2024,2035,2120,2029,2018,2058
2043,2041,2028,2045,2064,2038,2019,2059
2045,2049,2035,2045,2024,2045,2043,2062
2056,2049,2032,2021,1931,2037,2026,2059
2059,2043,2026,1994,1900,2044,2034,2045
2058,2042,2024,1978,1868,2037,2037,2045
2053,2041,2020,1961,1850,2007,2039,2047
2054,2054,2034,1993,1929,2007,2048,2054
2060,2065,2047,2020,2010,2018,2051,2049
2066,2063,2044,2013,2021,2012,2027,2036
2057,2056,2043,2000,2011,2034,2034,2024
2055,2059,2050,2030,2065,2075,2048,2020
2040,2044,2046,2062,2100,2090,2058,2020
2027,2030,2035,2073,2156,2097,2048,2014
2019,2020,2034,2068,2181,2082,2053,2022
2035,2046,2040,2057,2154,2061,2052,2030
2042,2044,2048,2054,2114,2061,2054,2037
2041,2053,2061,2061,2102,2049,2039,2038
2045,2060,2064,2061,2090,2002,2026,2040
2042,2052,2066,2056,2020,1977,2014,2032
2038,2044,2049,2038,1952,1991,2024,2037
2032,2042,2047,2042,1979,2031,2044,2048
2031,2036,2048,2033,1961,2046,2044,2055
2033,2036,2041,2020,1946,2037,2026,2051
2024,2038,2045,2023,1990,2036,2034,2067
2033,2045,2057,2041,2033,2075,2051,2076
2043,2046,2047,2033,2025,2088,2045,2092
2037,2053,2043,2016,1977,2055,2031,2085
2027,2047,2023,1979,1913,1990,2010,2077
2017,2023,2006,1969,1960,1945,1974,2083
2032,2037,2027,2015,2022,1945,1983,2093
2048,2060,2046,2047,2059,1951,1983,2101
2050,2061,2048,2068,2105,2027,2031,2094
2053,2050,2038,2070,2147,2092,2028,2068
2041,2037,2019,2067,2140,2094,2045,2060
2032,2025,2012,2055,2133,2094,2064,2061
2037,2031,2010,2054,2125,2093,2063,2060
2038,2031,2003,2046,2114,2086,2050,2057
2044,2030,2005,2045,2132,2073,2023,2053
2044,2034,2009,2052,2140,2070,2039,2039
2043,2039,2015,2063,2084,2053,2042,2031
2045,2044,2014,2060,2058,2031,2017,2026
2034,2041,2020,2059,2047,2014,2007,2020
2036,2036,2017,2054,2035,2015,2027,2020
2033,2035,2021,2056,2064,2035,2030,2018
2034,2032,2019,2059,2076,2055,2035,2032
2038,2040,2030,2065,2074,2083,2063,2040
2058,2057,2042,2071,2072,2108,2075,2056
2056,2057,2045,2069,2086,2105,2082,2066
2058,2067,2055,2066,2142,2099,2059,2061
2057,2065,2059,2064,2168,2090,2070,2057
2049,2060,2058,2060,2150,2090,2062,2058
2046,2062,2058,2057,2129,2088,2066,2058
2042,2062,2058,2064,2152,2101,2058,2058
2039,2056,2062,2071,2151,2095,2056,2057
2041,2056,2061,2068,2158,2100,2056,2079
2049,2055,2063,2056,2114,2116,2040,2081
2053,2061,2055,2019,1866,2097,2038,2087
2049,2058,2054,2009,1779,2041,2041,2095
2062,2064,2062,2049,1929,2008,2047,2103
2065,2073,2063,2060,1998,2014,2047,2082
2055,2053,2044,2046,2022,2019,2037,2081
2042,2043,2036,2045,2076,2027,2045,2080
2042,2050,2037,2060,2119,2033,2057,2082
2038,2053,2041,2049,2083,2001,2042,2073
2035,2043,2032,2020,1920,1963,2034,2062
2035,2043,2031,2020,1893,1974,2020,2052
2033,2035,2028,2025,1918,1986,2020,2039
2028,2043,2040,2047,1992,2009,2022,2045
2042,2054,2052,2078,2086,2067,2032,2047
2040,2055,2060,2082,2153,2071,2051,2056
2041,2053,2056,2074,2182,2061,2034,2046
2039,2047,2052,2074,2193,2043,2032,2048
2047,2050,2050,2066,2184,2046,2033,2044
2052,2058,2053,2073,2175,2045,2044,2041
2054,2047,2053,2074,2180,2067,2051,2043
2052,2054,2049,2087,2174,2080,2051,2043
2052,2048,2058,2078,2070,2057,2043,2028
2048,2051,2050,2067,2010,2052,2043,2024
2047,2055,2052,2069,2014,2065,2032,2029
2045,2053,2042,2050,1931,2064,2031,2032
2049,2052,2037,2017,1879,2082,2024,2035
2048,2052,2036,2008,1882,2093,2032,2025
2042,2049,2033,2024,1916,2091,2027,2031
2048,2059,2039,2048,1940,2112,2060,2041
2054,2055,2042,2071,2053,2096,2052,2050
2051,2057,2044,2088,2115,2056,2064,2055
2048,2052,2038,2078,2092,2035,2052,2047
2045,2045,2035,2068,2054,2034,2052,2051
2042,2036,2029,2050,2058,2030,2045,2058
2041,2043,2020,2048,2042,2013,2039,2065
2046,2038,2031,2045,2017,2000,2045,2066
2039,2036,2031,2043,2006,1994,2038,2067
2032,2030,2022,2036,1990,1973,2028,2064
2016,2024,2012,2027,1972,1982,2032,2065
2021,2021,2019,2032,1992,2010,2043,2073
2034,2033,2022,2045,2032,2035,2040,2079
2040,2033,2030,2079,2102,2063,2039,2082
2044,2045,2027,2085,2113,2063,2037,2076
2039,2046,2021,2076,2054,2051,2059,2070
2041,2049,2024,2078,2029,2058,2054,2064
2043,2058,2029,2078,2032,2067,2060,2064
2047,2062,2036,2077,2040,2063,2047,2056
2045,2062,2042,2078,2058,2062,2053,2051
2042,2065,2052,2078,2040,2048,2037,2039
2052,2074,2057,2078,1992,2016,2031,2040
2053,2076,2062,2072,1982,1987,2028,2043
2050,2068,2065,2065,2025,2000,2040,2043
2048,2064,2061,2075,2112,2036,2048,2039
2040,2058,2058,2076,2143,2047,2043,2037
2029,2045,2046,2077,2134,2052,2052,2029
2025,2045,2057,2097,2124,2062,2061,2038
2039,2054,2065,2069,2100,2064,2059,2049
2043,2057,2058,2068,2094,2067,2061,2052
2043,2050,2059,2053,2080,2063,2049,2047
2046,2050,2055,2047,2065,2048,2061,2050
2044,2048,2055,2042,2013,2051,2072,2056
2044,2055,2058,2025,1935,2045,2051,2053
2041,2054,2069,2031,1971,2040,2046,2056
2038,2047,2070,2049,2007,2038,2068,2062
2041,2047,2068,2061,2043,2055,2058,2064
2043,2046,2056,2061,2067,2065,2075,2071
2044,2049,2052,2058,2087,2054,2053,2080
2047,2048,2045,2061,2097,2047,2065,2083
2050,2047,2043,2064,2101,2038,2034,2085
2044,2054,2043,2061,2079,2024,2020,2075
2039,2041,2039,2054,2059,1993,2010,2070
2032,2046,2040,2043,2033,1976,2024,2073
2035,2053,2048,2050,2019,1993,2029,2058
2036,2053,2050,2054,2007,2016,2032,2059
2044,2051,2055,2057,2009,2037,2040,2060
2046,2050,2052,2054,2003,2053,2033,2061
2039,2054,2056,2050,2002,2052,2031,2056
2043,2049,2056,2056,2022,2049,2030,2057
2046,2053,2061,2069,2057,2064,2031,2060
2051,2060,2062,2073,2084,2080,2036,2049
2049,2064,2060,2073,2088,2085,2022,2046
2048,2052,2058,2078,2094,2093,2056,2050
2054,2060,2059,2083,2096,2093,2065,2040
2064,2068,2067,2086,2095,2081,2060,2038
2057,2059,2068,2084,2055,2068,2051,2046
2055,2059,2071,2081,2049,2061,2052,2040
2051,2051,2062,2081,2040,2054,2059,2032
2041,2045,2064,2070,2034,2059,2051,2034
2049,2054,2063,2063,1998,2060,2054,2039
2048,2051,2058,2046,1986,2052,2043,2033
2043,2054,2056,2045,2033,2062,2031,2034
2044,2052,2060,2055,2063,2072,2051,2042
2052,2052,2058,2068,2099,2080,2058,2046
2053,2050,2058,2089,2132,2084,2045,2053
2051,2041,2055,2081,2081,2064,2055,2053
2053,2042,2048,2075,2041,2061,2052,2056
2049,2039,2058,2070,2052,2078,2060,2060
2042,2044,2056,2068,2065,2101,2035,2061
2040,2039,2050,2058,2072,2121,2041,2065
2032,2026,2040,2046,2063,2139,2059,2063
2019,2021,2032,2040,2046,2125,2059,2066
2029,2020,2035,2042,2040,2071,2044,2077
2031,2033,2045,2051,2043,2026,2043,2085
2029,2032,2044,2060,2053,2005,2052,2089
2036,2037,2042,2053,2022,2018,2027,2081
2038,2033,2042,2045,2020,2041,2040,2082
2046,2045,2048,2057,2049,2058,2048,2077
2044,2048,2053,2076,2078,2058,2050,2077
2050,2047,2047,2080,2087,2054,2041,2064
2050,2051,2045,2080,2092,2062,2044,2059
2047,2054,2047,2076,2083,2047,2025,2044
2049,2052,2052,2074,2073,2016,2031,2040
2044,2056,2044,2071,2066,2023,2030,2039
2048,2051,2047,2070,2072,2037,2044,2030
2044,2049,2048,2076,2074,2038,2056,2028
2045,2052,2051,2073,2056,2031,2045,2032
2043,2048,2050,2078,2048,2032,2029,2025
2042,2048,2060,2078,2039,2046,2038,2031
2046,2048,2072,2088,2036,2053,2052,2030
2040,2038,2076,2082,2028,2031,2045,2021
2044,2032,2076,2086,2029,2032,2044,2030
2047,2053,2086,2096,2045,2038,2052,2028
2055,2056,2087,2097,2042,2054,2040,2032
2055,2053,2084,2097,2059,2069,2041,2028
2053,2059,2075,2097,2096,2093,2045,2027
2051,2052,2067,2102,2138,2112,2050,2035
2057,2052,2065,2112,2169,2116,2042,2036
2052,2046,2064,2107,2170,2106,2048,2038
2048,2049,2052,2105,2143,2111,2038,2045
2049,2049,2043,2091,2100,2077,2044,2052
2052,2045,2039,2081,2037,2030,2033,2052
2039,2038,2034,2060,2001,1989,2036,2064
2037,2037,2027,2052,1950,1988,2046,2077
2039,2044,2030,2053,1956,2011,2051,2078
2046,2043,2033,2049,1980,2028,2034,2083
2043,2040,2029,2027,1965,2053,2033,2080
2031,2034,2020,2021,1983,2094,2052,2076
2030,2028,2010,2012,1995,2088,2037,2054
2013,2018,2010,2015,2021,2002,2015,2053
2024,2026,2036,2049,2041,1926,2025,2061
2035,2043,2048,2066,2064,1974,2039,2065
2046,2047,2058,2072,2108,2060,2046,2054
2052,2045,2055,2061,2084,2091,2051,2050
2050,2050,2053,2042,2038,2100,2063,2049
2050,2055,2048,2044,2024,2105,2078,2051
2053,2052,2054,2032,2077,2101,2084,2036
2060,2058,2058,2043,2146,2094,2059,2023
2045,2049,2052,2054,2162,2078,2058,2022
2046,2044,2051,2050,2177,2079,2037,2023
2036,2039,2035,2031,2097,2074,2043,2023
2045,2038,2039,2051,2113,2102,2056,2020
2045,2042,2045,2062,2129,2072,2057,2017
2040,2038,2043,2066,2079,2019,2035,2020
2031,2033,2042,2058,1972,2008,2031,2021
2036,2045,2052,2057,1986,2038,2024,2026
2045,2048,2057,2076,2042,2063,2070,2025
2043,2054,2062,2078,2076,2079,2081,2025
2047,2047,2058,2075,2081,2049,2058,2022
2045,2045,2045,2056,2008,2012,2053,2033
2042,2040,2041,2030,1930,2001,2055,2038
2042,2043,2049,2034,2014,2010,2056,2041
2040,2046,2051,2052,2095,2038,2050,2050
2039,2046,2053,2065,2141,2063,2056,2059
2041,2052,2057,2071,2155,2070,2070,2069
2044,2057,2059,2075,2154,2057,2064,2072
2047,2053,2059,2077,2136,2035,2060,2076
2048,2060,2068,2076,2118,2030,2058,2081
2055,2067,2069,2067,2096,2039,2073,2083
2051,2062,2053,2051,2044,2041,2068,2077
2044,2045,2039,2033,2000,2033,2073,2078
2034,2046,2037,2016,1885,2029,2076,2079
2049,2048,2038,2031,1925,2050,2081,2080
2051,2049,2043,2045,1969,2059,2091,2078
2047,2054,2035,2048,1993,2046,2072,2068
2047,2049,2025,2046,2001,2022,2056,2049
2044,2050,2026,2043,1983,2033,2051,2046
2052,2061,2029,2050,1987,2043,2051,2045
2050,2060,2024,2043,1997,2012,2035,2032
2046,2047,2018,2046,2004,1997,2019,2027
2043,2042,2020,2038,1982,2000,2034,2024
2048,2042,2019,2034,2002,2022,2046,2025
2041,2042,2031,2049,2042,2043,2040,2021
2043,2041,2040,2049,2057,2053,2057,2014
2034,2036,2040,2049,2040,2060,2056,2008
2029,2035,2042,2050,2054,2033,2047,2011
2029,2033,2050,2058,2073,1989,2047,2020
2034,2040,2065,2069,2079,1976,2043,2028
2045,2055,2087,2090,2074,1996,2041,2031
2043,2054,2090,2091,2070,2017,2052,2034
2041,2056,2087,2094,2070,2038,2066,2031
2041,2052,2087,2084,2056,2042,2064,2026
2039,2047,2082,2071,2025,2038,2055,2032
2038,2042,2065,2055,1994,2027,2039,2028
2034,2041,2057,2037,1979,2020,2034,2032
2039,2048,2056,2060,2021,2033,2034,2041
2037,2053,2065,2080,2075,2043,2058,2054
2048,2055,2073,2087,2085,2026,2069,2072
2061,2062,2072,2084,2086,2046,2080,2080
2060,2064,2071,2080,2079,2084,2084,2081
2063,2062,2060,2067,2080,2113,2093,2092
2051,2056,2051,2050,2074,2114,2083,2086
2052,2058,2053,2042,2045,2100,2072,2077
2038,2047,2047,2032,1994,2086,2061,2073
2038,2043,2037,2037,1997,2100,2079,2085
2036,2050,2042,2060,2038,2092,2084,2082
2042,2048,2041,2061,2010,2052,2062,2072
2043,2043,2040,2059,2010,2030,2023,2068
2046,2041,2050,2059,2041,2047,2059,2066
2038,2044,2049,2070,2075,2074,2053,2061
2039,2045,2045,2069,2097,2077,2043,2053
2045,2044,2049,2065,2127,2083,2030,2058
2051,2045,2047,2061,2108,2072,2024,2044
2049,2039,2042,2053,2067,2047,2032,2040
2050,2048,2041,2045,2026,2014,2028,2037
2044,2045,2036,2045,2016,2020,2011,2035
2038,2040,2029,2036,2013,2040,2035,2032
2039,2038,2032,2036,2024,2049,2031,2029
2046,2044,2034,2050,2065,2062,2021,2037
2036,2037,2029,2058,2112,2053,2011,2024
2034,2038,2029,2063,2135,2026,2032,2033
2038,2041,2031,2074,2117,2031,2035,2043
2044,2046,2036,2070,2101,2043,2041,2047
2048,2051,2041,2066,2083,2052,2066,2047
2046,2049,2040,2059,2064,2054,2054,2048
2049,2052,2037,2045,2018,2052,2038,2050
2046,2051,2043,2044,2018,2043,2041,2042
2043,2054,2045,2057,2052,2040,2037,2045
2041,2062,2048,2063,2057,2045,2033,2049
2050,2063,2053,2059,2057,2031,2024,2049
2044,2056,2051,2066,2052,2025,2045,2061
2044,2050,2051,2062,2056,2027,2054,2078
2049,2056,2046,2065,2057,2034,2047,2083
2050,2051,2048,2069,2087,2043,2051,2078
2044,2055,2042,2077,2142,2047,2056,2081
2044,2051,2038,2084,2117,2023,2050,2078
2042,2038,2033,2068,2061,2004,2026,2082
2038,2036,2042,2080,2070,2012,2035,2069
2048,2054,2050,2090,2104,2022,2034,2072
2054,2056,2059,2081,2091,2026,2041,2069
2048,2056,2062,2060,2063,2034,2042,2068
2041,2053,2057,2034,1977,2063,2027,2061
2041,2041,2049,2032,1922,2092,2050,2050
2034,2034,2037,2041,1940,2070,2047,2038
2033,2025,2029,2039,1939,2039,2042,2028
2027,2017,2022,2034,1950,2022,2023,2024
2026,2027,2041,2053,1999,2039,2027,2029
2038,2042,2069,2078,2047,2075,2031,2042
2040,2046,2094,2098,2078,2090,2036,2036
2041,2045,2100,2101,2090,2077,2043,2030
2045,2042,2088,2085,2084,2059,2044,2030
2044,2045,2086,2068,2062,2043,2041,2027
2049,2047,2084,2065,2071,2034,2047,2033
2055,2062,2080,2056,2049,2002,2035,2028
2056,2061,2076,2050,2033,1986,2039,2025
2051,2070,2087,2061,2072,1998,2035,2031
2059,2076,2082,2064,2086,2008,2048,2034
2060,2077,2078,2071,2089,2008,2047,2033
2053,2071,2070,2072,2092,2021,2037,2035
2044,2060,2064,2074,2103,2042,2033,2037
2034,2051,2052,2062,2112,2074,2050,2043
2037,2048,2050,2044,2124,2121,2051,2055
2043,2045,2056,2055,2138,2140,2056,2075
2041,2048,2062,2055,2088,2133,2062,2061
2037,2038,2056,2043,2021,2093,2058,2069
2037,2040,2057,2034,1941,2053,2044,2080
2038,2046,2053,2025,1886,2032,2047,2086
2040,2039,2046,2012,1861,2005,2049,2090
2034,2035,2040,2031,2009,1988,2052,2079
2036,2033,2042,2066,2139,2022,2058,2086
2034,2040,2042,2100,2168,2068,2067,2078
2043,2041,2040,2087,2137,2082,2058,2080
2048,2042,2029,2059,2102,2067,2060,2076
2047,2042,2025,2049,2065,2036,2046,2062
2050,2034,2020,2036,2036,2006,2026,2053
2039,2033,2021,2027,2012,1992,2033,2048
2043,2041,2026,2021,1996,2008,2035,2039
2036,2040,2029,2015,2025,2036,2019,2037
2036,2051,2041,2029,2063,2058,2048,2036
2051,2055,2044,2040,2088,2058,2051,2031
2052,2049,2031,2042,2127,2055,2030,2030
2041,2032,2017,2030,2141,2059,2029,2029
2042,2025,2003,2013,2122,2064,2035,2024
2040,2026,2010,2025,2122,2066,2037,2017
2028,2021,2010,2016,2052,2054,2017,2009
2028,2027,2013,2014,1974,2032,2023,2020
2047,2051,2040,2043,1948,2008,2054,2049
2069,2064,2049,2072,2038,2047,2055,2059
2067,2062,2044,2071,2126,2094,2071,2050
2060,2059,2034,2067,2159,2112,2064,2046
2047,2050,2038,2040,2053,2096,2049,2041
2044,2045,2043,2031,2021,2062,2068,2058
2046,2054,2059,2047,2095,2046,2044,2072
2055,2061,2066,2063,2089,2056,2064,2076
2057,2066,2065,2063,2076,2056,2065,2077
2059,2065,2058,2043,2014,2009,2041,2077
2045,2040,2039,2038,2004,2012,2044,2078
2044,2049,2040,2052,2002,2042,2061,2086
2048,2044,2043,2051,2010,2050,2059,2091
2043,2044,2045,2035,2014,2044,2048,2089
2044,2044,2062,2023,2013,2027,2040,2081
2040,2042,2073,2022,2020,2039,2046,2081
2034,2050,2088,2027,2023,2039,2051,2075
2036,2054,2089,2020,2007,2045,2022,2079
2044,2061,2101,2030,2034,2043,2042,2080
2045,2062,2092,2030,2027,2045,2034,2075
2044,2066,2083,2029,2038,2031,2031,2072
2044,2063,2077,2026,2027,2026,2048,2066
2043,2063,2074,2031,2016,2032,2042,2057
2049,2058,2066,2041,2017,2049,2039,2064
2044,2049,2064,2037,2009,2059,2038,2049
2041,2045,2060,2034,2007,2046,2007,2050
2040,2042,2055,2027,1980,1988,2007,2042
2042,2046,2055,2030,1999,1966,2017,2043
2040,2049,2047,2037,2040,1980,2036,2045
2045,2059,2057,2053,2080,2009,2039,2042
2046,2053,2059,2052,2092,2031,2013,2032
2039,2043,2051,2056,2087,2058,2018,2028
2040,2048,2055,2063,2088,2075,2043,2042
2049,2060,2056,2060,2084,2072,2050,2046
2052,2065,2064,2059,2086,2066,2046,2054
2049,2058,2060,2064,2105,2073,2064,2052
2047,2054,2058,2062,2100,2073,2046,2055
2051,2056,2056,2061,2082,2058,2047,2055
2048,2062,2062,2059,2069,2046,2035,2058
2053,2053,2057,2051,2060,2046,2046,2062
2053,2058,2058,2054,2062,2057,2066,2067
2058,2053,2055,2056,2053,2062,2064,2073
2051,2060,2060,2060,2055,2056,2074,2082
2053,2056,2058,2054,2064,2054,2069,2086
2053,2051,2061,2060,2089,2054,2050,2084
2043,2044,2057,2053,2089,2041,2048,2084
2038,2039,2048,2051,2090,2035,2028,2075
2026,2033,2041,2052,2100,2037,2033,2084
2034,2034,2039,2051,2112,2041,2021,2086
2040,2045,2050,2060,2133,2057,2028,2093
2053,2048,2052,2061,2127,2076,2052,2093
2052,2053,2056,2040,1995,2069,2035,2088
2043,2058,2053,2035,1940,2064,2034,2078
2052,2060,2051,2037,1955,2068,2047,2072
2057,2063,2056,2046,1982,2079,2050,2075
2054,2059,2053,2049,1997,2085,2045,2065
2048,2048,2043,2029,1951,2062,2044,2043
2025,2033,2032,2029,1958,2043,2020,2036
2042,2045,2043,2059,2039,2035,2024,2042
2045,2054,2044,2073,2072,2022,2060,2041
2050,2048,2037,2052,2080,2037,2045,2039
2043,2038,2033,2043,2092,2071,2061,2048
2042,2034,2036,2052,2074,2074,2075,2036
2035,2027,2025,2056,2043,2075,2062,2027
2032,2027,2030,2057,2016,2082,2069,2032
2036,2037,2038,2050,1985,2091,2046,2032
2035,2038,2038,2047,1973,2090,2045,2031
2034,2038,2035,2029,1956,2075,2056,2031
2036,2036,2036,2015,1961,2045,2046,2035
2047,2043,2042,2032,2057,2058,2071,2056
2052,2048,2055,2073,2159,2074,2085,2065
2053,2053,2064,2087,2221,2064,2085,2074
2055,2058,2064,2089,2262,2073,2084,2070
2051,2049,2057,2056,2170,2058,2077,2056
2036,2038,2049,2038,2066,2030,2049,2056
2028,2030,2042,2026,2030,2006,2050,2062
2028,2034,2048,2030,2062,1983,2047,2082
2038,2046,2057,2044,2064,1997,2037,2086
2042,2052,2056,2056,2085,2050,2073,2096
2043,2042,2047,2053,2066,2099,2054,2096
2041,2039,2042,2043,2070,2118,2072,2095
2040,2043,2039,2061,2063,2075,2080,2083
2049,2043,2034,2055,2030,1970,2066,2073
2046,2040,2034,2047,2008,1948,2063,2071
2043,2036,2028,2040,2031,1988,2062,2063
2046,2040,2029,2038,2077,2017,2067,2067
2049,2045,2030,2044,2090,2042,2070,2052
2056,2059,2041,2050,2103,2076,2072,2047
2062,2056,2038,2050,2086,2093,2066,2046
2057,2054,2038,2054,2084,2074,2063,2041
2060,2057,2049,2057,2081,2048,2058,2033
2059,2060,2051,2052,2063,2027,2055,2037
2056,2056,2051,2047,2052,1994,2055,2036
2059,2058,2056,2056,2053,1984,2060,2025
2058,2048,2047,2051,2036,1989,2031,2023
2054,2053,2056,2048,2051,2014,2030,2029
2049,2045,2054,2052,2055,2015,2054,2032
2054,2049,2063,2048,2056,2035,2059,2038
2060,2055,2066,2055,2055,2043,2067,2034
2062,2058,2064,2054,2041,2052,2066,2031
2063,2056,2060,2044,2021,2029,2054,2029
2058,2047,2053,2039,2005,2015,2051,2034
2064,2052,2047,2043,2011,2025,2073,2053
2069,2062,2050,2044,2033,2036,2077,2061
2068,2072,2057,2049,2039,2046,2086,2061
2073,2072,2059,2055,2056,2045,2075,2053
2068,2065,2062,2058,2081,2044,2063,2058
2063,2052,2050,2049,2090,2039,2055,2065
2064,2045,2042,2047,2091,2046,2050,2065
2055,2045,2042,2053,2075,2046,2047,2067
2057,2046,2039,2053,2073,2050,2048,2075
2045,2047,2043,2050,2077,2052,2062,2073
2050,2052,2039,2052,2073,2062,2044,2063
2041,2042,2034,2054,2072,2063,2046,2062
2040,2038,2036,2042,2003,2051,2055,2071
2047,2041,2040,2027,1971,2051,2046,2067
2053,2044,2043,2038,2008,2049,2043,2069
2050,2044,2040,2037,2018,2046,2037,2066
2056,2045,2040,2041,2028,2040,2048,2064
2051,2046,2043,2041,2029,2047,2047,2056
2047,2052,2044,2045,2030,2050,2043,2050
2047,2047,2041,2046,2024,2053,2068,2054
2048,2038,2038,2046,2023,2051,2072,2042
2051,2037,2047,2052,2026,2050,2063,2038
2051,2039,2054,2054,2023,2052,2058,2041
2058,2043,2064,2056,2017,2053,2058,2038
2066,2048,2067,2054,2016,2045,2065,2037
2067,2049,2068,2057,2025,2050,2074,2035
2059,2053,2063,2055,2029,2059,2075,2032
2050,2050,2047,2055,2027,2059,2066,2033
2053,2045,2046,2054,2023,2051,2048,2034
2062,2050,2049,2059,2031,2055,2056,2027
2061,2047,2041,2057,2037,2057,2065,2015
2055,2044,2039,2056,2039,2052,2047,2021
2052,2047,2033,2055,2050,2043,2042,2026
2052,2048,2033,2057,2060,2037,2039,2040
2060,2049,2038,2052,2061,2043,2050,2045
2055,2045,2034,2052,2048,2050,2057,2046
2047,2033,2033,2037,2035,2055,2059,2050
2049,2038,2028,2029,2030,2053,2060,2067
2053,2043,2032,2017,2026,2053,2064,2073
2056,2047,2024,2020,2024,2051,2060,2080
2057,2036,2034,2022,2065,2054,2068,2080
2057,2040,2031,2022,2091,2052,2064,2096
