CH1,CH2,CH3,CH4,CH5,CH6,CH7,CH8
2049,2051,2038,2047,2045,2046,2072,1996
2055,2050,2038,2046,2046,2045,2051,2006
2054,2056,2048,2051,2050,2050,2060,2011
2057,2062,2049,2050,2045,2045,2065,2026
2059,2063,2052,2057,2052,2050,2075,2042
2054,2067,2043,2049,2051,2050,2058,2056
2063,2065,2045,2052,2053,2054,2061,2066
2061,2069,2047,2057,2060,2061,2065,2071
2060,2064,2036,2057,2065,2053,2067,2070
2049,2043,2021,2054,2058,2046,2065,2079
2047,2043,2018,2053,2056,2046,2073,2084
2049,2042,2018,2055,2056,2043,2048,2095
2049,2041,2019,2053,2055,2046,2058,2098
2046,2041,2014,2052,2055,2039,2054,2098
2039,2020,2005,2039,2042,2038,2061,2096
2046,2026,2010,2042,2044,2043,2063,2111
2054,2036,2020,2052,2053,2049,2069,2107
2052,2040,2027,2048,2058,2045,2068,2102
2045,2038,2031,2048,2061,2040,2060,2096
2046,2044,2045,2051,2056,2037,2052,2092
2043,2048,2064,2054,2058,2040,2061,2086
2045,2042,2071,2044,2050,2034,2040,2068
2046,2044,2070,2048,2044,2032,2043,2056
2044,2039,2087,2056,2045,2034,2050,2050
2041,2053,2100,2064,2053,2040,2059,2041
2062,2067,2096,2071,2066,2053,2079,2041
2058,2067,2088,2078,2071,2058,2077,2024
2062,2069,2078,2080,2071,2054,2075,2010
2063,2064,2066,2081,2067,2050,2076,2004
2061,2058,2060,2076,2060,2037,2064,1993
2051,2040,2046,2066,2051,2030,2066,1988
2046,2044,2044,2060,2055,2034,2079,1988
2050,2054,2046,2058,2053,2041,2076,1995
2046,2050,2041,2055,2054,2034,2063,2000
2051,2042,2037,2041,2049,2040,2077,2005
2050,2037,2037,2042,2052,2039,2069,2018
2048,2038,2036,2036,2044,2039,2046,2029
2048,2039,2031,2029,2044,2040,2064,2038
2049,2040,2032,2025,2046,2046,2069,2045
2052,2036,2026,2027,2039,2045,2061,2059
2041,2037,2031,2037,2038,2052,2054,2070
2044,2037,2038,2040,2042,2052,2066,2075
2043,2033,2036,2039,2042,2043,2057,2083
2044,2033,2034,2039,2037,2042,2018,2088
2042,2037,2039,2053,2037,2033,2016,2087
2045,2037,2045,2056,2047,2037,2031,2089
2045,2026,2038,2050,2042,2034,2048,2093
2039,2021,2029,2051,2041,2043,2045,2101
2045,2031,2036,2047,2055,2044,2026,2100
2045,2033,2039,2046,2054,2053,2034,2105
2051,2051,2052,2062,2068,2060,2040,2105
2059,2052,2069,2062,2069,2061,2047,2101
2058,2056,2064,2059,2063,2056,2059,2093
2056,2044,2053,2061,2062,2051,2047,2084
2047,2039,2057,2056,2065,2050,2049,2071
2049,2032,2048,2056,2063,2051,2058,2052
2053,2040,2058,2054,2062,2058,2063,2042
2050,2046,2061,2058,2067,2053,2062,2039
2056,2047,2057,2060,2064,2050,2064,2020
2049,2045,2053,2055,2070,2045,2019,2002
2047,2044,2054,2050,2064,2039,2055,1993
2048,2044,2050,2054,2067,2041,2041,1996
2042,2039,2042,2049,2059,2036,2046,1992
2040,2037,2044,2050,2055,2042,2043,1980
2045,2046,2053,2049,2060,2057,2058,1987
2049,2051,2060,2053,2060,2060,2051,1990
2049,2054,2055,2052,2056,2052,2051,1989
2052,2048,2056,2053,2056,2052,2055,1996
2045,2047,2063,2063,2052,2055,2052,2007
2047,2040,2054,2065,2055,2051,2039,2020
2045,2036,2046,2058,2053,2040,2037,2031
2045,2033,2053,2066,2044,2040,2030,2037
2044,2030,2062,2074,2052,2057,2042,2050
2045,2034,2063,2075,2053,2061,2036,2059
2045,2042,2062,2076,2056,2064,2029,2061
2048,2039,2066,2078,2054,2054,2031,2069
2051,2040,2061,2076,2051,2023,2027,2085
2053,2043,2055,2079,2053,1988,2047,2092
2048,2042,2052,2072,2045,1985,2019,2092
2037,2027,2044,2066,2053,2001,2015,2095
2047,2037,2045,2071,2062,2027,2041,2099
2055,2040,2036,2066,2059,2027,2043,2098
2058,2035,2030,2057,2056,2033,2051,2092
2048,2033,2033,2058,2053,2033,2052,2091
2052,2033,2027,2040,2054,2031,2047,2085
2047,2031,2023,2025,2049,2028,2038,2076
2052,2036,2036,2027,2052,2034,2048,2070
2059,2050,2049,2021,2051,2040,2049,2064
2058,2052,2041,2021,2054,2038,2056,2049
2055,2044,2044,2028,2055,2042,2053,2030
2054,2050,2053,2038,2058,2047,2024,2022
2052,2056,2055,2044,2060,2044,2034,2013
2060,2058,2054,2043,2064,2047,2054,2001
2055,2054,2053,2042,2062,2050,2062,1990
2046,2046,2048,2036,2049,2040,2051,1980
2039,2034,2040,2028,2044,2038,2045,1979
2031,2033,2042,2035,2042,2036,2030,1988
2044,2043,2047,2033,2047,2038,2047,1993
2060,2049,2028,2035,2046,2042,2054,1992
2056,2044,2022,2034,2047,2045,2072,2005
2056,2045,2023,2036,2055,2042,2050,2013
2055,2039,2016,2032,2042,2046,2054,2019
2045,2040,2017,2040,2048,2046,2040,2028
2046,2044,2018,2035,2054,2046,2050,2041
2052,2044,2017,2040,2054,2050,2050,2058
2052,2044,2018,2040,2052,2052,2063,2064
2051,2041,2019,2038,2054,2046,2045,2075
2052,2045,2020,2040,2050,2041,2043,2075
2049,2046,2019,2042,2046,2041,2028,2086
2051,2045,2027,2048,2052,2048,2036,2091
2044,2040,2031,2046,2045,2047,2049,2097
2039,2023,2022,2035,2042,2042,2053,2093
2036,2018,2032,2033,2039,2038,2061,2097
2048,2032,2049,2053,2054,2044,2061,2099
2049,2037,2069,2054,2050,2049,2075,2095
2058,2039,2077,2056,2058,2050,2070,2096
2054,2041,2068,2057,2059,2042,2059,2094
2052,2047,2069,2051,2057,2044,2045,2090
2054,2045,2074,2053,2068,2045,2054,2082
2054,2048,2072,2059,2061,2041,2045,2067
2060,2043,2073,2051,2057,2046,2056,2062
2057,2043,2066,2055,2063,2041,2056,2044
2055,2045,2062,2052,2057,2039,2062,2037
2056,2039,2059,2047,2051,2045,2050,2021
2053,2043,2058,2052,2056,2040,2048,2010
2053,2040,2048,2046,2051,2040,2048,1993
2052,2043,2047,2057,2055,2041,2060,1990
2050,2048,2047,2053,2049,2033,2031,1976
2047,2033,2041,2048,2045,2026,2040,1973
2042,2032,2036,2050,2045,2030,2043,1971
2049,2043,2037,2055,2043,2031,2044,1979
2042,2040,2032,2060,2041,2027,2036,1990
2040,2038,2034,2058,2045,2032,2038,1994
2047,2037,2030,2058,2041,2034,2040,2002
2049,2037,2033,2069,2042,2033,2045,2010
2048,2040,2041,2071,2051,2042,2041,2026
2054,2046,2030,2075,2050,2042,2057,2036
2048,2047,2024,2077,2053,2041,2043,2052
2047,2044,2033,2082,2049,2049,2018,2060
2055,2037,2033,2080,2047,2049,2028,2064
2050,2039,2051,2090,2049,2057,2045,2074
2052,2041,2057,2087,2057,2052,2040,2077
2054,2035,2055,2087,2050,2043,2049,2083
2048,2032,2056,2089,2054,2036,2031,2083
2035,2019,2035,2080,2053,2037,2033,2089
2034,2018,2034,2073,2053,2032,2045,2090
2038,2025,2036,2072,2057,2038,2062,2091
2044,2027,2032,2062,2052,2033,2055,2093
2044,2033,2033,2051,2049,2039,2076,2085
2048,2038,2042,2044,2047,2038,2067,2076
2041,2030,2045,2042,2046,2035,2049,2065
2041,2027,2046,2032,2045,2036,2049,2056
2037,2027,2035,2014,2040,2040,2038,2048
2039,2026,2022,2010,2043,2041,2054,2038
2036,2024,2033,2010,2039,2051,2059,2032
2036,2030,2045,2016,2049,2048,2068,2014
2037,2036,2062,2030,2054,2054,2062,2007
2036,2047,2076,2042,2056,2060,2064,1999
2039,2043,2069,2049,2061,2067,2063,1993
2044,2044,2055,2049,2060,2072,2071,1986
2040,2033,2040,2049,2056,2060,2059,1967
2036,2030,2039,2045,2052,2060,2060,1967
2041,2053,2047,2051,2058,2064,2046,1986
2048,2062,2054,2054,2059,2060,2044,1989
2056,2072,2057,2056,2047,2054,2052,2001
2054,2068,2057,2049,2051,2057,2052,2008
2058,2062,2052,2048,2051,2056,2057,2020
2058,2070,2048,2049,2050,2050,2070,2030
2062,2071,2051,2055,2050,2037,2067,2044
2061,2070,2054,2054,2047,2030,2066,2050
2062,2067,2053,2052,2044,2028,2055,2061
2059,2071,2058,2061,2043,2023,2042,2068
2047,2065,2058,2062,2041,2026,2054,2067
2055,2057,2052,2057,2041,2027,2065,2078
2047,2054,2052,2056,2038,2033,2030,2086
2055,2056,2041,2057,2038,2037,2044,2084
2045,2054,2032,2054,2041,2043,2018,2087
2037,2042,2020,2051,2038,2037,2029,2082
2039,2039,2020,2058,2039,2038,2032,2090
2043,2052,2032,2067,2038,2038,2043,2094
2042,2053,2033,2069,2041,2044,2053,2100
2049,2050,2028,2068,2042,2042,2044,2095
2050,2050,2031,2066,2042,2041,2036,2091
2039,2050,2042,2069,2043,2043,2037,2088
2044,2053,2049,2065,2044,2040,2017,2079
2043,2056,2058,2062,2044,2033,2025,2068
2045,2058,2058,2059,2046,2040,2035,2053
2042,2061,2042,2051,2051,2043,2042,2043
2046,2069,2034,2048,2054,2046,2056,2033
2048,2072,2041,2052,2051,2046,2057,2015
2049,2074,2045,2041,2048,2044,2055,1999
2045,2070,2050,2045,2045,2046,2048,1996
2042,2068,2052,2040,2048,2038,2046,1989
2032,2058,2042,2034,2044,2025,2047,1980
2028,2044,2028,2025,2040,2031,2035,1971
2032,2053,2031,2028,2041,2040,2048,1977
2038,2056,2038,2032,2049,2041,2041,1981
2033,2056,2047,2039,2047,2040,2042,1982
2034,2055,2053,2046,2045,2039,2058,1993
2034,2058,2057,2052,2042,2036,2058,2008
2039,2055,2057,2054,2042,2034,2046,2019
2041,2056,2060,2050,2044,2040,2025,2028
2042,2056,2058,2050,2041,2037,2028,2043
2037,2056,2060,2048,2042,2043,2026,2052
2042,2049,2062,2056,2044,2043,2042,2060
2041,2051,2055,2054,2048,2046,2036,2066
2038,2045,2045,2051,2041,2040,2058,2073
2044,2045,2033,2055,2036,2039,2056,2085
2042,2043,2030,2054,2041,2036,2048,2092
2042,2043,2029,2059,2048,2039,2038,2092
2032,2023,2026,2048,2035,2043,2020,2088
2027,2023,2040,2044,2038,2038,2041,2100
2041,2045,2057,2062,2044,2046,2049,2103
2040,2043,2058,2061,2047,2047,2045,2102
2047,2048,2055,2061,2041,2048,2047,2101
2042,2052,2051,2063,2043,2041,2045,2100
2039,2051,2060,2069,2048,2044,2061,2091
2047,2060,2066,2076,2050,2044,2053,2088
2050,2067,2069,2072,2054,2045,2047,2078
2054,2061,2065,2068,2052,2051,2037,2064
2051,2055,2057,2066,2052,2049,2037,2056
2056,2055,2055,2064,2060,2050,2065,2041
2045,2057,2045,2070,2064,2056,2066,2033
2044,2050,2047,2066,2060,2057,2072,2016
2052,2053,2040,2069,2057,2052,2060,2003
2041,2051,2030,2061,2053,2046,2065,1994
2030,2036,2024,2050,2038,2039,2034,1986
2022,2025,2025,2043,2040,2038,2025,1977
2023,2036,2047,2053,2042,2049,2048,1987
2039,2052,2053,2045,2041,2051,2052,1990
2038,2054,2050,2036,2037,2048,2046,1996
2044,2051,2045,2027,2034,2045,2029,2006
2042,2047,2037,2024,2029,2045,2054,2022
2052,2057,2045,2019,2027,2040,2040,2024
2049,2056,2045,2019,2029,2041,2042,2035
2051,2056,2052,2030,2033,2044,2032,2048
2048,2050,2056,2034,2033,2048,2058,2055
2047,2051,2061,2041,2040,2048,2054,2065
2053,2052,2059,2046,2037,2050,2045,2070
2050,2056,2056,2041,2037,2047,2044,2077
2051,2050,2047,2040,2038,2045,2031,2082
2049,2054,2055,2050,2052,2051,2059,2084
2058,2053,2060,2054,2051,2046,2057,2094
2046,2044,2056,2043,2039,2038,2030,2094
2045,2038,2036,2039,2031,2029,2056,2094
2038,2032,2042,2038,2029,2039,2060,2102
2043,2046,2058,2047,2034,2039,2051,2104
2046,2057,2063,2049,2036,2037,2045,2097
2043,2050,2065,2051,2035,2035,2050,2096
2042,2039,2057,2051,2040,2041,2052,2088
2046,2044,2053,2054,2047,2052,2054,2088
2047,2036,2057,2053,2052,2055,2054,2078
2042,2037,2051,2047,2047,2052,2059,2064
2047,2046,2056,2052,2049,2051,2029,2059
2045,2045,2056,2050,2051,2052,2059,2045
2052,2041,2049,2046,2057,2053,2053,2036
2043,2039,2042,2047,2056,2056,2057,2023
2041,2044,2051,2045,2050,2057,2064,2011
2040,2042,2054,2044,2056,2060,2049,1995
2041,2050,2053,2041,2048,2060,2059,1982
2040,2052,2050,2036,2044,2044,2025,1977
2029,2046,2042,2031,2037,2037,2030,1977
2040,2055,2045,2032,2042,2040,2046,1990
2045,2056,2044,2033,2047,2040,2039,1991
2051,2060,2041,2037,2043,2052,2051,1995
2049,2059,2042,2030,2041,2055,2037,2010
2049,2059,2037,2033,2041,2056,2042,2015
2052,2060,2034,2028,2039,2054,2050,2025
2055,2066,2040,2035,2043,2049,2046,2037
2052,2064,2036,2031,2043,2054,2038,2046
2047,2058,2036,2034,2044,2057,2041,2065
2049,2056,2038,2034,2046,2052,2036,2072
2047,2065,2038,2031,2050,2050,2042,2080
2049,2056,2030,2031,2040,2049,2054,2088
2050,2058,2030,2032,2045,2045,2052,2095
2059,2052,2028,2039,2040,2042,2056,2102
2060,2054,2029,2051,2046,2045,2049,2106
2054,2048,2035,2060,2048,2037,2058,2104
2053,2039,2031,2057,2042,2042,2044,2104
2048,2053,2043,2063,2048,2047,2043,2101
2046,2048,2061,2066,2046,2038,2043,2096
2042,2045,2060,2057,2041,2032,2031,2086
2044,2047,2066,2062,2036,2028,2037,2083
2051,2053,2060,2062,2045,2036,2017,2086
2052,2059,2064,2070,2054,2037,2025,2075
2048,2062,2070,2070,2053,2037,2053,2066
2056,2059,2079,2072,2060,2032,2047,2056
2058,2062,2084,2077,2064,2025,2045,2043
2052,2059,2073,2075,2060,2031,2042,2039
2046,2045,2048,2050,2047,2030,2046,2021
2044,2031,2041,2029,2045,2032,2053,2009
2043,2035,2047,2026,2048,2031,2040,2001
2048,2042,2047,2022,2045,2040,2034,1993
2045,2049,2039,2014,2046,2038,2032,1985
2038,2042,2033,2010,2040,2038,2032,1976
2043,2045,2041,2029,2052,2047,2044,1985
2047,2061,2050,2036,2054,2053,2060,1997
2051,2060,2052,2037,2053,2057,2049,1998
2048,2055,2043,2036,2050,2058,2054,2005
2050,2051,2051,2032,2048,2058,2044,2012
2046,2055,2050,2040,2046,2057,2044,2022
2046,2055,2051,2039,2042,2056,2044,2035
2047,2037,2038,2048,2044,2051,2044,2044
2040,2039,2030,2051,2046,2045,2033,2052
2040,2048,2041,2058,2045,2047,2030,2060
2047,2050,2055,2064,2047,2054,2032,2071
2048,2046,2053,2064,2044,2060,2045,2076
2053,2048,2051,2067,2045,2057,2027,2087
2047,2045,2045,2063,2043,2065,2033,2091
2042,2036,2035,2061,2050,2080,2039,2097
2043,2034,2030,2058,2046,2086,2037,2101
2037,2017,2025,2047,2042,2086,2040,2100
2030,2019,2023,2038,2047,2084,2044,2106
2040,2028,2018,2020,2044,2040,2028,2103
2045,2028,2018,2015,2030,2000,2026,2093
2041,2038,2034,2022,2037,2005,2027,2096
2049,2042,2049,2031,2045,2029,2042,2097
2055,2049,2050,2026,2044,2045,2051,2097
2053,2055,2048,2027,2052,2050,2071,2089
2057,2065,2041,2024,2056,2057,2060,2080
2053,2060,2037,2032,2064,2059,2054,2078
2055,2063,2035,2043,2056,2059,2055,2059
2059,2067,2050,2050,2056,2057,2056,2039
2058,2069,2068,2064,2063,2053,2046,2028
2056,2070,2075,2071,2059,2043,2028,2008
2050,2060,2070,2072,2051,2036,2024,1994
2049,2053,2069,2069,2046,2026,2015,1980
2049,2043,2056,2064,2039,2017,2008,1972
2038,2031,2051,2058,2044,2019,2030,1972
2042,2043,2061,2062,2045,2029,2036,1987
2043,2045,2059,2058,2050,2032,2027,1986
2042,2041,2055,2060,2051,2038,2047,1998
2042,2046,2056,2056,2047,2044,2035,2012
2048,2043,2059,2058,2048,2052,2039,2017
2050,2038,2052,2049,2050,2050,2018,2028
2046,2038,2052,2045,2052,2046,2041,2041
2047,2044,2053,2042,2043,2050,2045,2053
2046,2045,2061,2043,2045,2047,2044,2061
2046,2044,2060,2036,2041,2048,2038,2061
2043,2037,2056,2027,2042,2048,2038,2067
2046,2034,2056,2026,2039,2043,2041,2081
2050,2047,2057,2032,2039,2050,2054,2083
2050,2050,2054,2034,2046,2048,2049,2096
2051,2046,2047,2038,2044,2042,2050,2089
2039,2032,2039,2031,2038,2032,2038,2098
2039,2031,2034,2036,2043,2039,2048,2104
2044,2040,2035,2041,2048,2045,2053,2102
2051,2040,2039,2039,2043,2051,2055,2104
2052,2046,2043,2047,2044,2053,2042,2097
2047,2043,2053,2045,2054,2051,2047,2095
2042,2038,2045,2034,2045,2046,2033,2089
2041,2026,2040,2028,2036,2043,2039,2080
2042,2026,2038,2027,2045,2050,2038,2072
2036,2031,2038,2023,2042,2050,2035,2059
2035,2032,2027,2019,2046,2057,2047,2046
2039,2031,2026,2025,2049,2055,2065,2030
2041,2024,2026,2030,2047,2049,2075,2010
2034,2032,2027,2033,2047,2048,2050,1998
2037,2027,2029,2031,2047,2050,2062,1992
2039,2033,2026,2028,2044,2046,2055,1986
2039,2030,2012,2027,2034,2034,2047,1972
2035,2023,2006,2029,2026,2038,2044,1970
2035,2037,2025,2033,2034,2048,2042,1979
2046,2046,2038,2036,2043,2049,2049,1980
2041,2042,2033,2035,2036,2048,2046,1990
2039,2044,2037,2034,2033,2042,2070,1998
2034,2038,2029,2031,2032,2040,2059,2007
2035,2034,2033,2033,2029,2035,2062,2021
2042,2039,2037,2038,2031,2044,2068,2040
2039,2037,2044,2045,2035,2048,2071,2051
2043,2042,2057,2056,2035,2050,2070,2058
2042,2049,2062,2061,2036,2052,2063,2068
2049,2056,2064,2057,2036,2052,2070,2072
2047,2060,2075,2054,2032,2049,2071,2081
2045,2056,2079,2056,2034,2051,2066,2088
2051,2055,2081,2059,2037,2051,2057,2096
2048,2061,2089,2059,2043,2046,2040,2094
2038,2056,2085,2052,2034,2044,2051,2094
2040,2054,2090,2054,2034,2049,2027,2103
2048,2065,2090,2054,2037,2044,2033,2104
2045,2073,2092,2058,2045,2055,2048,2114
2053,2072,2087,2052,2043,2053,2035,2107
2055,2073,2081,2044,2051,2055,2046,2098
2054,2068,2074,2040,2054,2058,2040,2095
2051,2065,2071,2040,2053,2060,2060,2081
2053,2069,2058,2037,2047,2062,2054,2072
2047,2060,2052,2028,2048,2059,2053,2056
2053,2054,2054,2036,2053,2055,2056,2040
2048,2053,2053,2033,2045,2052,2050,2026
2036,2044,2061,2040,2048,2053,2052,2010
2037,2044,2061,2044,2046,2057,2051,2000
2042,2047,2067,2045,2045,2058,2044,1987
2041,2046,2056,2044,2051,2061,2052,1981
2035,2039,2049,2032,2040,2050,2045,1968
2031,2034,2041,2028,2041,2049,2051,1974
2038,2046,2042,2039,2044,2059,2059,1978
2041,2047,2042,2037,2043,2056,2037,1989
2040,2049,2041,2040,2042,2053,2028,2000
2044,2050,2033,2038,2041,2052,2038,2003
2047,2051,2036,2036,2044,2055,2021,2004
2044,2044,2034,2033,2042,2052,2028,2025
2040,2035,2031,2035,2037,2049,2044,2042
2036,2037,2042,2034,2039,2048,2052,2049
2038,2037,2044,2039,2041,2050,2037,2050
2043,2041,2045,2039,2038,2051,2055,2058
2042,2038,2045,2042,2030,2046,2055,2070
2037,2027,2052,2035,2027,2045,2045,2078
2039,2031,2056,2037,2033,2042,2061,2086
2040,2033,2058,2039,2038,2042,2060,2094
2042,2036,2045,2041,2042,2040,2050,2095
2038,2030,2042,2040,2046,2046,2054,2102
2048,2038,2047,2048,2047,2050,2058,2109
2055,2058,2057,2059,2057,2058,2067,2106
2053,2064,2068,2069,2054,2058,2064,2104
2057,2057,2068,2062,2054,2052,2062,2094
2052,2052,2074,2064,2049,2051,2058,2089
2049,2056,2070,2061,2055,2052,2056,2072
2045,2051,2064,2062,2048,2049,2067,2064
2039,2044,2057,2055,2052,2047,2053,2056
2040,2040,2054,2064,2054,2052,2056,2044
2042,2039,2052,2062,2053,2051,2066,2031
2041,2038,2056,2062,2052,2048,2054,2020
2040,2036,2058,2058,2049,2053,2064,2006
2043,2052,2070,2063,2050,2050,2062,2001
2044,2054,2070,2064,2052,2045,2051,1996
2047,2049,2058,2049,2046,2040,2039,1986
2038,2036,2033,2026,2035,2030,2034,1979
2028,2025,2020,2020,2034,2038,2040,1982
2038,2033,2033,2028,2038,2041,2056,1987
2042,2046,2047,2029,2044,2044,2058,2002
2051,2047,2052,2026,2033,2038,2048,2008
2051,2055,2054,2025,2034,2040,2051,2022
2058,2048,2056,2034,2037,2042,2058,2029
2052,2053,2061,2038,2036,2042,2053,2042
2057,2047,2052,2040,2037,2042,2058,2059
2053,2047,2054,2042,2035,2038,2052,2070
2049,2049,2051,2052,2040,2033,2055,2071
2053,2045,2056,2047,2049,2031,2030,2071
2051,2044,2048,2043,2044,2044,2047,2078
2048,2046,2049,2044,2047,2045,2047,2080
2051,2041,2044,2046,2042,2045,2042,2088
2047,2042,2047,2043,2041,2039,2046,2097
2047,2035,2044,2039,2035,2034,2033,2101
2034,2029,2038,2035,2039,2038,2054,2104
2044,2033,2046,2038,2049,2049,2041,2106
2043,2032,2041,2033,2044,2046,2038,2102
2046,2027,2036,2034,2048,2046,2058,2092
2041,2032,2042,2037,2054,2046,2062,2098
2041,2037,2045,2040,2055,2052,2074,2092
2050,2040,2048,2046,2062,2056,2072,2083
2055,2038,2045,2039,2054,2052,2059,2078
2044,2043,2034,2041,2056,2050,2047,2060
2039,2046,2039,2042,2057,2054,2048,2049
2042,2036,2031,2040,2051,2050,2068,2030
2039,2029,2029,2031,2050,2051,2068,2021
2033,2025,2027,2030,2050,2058,2061,2007
2044,2038,2031,2029,2055,2057,2079,1990
2034,2030,2027,2031,2047,2048,2059,1980
2029,2016,2017,2027,2040,2041,2051,1969
2032,2023,2029,2033,2039,2040,2046,1970
2040,2037,2049,2042,2049,2042,2052,1980
2043,2048,2050,2046,2050,2053,2045,1987
2046,2046,2046,2048,2043,2041,2041,2001
2043,2043,2038,2044,2045,2042,2037,2006
2040,2049,2046,2044,2044,2039,2058,2018
2051,2050,2051,2049,2041,2040,2060,2035
2043,2053,2061,2052,2035,2037,2067,2045
2051,2046,2056,2055,2029,2038,2046,2057
2047,2047,2051,2050,2046,2047,2041,2075
2054,2051,2054,2053,2045,2048,2043,2082
2052,2054,2048,2058,2047,2055,2051,2093
2052,2050,2054,2055,2045,2061,2046,2095
2055,2047,2058,2061,2058,2059,2055,2104
2054,2052,2054,2057,2056,2057,2064,2099
2044,2037,2035,2046,2039,2052,2054,2098
2041,2032,2027,2042,2044,2048,2045,2108
2052,2045,2038,2062,2057,2057,2050,2109
2051,2046,2032,2053,2052,2054,2068,2109
2049,2042,2026,2050,2043,2053,2061,2099
2049,2039,2025,2047,2041,2048,2058,2101
2046,2032,2027,2043,2046,2051,2058,2092
2045,2035,2025,2043,2054,2053,2052,2084
2048,2039,2033,2050,2056,2053,2053,2075
2046,2045,2037,2052,2058,2061,2057,2067
2052,2054,2044,2060,2059,2070,2074,2054
2051,2052,2050,2055,2062,2060,2048,2050
2050,2052,2057,2058,2068,2060,2053,2037
2048,2052,2050,2054,2070,2058,2052,2015
2045,2044,2046,2052,2060,2054,2059,2011
2038,2035,2046,2058,2060,2045,2052,2004
2042,2045,2052,2060,2056,2040,2039,1993
2032,2038,2055,2051,2046,2034,2043,1988
2032,2041,2047,2054,2049,2039,2059,1989
2045,2046,2048,2053,2044,2044,2053,1995
2048,2045,2039,2048,2045,2040,2044,2000
2047,2050,2044,2047,2046,2036,2055,2008
2052,2054,2049,2053,2045,2042,2025,2018
2050,2053,2049,2048,2040,2053,2023,2036
2053,2051,2044,2052,2044,2051,2046,2050
2058,2056,2048,2053,2051,2064,2050,2059
2059,2058,2047,2054,2059,2064,2059,2072
2055,2060,2052,2050,2061,2068,2064,2078
2056,2061,2052,2050,2057,2070,2060,2080
2054,2062,2062,2051,2056,2064,2052,2088
2058,2050,2056,2048,2046,2056,2053,2096
2055,2052,2052,2054,2046,2056,2050,2103
2060,2051,2043,2052,2044,2053,2033,2108
2053,2046,2049,2047,2039,2041,2041,2107
2042,2041,2040,2046,2041,2028,2039,2109
2045,2046,2053,2051,2046,2027,2023,2113
2046,2051,2062,2058,2043,2037,2060,2109
2047,2044,2051,2054,2048,2039,2066,2097
2046,2044,2048,2056,2051,2044,2064,2098
2040,2042,2051,2067,2053,2042,2058,2087
2043,2040,2045,2075,2056,2039,2058,2087
2038,2038,2040,2073,2062,2035,2051,2075
2045,2040,2039,2070,2061,2040,2041,2063
2044,2034,2035,2069,2067,2045,2074,2053
2048,2039,2028,2071,2061,2046,2067,2037
2047,2040,2023,2077,2067,2061,2070,2031
2049,2043,2039,2083,2068,2057,2066,2020
2054,2054,2054,2089,2079,2061,2052,2006
2057,2057,2059,2088,2078,2055,2055,1995
2055,2048,2058,2088,2072,2053,2051,1982
2041,2034,2045,2071,2064,2047,2050,1970
2038,2029,2041,2065,2066,2048,2059,1975
2042,2036,2042,2046,2063,2048,2058,1985
2042,2034,2036,2032,2053,2044,2052,1997
2044,2036,2051,2039,2052,2049,2061,1999
2051,2049,2072,2053,2059,2059,2068,2012
2048,2062,2085,2052,2057,2070,2060,2022
2053,2061,2070,2050,2059,2065,2064,2030
2056,2057,2058,2043,2061,2060,2054,2042
2057,2057,2056,2043,2053,2066,2047,2053
2054,2051,2050,2039,2046,2078,2058,2062
2048,2047,2044,2038,2048,2084,2054,2076
2053,2042,2040,2041,2050,2101,2070,2085
2052,2050,2041,2047,2059,2073,2062,2088
2060,2046,2045,2057,2039,2016,2054,2086
2056,2046,2044,2056,2043,1993,2056,2088
2039,2033,2035,2044,2044,1999,2042,2084
2038,2027,2027,2036,2039,2013,2039,2093
2048,2036,2037,2038,2041,2034,2030,2093
2041,2039,2040,2040,2048,2031,2028,2091
2048,2037,2037,2036,2050,2036,2047,2088
2053,2044,2044,2033,2051,2042,2038,2088
2047,2042,2034,2031,2053,2046,2056,2090
2049,2048,2042,2041,2053,2050,2054,2081
2054,2050,2049,2047,2051,2050,2054,2071
2050,2041,2035,2045,2054,2043,2057,2064
2045,2033,2038,2040,2046,2045,2053,2046
2048,2044,2043,2036,2046,2046,2062,2035
2048,2046,2047,2044,2047,2047,2049,2020
2048,2053,2053,2041,2043,2044,2057,2006
2046,2053,2049,2040,2047,2045,2043,1996
2049,2054,2044,2037,2046,2047,2043,1986
2038,2036,2031,2037,2041,2046,2044,1969
2038,2032,2029,2041,2038,2046,2038,1976
2039,2041,2028,2053,2052,2063,2054,1984
2040,2041,2027,2061,2052,2069,2059,1987
2042,2047,2028,2055,2044,2068,2064,1994
2047,2044,2030,2054,2048,2068,2056,2001
2049,2047,2027,2056,2048,2065,2056,2008
2052,2050,2035,2060,2042,2065,2058,2029
2045,2049,2030,2057,2040,2056,2057,2044
2047,2044,2027,2056,2050,2061,2061,2054
2045,2042,2023,2051,2051,2067,2055,2062
2050,2040,2020,2057,2060,2067,2067,2065
2045,2034,2008,2049,2053,2077,2070,2078
2053,2036,2010,2042,2050,2072,2062,2090
2043,2034,2019,2033,2037,2061,2044,2093
2051,2042,2026,2036,2039,2056,2029,2098
2049,2038,2025,2027,2043,2054,2034,2100
2049,2042,2027,2029,2034,2064,2042,2109
2053,2058,2039,2044,2047,2071,2060,2111
2058,2048,2039,2053,2050,2065,2052,2107
2052,2049,2049,2056,2052,2064,2044,2101
2064,2052,2059,2060,2052,2064,2042,2095
2059,2062,2066,2058,2050,2057,2040,2100
2056,2066,2069,2061,2048,2050,2042,2081
2055,2056,2062,2055,2051,2048,2048,2077
2055,2058,2057,2047,2046,2051,2058,2064
2044,2049,2042,2038,2044,2047,2056,2042
2042,2045,2036,2029,2043,2043,2056,2033
2037,2044,2055,2037,2043,2041,2054,2021
2043,2050,2058,2042,2047,2042,2055,2004
2044,2049,2045,2035,2049,2046,2044,1990
2038,2047,2046,2041,2046,2044,2053,1993
2041,2040,2047,2038,2049,2043,2050,1990
2040,2038,2042,2040,2049,2050,2029,1985
2052,2047,2047,2046,2045,2058,2072,1988
2052,2052,2055,2045,2038,2057,2065,1989
2044,2053,2058,2047,2038,2056,2053,2003
2041,2050,2057,2054,2035,2057,2052,2016
2051,2052,2062,2051,2040,2060,2053,2028
2056,2057,2060,2047,2041,2053,2058,2040
2053,2045,2045,2041,2033,2051,2046,2045
2043,2040,2042,2040,2034,2051,2055,2056
2047,2041,2032,2041,2031,2048,2047,2063
2045,2041,2043,2041,2038,2048,2041,2068
2046,2046,2036,2044,2037,2049,2045,2078
2040,2050,2045,2048,2039,2049,2053,2083
2046,2040,2044,2054,2042,2058,2054,2091
2044,2044,2045,2054,2036,2053,2047,2091
2040,2033,2041,2047,2038,2047,2046,2092
2039,2036,2045,2053,2037,2049,2050,2103
2039,2042,2062,2056,2053,2058,2051,2104
2037,2048,2065,2059,2053,2053,2061,2108
2049,2055,2072,2061,2049,2059,2045,2102
2044,2053,2071,2060,2051,2056,2033,2100
2045,2052,2062,2068,2052,2052,2034,2093
2046,2046,2069,2069,2056,2046,2052,2076
2041,2041,2056,2068,2067,2046,2043,2069
2041,2047,2055,2072,2063,2055,2058,2062
2042,2045,2048,2066,2066,2059,2062,2044
2042,2046,2038,2066,2065,2062,2060,2029
2037,2039,2035,2059,2064,2058,2059,2016
2041,2036,2024,2045,2060,2052,2053,2006
2040,2034,2021,2036,2055,2046,2038,1994
2036,2039,2029,2034,2057,2044,2029,1988
2029,2026,2017,2020,2048,2040,2022,1975
2027,2028,2010,2017,2054,2041,2048,1979
2031,2033,2015,2027,2060,2047,2055,1985
2042,2041,2023,2033,2055,2047,2058,1989
2039,2044,2035,2039,2048,2050,2049,1996
2044,2042,2044,2053,2056,2051,2046,2002
2041,2043,2044,2050,2051,2053,2024,2017
2046,2043,2046,2047,2042,2051,2031,2030
2051,2041,2040,2047,2039,2053,2045,2042
2043,2042,2050,2049,2038,2056,2041,2053
2044,2038,2053,2044,2040,2060,2028,2054
2043,2043,2054,2048,2043,2061,2039,2066
2043,2039,2048,2053,2049,2060,2058,2078
2040,2034,2036,2046,2055,2057,2065,2076
2035,2036,2021,2049,2050,2053,2047,2083
2039,2038,2021,2050,2052,2059,2055,2090
2032,2029,2020,2052,2047,2056,2039,2083
2032,2030,2025,2048,2047,2058,2054,2094
2043,2047,2032,2060,2055,2067,2060,2093
2037,2042,2037,2054,2048,2056,2064,2094
2041,2044,2045,2064,2053,2062,2054,2091
2044,2041,2042,2059,2055,2063,2058,2084
2038,2045,2048,2063,2056,2060,2070,2079
2047,2043,2043,2059,2055,2063,2042,2067
2045,2040,2049,2058,2059,2063,2061,2063
2042,2052,2051,2054,2058,2061,2050,2055
2048,2049,2046,2051,2058,2065,2053,2042
2051,2050,2034,2044,2055,2063,2056,2031
2048,2047,2028,2044,2064,2058,2052,2017
2047,2046,2010,2044,2057,2058,2061,2007
2053,2043,2007,2046,2059,2050,2055,1996
2050,2046,2000,2039,2053,2056,2045,1980
2043,2033,1992,2015,2039,2043,2020,1974
2038,2029,1981,2008,2035,2044,2038,1970
2051,2038,1988,2018,2040,2052,2045,1980
2049,2045,1989,2018,2038,2049,2052,1986
2044,2042,1993,2017,2033,2042,2036,1995
2049,2037,2015,2026,2036,2046,2038,2000
2047,2042,2046,2052,2039,2044,2040,2012
2052,2051,2072,2053,2049,2045,2044,2028
2054,2058,2062,2056,2055,2051,2047,2042
2053,2056,2051,2052,2054,2049,2028,2055
2058,2057,2046,2047,2048,2048,2048,2069
2057,2051,2054,2052,2035,2048,2049,2068
2056,2052,2067,2060,2032,2054,2058,2083
2061,2060,2088,2063,2044,2051,2049,2087
2067,2065,2105,2077,2047,2056,2031,2095
2062,2064,2105,2072,2049,2056,2034,2094
2042,2049,2084,2064,2052,2057,2029,2091
2044,2042,2074,2057,2039,2057,2010,2098
2053,2056,2076,2054,2051,2066,2016,2103
2060,2057,2068,2048,2047,2054,2022,2107
2055,2057,2067,2051,2045,2051,2010,2096
2054,2064,2055,2046,2042,2053,2010,2091
2059,2062,2059,2049,2044,2050,2027,2082
2055,2061,2052,2044,2044,2050,2018,2069
2052,2056,2050,2044,2046,2050,2020,2062
2056,2060,2053,2047,2056,2056,2002,2063
2057,2070,2064,2055,2062,2061,2032,2042
2057,2071,2069,2053,2064,2056,2020,2028
2053,2070,2064,2056,2060,2056,2038,2020
2050,2066,2069,2050,2054,2050,2039,2001
2053,2068,2065,2049,2059,2052,2032,1992
2055,2067,2060,2051,2056,2047,2039,1985
2046,2054,2054,2051,2045,2040,2035,1970
2038,2046,2056,2048,2050,2035,2009,1974
2048,2054,2060,2056,2053,2043,2026,1976
2051,2060,2061,2064,2052,2037,2040,1980
2050,2060,2067,2055,2054,2036,2033,1988
2052,2059,2064,2059,2052,2041,2035,1992
2051,2054,2064,2064,2052,2044,2039,2007
2045,2056,2065,2058,2045,2039,2027,2024
2055,2059,2064,2064,2047,2038,2040,2027
2050,2055,2060,2063,2049,2044,2035,2037
2047,2058,2057,2064,2046,2046,2035,2043
2049,2054,2055,2060,2049,2050,2048,2051
2044,2050,2051,2056,2048,2044,2032,2060
2045,2046,2041,2057,2049,2041,2038,2066
2051,2043,2049,2057,2047,2047,2034,2078
2052,2043,2035,2060,2044,2049,2048,2080
2044,2037,2032,2064,2041,2052,2042,2080
2040,2041,2029,2067,2045,2057,2038,2086
2040,2036,2029,2068,2049,2062,2031,2086
2042,2044,2028,2058,2048,2054,2023,2082
2040,2036,2015,2043,2041,2049,2025,2076
2042,2032,2021,2047,2046,2048,2018,2072
2043,2037,2036,2061,2043,2040,2025,2072
2045,2048,2045,2061,2045,2048,2024,2062
2045,2055,2035,2056,2048,2051,2023,2058
2047,2046,2035,2051,2044,2043,2044,2049
2046,2046,2026,2050,2051,2050,2044,2036
2051,2051,2038,2055,2047,2049,2047,2028
2046,2054,2031,2045,2045,2052,2054,2008
2048,2054,2033,2035,2037,2049,2048,1999
2044,2056,2037,2030,2039,2053,2025,1979
2044,2055,2040,2038,2042,2064,2032,1973
2041,2063,2044,2041,2045,2058,2044,1964
2039,2052,2052,2042,2048,2064,2035,1967
2050,2065,2058,2049,2051,2068,2045,1978
2063,2074,2065,2056,2052,2072,2054,1983
2057,2074,2062,2056,2052,2070,2055,1985
2060,2075,2064,2057,2048,2063,2049,1996
2057,2066,2057,2057,2050,2061,2053,2009
2061,2070,2069,2061,2054,2062,2033,2029
2058,2072,2065,2058,2055,2058,2034,2045
2065,2076,2061,2059,2051,2050,2027,2044
2058,2073,2057,2050,2053,2043,2032,2048
2060,2069,2058,2041,2054,2043,2046,2061
2058,2072,2056,2042,2054,2053,2042,2068
2052,2056,2046,2034,2045,2041,2036,2077
2051,2060,2042,2036,2049,2038,2048,2083
2050,2059,2038,2038,2048,2042,2053,2084
2043,2052,2037,2031,2039,2037,2024,2078
2044,2038,2038,2025,2038,2040,2043,2087
2046,2036,2030,2028,2047,2054,2052,2086
2053,2044,2031,2030,2045,2059,2050,2084
2052,2047,2035,2032,2048,2071,2058,2089
2046,2054,2048,2044,2054,2075,2059,2088
2049,2061,2056,2049,2060,2097,2070,2092
2054,2066,2056,2053,2070,2106,2069,2087
2060,2069,2060,2050,2066,2117,2071,2074
2061,2065,2052,2049,2066,2123,2070,2064
2062,2064,2052,2051,2072,2119,2065,2055
2058,2063,2052,2050,2069,2087,2072,2038
2055,2065,2050,2051,2065,2034,2062,2020
2052,2057,2045,2050,2051,2010,2072,2007
2042,2054,2040,2043,2042,2015,2064,1986
2041,2052,2052,2052,2048,2045,2060,1987
2042,2052,2048,2049,2054,2061,2068,1978
2044,2040,2032,2043,2048,2065,2058,1969
2034,2040,2031,2044,2052,2069,2063,1976
2046,2053,2042,2054,2055,2067,2060,1979
2049,2052,2038,2055,2056,2070,2061,1992
2045,2060,2045,2053,2055,2076,2047,1996
2049,2060,2052,2056,2059,2071,2058,2008
2056,2062,2056,2060,2050,2065,2057,2017
2044,2062,2061,2061,2049,2051,2060,2028
2046,2058,2058,2056,2044,2046,2054,2039
2047,2055,2056,2054,2059,2044,2059,2048
2051,2049,2053,2055,2047,2038,2052,2056
2043,2055,2053,2051,2049,2036,2061,2069
2052,2063,2058,2054,2053,2029,2055,2080
2054,2059,2049,2048,2036,2018,2048,2080
2047,2049,2035,2041,2037,2031,2049,2084
2042,2037,2024,2034,2032,2028,2032,2087
2028,2025,2021,2024,2022,2020,2029,2088
2038,2022,2015,2029,2030,2027,2042,2100
2047,2038,2027,2042,2036,2034,2053,2097
2049,2045,2025,2044,2039,2043,2041,2089
2043,2043,2024,2042,2039,2044,2029,2087
2042,2037,2025,2036,2039,2048,2036,2076
2037,2036,2026,2038,2045,2047,2060,2069
2043,2039,2026,2044,2043,2052,2062,2067
2048,2038,2028,2039,2045,2053,2065,2057
2046,2042,2028,2040,2053,2055,2058,2053
2049,2045,2031,2040,2050,2047,2060,2043
2050,2040,2039,2036,2051,2043,2054,2030
2048,2045,2052,2042,2047,2046,2053,2017
2049,2040,2057,2053,2050,2043,2055,2004
2045,2040,2068,2053,2046,2038,2057,1994
2044,2036,2056,2055,2042,2044,2057,1981
2035,2033,2040,2050,2036,2036,2047,1971
2031,2026,2033,2049,2040,2031,2052,1962
2041,2037,2046,2054,2042,2032,2046,1980
2044,2049,2051,2054,2047,2029,2041,1991
2046,2054,2053,2055,2042,2032,2049,1995
2045,2053,2057,2054,2045,2037,2044,2000
2043,2058,2057,2053,2044,2046,2042,2011
2051,2060,2053,2051,2044,2042,2043,2027
2054,2056,2052,2048,2047,2043,2043,2036
2051,2059,2054,2040,2046,2040,2041,2048
2055,2058,2057,2033,2045,2040,2037,2059
2053,2056,2073,2030,2040,2042,2044,2064
2044,2056,2066,2031,2036,2038,2041,2076
2051,2050,2061,2028,2037,2041,2027,2084
2046,2046,2058,2022,2040,2039,2044,2089
2054,2049,2062,2036,2041,2040,2041,2091
2056,2043,2063,2035,2032,2036,2051,2084
2046,2032,2056,2030,2033,2035,2034,2097
2039,2027,2046,2035,2039,2045,2061,2097
2051,2043,2049,2041,2052,2056,2056,2106
2050,2043,2044,2044,2053,2054,2058,2094
2045,2036,2041,2040,2050,2052,2062,2086
2042,2036,2038,2032,2045,2044,2051,2082
2041,2037,2043,2043,2038,2047,2047,2071
2052,2045,2050,2039,2045,2058,2048,2068
2051,2043,2048,2039,2049,2058,2056,2060
2049,2037,2048,2042,2049,2054,2064,2052
2045,2037,2050,2047,2048,2060,2034,2042
2049,2045,2054,2056,2051,2061,2061,2031
2046,2041,2049,2059,2055,2054,2067,2017
2038,2041,2043,2064,2053,2055,2054,2005
2036,2035,2043,2061,2048,2056,2031,1989
2036,2035,2040,2062,2048,2047,2048,1982
2032,2029,2039,2066,2047,2048,2036,1971
2035,2023,2031,2061,2048,2051,2047,1969
2027,2027,2026,2065,2055,2051,2052,1972
2035,2025,2026,2060,2052,2057,2051,1977
2033,2031,2027,2058,2054,2057,2055,1992
2038,2037,2020,2063,2046,2047,2051,1996
2037,2038,2018,2060,2041,2044,2053,2014
2041,2032,2005,2041,2033,2040,2055,2029
2048,2040,2001,2028,2030,2044,2048,2036
2046,2038,2000,2009,2028,2041,2052,2047
2040,2030,2000,2008,2027,2042,2049,2056
2042,2030,2003,2001,2033,2044,2052,2061
2045,2031,2002,2002,2042,2048,2056,2070
2048,2032,1995,1994,2040,2046,2044,2081
2049,2031,2002,2008,2039,2043,2045,2090
2049,2044,2017,2012,2043,2049,2036,2097
2058,2047,2032,2030,2045,2048,2033,2100
2052,2048,2043,2027,2046,2052,2030,2100
2047,2040,2042,2032,2050,2051,2027,2101
2053,2042,2056,2042,2046,2049,2044,2098
2053,2032,2052,2039,2036,2038,2034,2097
2034,2024,2049,2037,2037,2040,2036,2089
2037,2024,2041,2043,2043,2041,2038,2085
2041,2034,2037,2039,2037,2043,2037,2076
2042,2045,2048,2052,2052,2054,2029,2069
2048,2054,2064,2061,2051,2056,2047,2059
2045,2053,2063,2058,2054,2060,2049,2049
2047,2053,2068,2059,2054,2061,2056,2037
2046,2056,2085,2065,2056,2057,2045,2026
2048,2051,2084,2060,2054,2055,2061,2010
2045,2047,2089,2057,2046,2050,2047,1995
2047,2052,2094,2063,2050,2050,2056,1990
2052,2062,2090,2054,2050,2055,2054,1979
2055,2053,2083,2060,2045,2051,2044,1974
2051,2052,2074,2056,2044,2048,2045,1981
2056,2057,2077,2061,2045,2048,2046,1985
2057,2050,2068,2068,2040,2057,2045,1987
2061,2058,2069,2065,2044,2050,2050,1995
2054,2064,2072,2070,2041,2060,2046,2009
2058,2065,2071,2067,2042,2054,2065,2029
2059,2063,2067,2068,2047,2053,2043,2031
2056,2065,2067,2068,2051,2060,2060,2040
2048,2066,2065,2064,2044,2056,2046,2056
2057,2059,2056,2062,2039,2059,2044,2064
2058,2058,2054,2054,2044,2056,2044,2079
2062,2053,2052,2048,2040,2054,2041,2076
2057,2056,2049,2043,2044,2053,2038,2081
2052,2051,2050,2036,2041,2052,2044,2087
2052,2044,2043,2029,2043,2050,2028,2098
2045,2034,2024,2030,2041,2046,2038,2090
2039,2036,2021,2041,2043,2051,2040,2101
2046,2043,2033,2060,2057,2058,2035,2101
2050,2049,2025,2070,2058,2059,2043,2100
2050,2051,2028,2090,2062,2057,2046,2091
2049,2047,2037,2098,2062,2058,2051,2089
2053,2056,2047,2094,2060,2054,2040,2086
2049,2056,2047,2086,2061,2060,2026,2071
2050,2059,2035,2078,2057,2065,2033,2063
2044,2051,2028,2065,2053,2064,2028,2050
2044,2045,2028,2045,2052,2074,2048,2029
2043,2041,2032,2038,2051,2080,2039,2017
2042,2045,2028,2029,2053,2079,2046,2004
2040,2050,2022,2018,2046,2078,2046,1995
2045,2042,2029,2016,2049,2072,2047,1985
2045,2043,2036,2016,2042,2050,2056,1989
2042,2046,2032,2005,2043,2043,2049,1981
2041,2036,2010,1988,2030,2042,2049,1972
2035,2041,2034,1984,2032,2043,2038,1972
2039,2058,2079,2016,2030,2050,2028,1984
2054,2082,2117,2033,2047,2057,2048,1998
2058,2086,2106,2039,2052,2056,2047,2005
2059,2070,2082,2038,2044,2053,2028,2013
2054,2060,2068,2032,2047,2048,2044,2033
2056,2061,2060,2031,2048,2052,2046,2041
2053,2058,2059,2036,2048,2058,2059,2051
2054,2058,2056,2039,2050,2054,2031,2056
2047,2054,2058,2045,2052,2056,2043,2068
2057,2062,2061,2046,2058,2059,2040,2071
2055,2055,2060,2047,2059,2063,2036,2075
2054,2051,2059,2041,2047,2061,2059,2083
2047,2052,2055,2043,2048,2062,2059,2090
2044,2051,2057,2037,2050,2054,2046,2089
2039,2037,2045,2036,2052,2054,2019,2087
2043,2035,2045,2041,2061,2057,2043,2104
2053,2044,2046,2043,2051,2058,2018,2097
2043,2045,2047,2043,2052,2057,2022,2091
2044,2052,2049,2042,2057,2055,2030,2089
2046,2052,2057,2045,2053,2051,2044,2083
2054,2054,2056,2047,2063,2051,2028,2080
2053,2059,2058,2047,2061,2050,2046,2080
2059,2061,2060,2050,2062,2054,2056,2068
2058,2067,2062,2059,2070,2056,2058,2048
2061,2066,2060,2052,2073,2068,2038,2042
2060,2068,2058,2050,2069,2071,2041,2022
2056,2065,2054,2047,2070,2059,2055,2002
2042,2057,2044,2048,2061,2062,2045,1995
2046,2055,2051,2050,2061,2063,2038,1988
2040,2055,2047,2048,2059,2057,2026,1975
2040,2043,2040,2041,2055,2058,2029,1974
2041,2043,2046,2052,2056,2056,2030,1975
2044,2056,2043,2051,2055,2057,2025,1977
2044,2043,2041,2051,2053,2053,2021,1987
2041,2036,2035,2042,2051,2049,2026,1986
2041,2039,2027,2047,2047,2051,2034,2004
2038,2035,2030,2043,2049,2047,2034,2017
2043,2037,2027,2044,2050,2043,2031,2028
2045,2037,2032,2044,2046,2043,2036,2040
2048,2045,2036,2049,2055,2050,2048,2052
2049,2048,2035,2051,2057,2053,2024,2062
2041,2044,2028,2051,2053,2041,2046,2069
2044,2053,2033,2045,2056,2040,2045,2077
2045,2055,2035,2050,2048,2043,2036,2086
2049,2047,2026,2050,2049,2038,2027,2092
2039,2048,2028,2045,2041,2029,2021,2086
2036,2028,2020,2032,2038,2031,2032,2088
2032,2029,2015,2033,2044,2038,2039,2096
2042,2052,2042,2042,2052,2050,2057,2096
2036,2050,2047,2046,2052,2050,2061,2094
2048,2053,2045,2048,2062,2060,2044,2094
2046,2060,2056,2060,2060,2060,2042,2088
2053,2059,2063,2058,2064,2067,2035,2081
2052,2052,2064,2056,2066,2072,2034,2069
2050,2055,2054,2057,2060,2077,2053,2066
2047,2053,2051,2053,2065,2082,2047,2061
2043,2054,2055,2053,2064,2086,2049,2044
2041,2050,2049,2053,2060,2095,2056,2022
2043,2048,2055,2050,2060,2104,2050,2003
2036,2046,2050,2054,2061,2112,2049,1994
2044,2053,2062,2058,2072,2124,2050,1992
2047,2062,2059,2049,2066,2114,2049,1982
2037,2042,2050,2044,2052,2070,2047,1970
2030,2042,2042,2036,2047,2008,2018,1966
2041,2049,2043,2040,2051,1994,1999,1972
2031,2038,2042,2041,2056,2008,2016,1986
2034,2049,2052,2044,2048,2014,2019,1985
2036,2048,2052,2044,2045,2002,2012,1998
2034,2056,2053,2049,2040,2009,2026,2018
2043,2060,2050,2052,2044,2024,2024,2033
2043,2058,2053,2052,2053,2042,2033,2044
2044,2052,2048,2047,2050,2049,2033,2062
2047,2053,2051,2048,2059,2055,2028,2069
2042,2055,2051,2050,2059,2059,2037,2079
2045,2055,2047,2052,2057,2056,2021,2092
2044,2052,2055,2051,2049,2053,2031,2091
2044,2048,2053,2045,2030,2042,2032,2090
2039,2037,2047,2036,2017,2045,2032,2089
2036,2031,2041,2029,2011,2038,2028,2090
2035,2035,2037,2022,2010,2046,2027,2100
2045,2046,2045,2030,2019,2063,2036,2095
2043,2050,2050,2040,2043,2075,2047,2096
2053,2058,2059,2055,2066,2082,2038,2093
2048,2065,2067,2057,2091,2083,2033,2098
2050,2064,2066,2062,2099,2091,2055,2104
2058,2071,2070,2067,2113,2092,2037,2088
2057,2060,2062,2060,2089,2071,2042,2077
2045,2061,2060,2068,2076,2064,2033,2064
2049,2060,2060,2066,2078,2061,2043,2052
2047,2059,2054,2068,2068,2050,2054,2036
2045,2058,2053,2070,2068,2048,2056,2016
2045,2057,2055,2066,2062,2042,2052,2002
2041,2049,2054,2065,2056,2051,2034,1991
2036,2047,2046,2057,2064,2048,2031,1982
2030,2026,2037,2050,2049,2043,2036,1970
2027,2027,2030,2048,2049,2043,2037,1970
2035,2039,2037,2049,2060,2046,2031,1969
2035,2039,2036,2048,2062,2041,2026,1975
2032,2035,2033,2048,2064,2050,2045,1980
2039,2045,2037,2042,2070,2051,2041,2001
2045,2048,2029,2034,2055,2048,2038,2008
2042,2040,2024,2018,2045,2039,2040,2018
2035,2032,2032,2020,2046,2036,2030,2031
2034,2038,2038,2017,2030,2031,2020,2042
2037,2037,2034,2017,2028,2030,2030,2052
2035,2047,2028,2018,2021,2030,2044,2070
2040,2039,2028,2024,2020,2032,2052,2080
2052,2047,2029,2027,2021,2038,2043,2086
2044,2042,2024,2025,2035,2049,2036,2085
2047,2049,2032,2042,2060,2055,2039,2091
2043,2050,2034,2044,2063,2047,2047,2093
2050,2046,2032,2040,2061,2053,2051,2098
2052,2058,2049,2052,2067,2061,2053,2096
2054,2057,2062,2052,2065,2059,2066,2095
2045,2052,2062,2054,2065,2057,2057,2096
2048,2058,2068,2054,2061,2065,2056,2088
2049,2060,2070,2052,2063,2061,2050,2080
2055,2055,2067,2054,2059,2057,2055,2073
2056,2063,2056,2053,2062,2056,2049,2067
2053,2057,2056,2053,2063,2055,2055,2044
2049,2056,2042,2043,2067,2056,2056,2039
2055,2068,2052,2050,2060,2048,2048,2026
2054,2066,2053,2054,2053,2033,2045,2005
2048,2059,2049,2045,2052,2028,2028,1995
2043,2060,2051,2045,2054,2038,2039,1980
2043,2061,2051,2047,2049,2049,2036,1971
2034,2047,2046,2039,2049,2043,2028,1967
2035,2041,2036,2041,2053,2046,2039,1971
2042,2044,2032,2044,2061,2047,2041,1969
2052,2053,2034,2049,2056,2046,2021,1985
2052,2056,2038,2050,2051,2042,2030,1985
2049,2056,2042,2039,2052,2042,2014,1997
2046,2051,2046,2044,2051,2043,2026,2007
2042,2053,2040,2044,2051,2044,2017,2014
2045,2050,2048,2043,2054,2045,2034,2032
2045,2048,2047,2040,2049,2049,2037,2043
2057,2057,2057,2048,2047,2046,2042,2055
2053,2057,2072,2046,2052,2050,2043,2056
2054,2064,2084,2050,2054,2046,2052,2069
2053,2060,2076,2052,2049,2046,2051,2074
2053,2059,2071,2050,2046,2044,2060,2081
2050,2050,2067,2047,2050,2043,2034,2078
2043,2034,2052,2044,2046,2038,2035,2088
2040,2044,2060,2049,2058,2039,2032,2090
2053,2065,2079,2065,2062,2041,2018,2090
2055,2070,2078,2058,2061,2048,2056,2093
2053,2070,2065,2053,2061,2041,2036,2085
2053,2061,2053,2052,2054,2041,2027,2085
2053,2062,2056,2049,2056,2050,2047,2083
2062,2065,2055,2051,2060,2051,2059,2076
2061,2067,2059,2056,2065,2053,2054,2065
2065,2062,2058,2056,2063,2051,2050,2054
2063,2064,2056,2049,2061,2051,2057,2034
2050,2050,2049,2047,2067,2046,2038,2016
2047,2049,2041,2046,2065,2047,2049,2001
2052,2043,2046,2045,2060,2047,2034,1989
2052,2050,2048,2045,2062,2038,2026,1980
2045,2044,2043,2041,2059,2035,2018,1976
2039,2036,2036,2032,2047,2030,2032,1965
2041,2042,2045,2039,2054,2039,2046,1969
2050,2050,2051,2044,2055,2039,2048,1978
2047,2053,2045,2048,2055,2036,2041,1979
2056,2061,2051,2049,2052,2038,2045,1988
2046,2048,2047,2041,2056,2046,2049,2000
2043,2046,2042,2040,2048,2051,2048,2011
2049,2049,2044,2047,2054,2049,2056,2024
2043,2042,2034,2045,2053,2046,2060,2034
2046,2044,2036,2046,2047,2044,2038,2047
2048,2045,2034,2050,2056,2049,2045,2061
2052,2058,2042,2060,2056,2048,2038,2064
2054,2056,2044,2068,2060,2043,2057,2074
2049,2051,2049,2068,2056,2042,2045,2076
2049,2043,2047,2072,2063,2048,2035,2091
2050,2039,2047,2072,2061,2040,2038,2091
2043,2025,2031,2072,2059,2040,2040,2089
2046,2026,2020,2066,2065,2052,2047,2099
2053,2032,2020,2068,2062,2052,2043,2097
2044,2029,2012,2063,2059,2045,2044,2089
2049,2032,1997,2068,2059,2043,2068,2088
2048,2032,1990,2068,2049,2035,2054,2083
2046,2030,2001,2070,2045,2039,2065,2078
2054,2037,2012,2064,2049,2041,2055,2068
2057,2050,2012,2051,2037,2035,2032,2052
2044,2059,2021,2043,2041,2038,2042,2042
2048,2057,2024,2038,2037,2049,2038,2028
2044,2054,2023,2027,2031,2046,2041,2022
2041,2057,2037,2029,2035,2041,2052,2010
2051,2070,2072,2030,2027,2037,2058,1997
2049,2076,2089,2039,2021,2038,2061,1983
2058,2084,2085,2034,2015,2041,2060,1981
2045,2061,2061,2014,2010,2045,2046,1967
2033,2062,2073,2037,2032,2075,2067,1972
2051,2076,2106,2065,2066,2091,2066,1988
2054,2086,2124,2080,2088,2095,2073,1997
2056,2080,2121,2085,2101,2107,2081,2007
2056,2077,2105,2079,2088,2104,2065,2021
2055,2070,2090,2063,2066,2062,2074,2038
2059,2073,2087,2061,2064,2032,2061,2040
2055,2067,2082,2051,2057,2036,2066,2058
2055,2068,2077,2044,2047,2042,2068,2064
2060,2066,2072,2038,2047,2047,2060,2070
2055,2066,2068,2037,2040,2051,2051,2078
2055,2059,2062,2035,2044,2053,2062,2088
2056,2056,2046,2037,2048,2052,2065,2099
2049,2053,2041,2040,2040,2049,2067,2100
2050,2051,2046,2043,2045,2040,2050,2104
2042,2041,2040,2040,2047,2041,2047,2103
2045,2044,2043,2044,2054,2048,2055,2105
2051,2049,2040,2045,2056,2049,2055,2100
2044,2042,2038,2039,2056,2043,2049,2107
2043,2045,2048,2035,2063,2052,2055,2095
2047,2048,2056,2037,2064,2053,2056,2089
2049,2048,2063,2048,2059,2062,2061,2083
2051,2058,2066,2048,2062,2063,2056,2079
2050,2054,2057,2045,2063,2064,2060,2067
2051,2057,2060,2047,2063,2066,2045,2062
2056,2053,2056,2052,2062,2065,2059,2043
2057,2053,2056,2051,2060,2061,2042,2025
2055,2050,2052,2049,2061,2055,2053,2015
2051,2050,2052,2050,2058,2058,2057,2002
2055,2053,2052,2047,2052,2056,2053,1997
2054,2051,2052,2045,2046,2046,2047,1986
2041,2039,2048,2043,2052,2046,2054,1980
2048,2044,2052,2052,2052,2054,2052,1992
2058,2056,2054,2051,2051,2059,2054,1993
2061,2054,2058,2048,2052,2059,2054,2003
2057,2058,2056,2045,2049,2055,2042,2006
2059,2063,2056,2051,2047,2049,2049,2014
2051,2057,2053,2047,2037,2052,2060,2035
2053,2056,2050,2048,2039,2050,2052,2040
2053,2056,2049,2045,2033,2040,2062,2055
2052,2057,2047,2038,2021,2043,2056,2067
2052,2059,2054,2043,2015,2041,2054,2074
2057,2059,2052,2039,2017,2037,2043,2080
2060,2054,2046,2041,2021,2035,2043,2080
2049,2048,2047,2037,2036,2047,2050,2085
2056,2053,2050,2053,2056,2062,2050,2100
2058,2055,2056,2055,2060,2054,2042,2098
2052,2043,2048,2051,2057,2055,2045,2110
2049,2046,2043,2050,2058,2063,2059,2108
2058,2059,2059,2058,2065,2063,2064,2110
2057,2055,2056,2053,2060,2063,2066,2100
2052,2050,2052,2053,2064,2054,2045,2100
2054,2050,2055,2051,2066,2054,2046,2098
2053,2048,2058,2051,2059,2061,2058,2088
2060,2054,2062,2058,2069,2055,2066,2087
2058,2051,2063,2066,2064,2051,2057,2074
2059,2049,2070,2064,2064,2046,2048,2064
2055,2052,2069,2073,2058,2045,2056,2054
2057,2055,2069,2072,2059,2053,2056,2033
2053,2055,2066,2074,2059,2053,2048,2022
2049,2052,2063,2068,2057,2047,2055,2011
2051,2051,2064,2067,2052,2049,2058,2001
2052,2052,2056,2065,2049,2044,2050,1989
2045,2041,2052,2053,2051,2049,2051,1980
2045,2050,2054,2062,2052,2052,2054,1988
2053,2052,2053,2062,2051,2048,2060,2002
2049,2057,2057,2052,2034,2051,2057,2013
2050,2058,2055,2041,2041,2051,2061,2021
2055,2055,2051,2032,2034,2051,2061,2030
2060,2055,2039,2025,2036,2046,2063,2039
2058,2061,2041,2020,2041,2052,2060,2058
2058,2056,2045,2027,2057,2052,2067,2067
2056,2051,2045,2032,2055,2050,2055,2071
2053,2040,2041,2033,2052,2046,2056,2077
2053,2041,2040,2032,2046,2041,2044,2080
2052,2042,2040,2033,2046,2035,2064,2085
2043,2037,2041,2035,2043,2050,2051,2089
2041,2038,2040,2044,2032,2046,2037,2088
2042,2036,2034,2036,2031,2038,2009,2088
2041,2030,2035,2034,2024,2037,2039,2092
2038,2034,2034,2035,2028,2044,2043,2090
2045,2034,2038,2030,2038,2034,2049,2105
2046,2040,2039,2044,2066,2031,2062,2108
2049,2046,2051,2055,2077,2053,2071,2098
2057,2050,2046,2064,2078,2065,2076,2092
2052,2047,2040,2069,2072,2078,2065,2079
2048,2045,2038,2065,2073,2084,2064,2073
2045,2039,2038,2065,2072,2099,2071,2056
2052,2040,2036,2058,2071,2096,2074,2040
2054,2037,2039,2060,2064,2046,2053,2032
2042,2042,2037,2053,2044,2028,2046,2016
2045,2041,2037,2044,2029,2036,2063,2003
2047,2042,2037,2046,2017,2030,2052,1997
2054,2044,2042,2045,2026,2014,2039,1990
2047,2042,2043,2049,2069,2008,2031,1982
2046,2039,2037,2052,2118,2037,2044,1984
2050,2046,2040,2045,2124,2054,2062,1985
2058,2050,2049,2043,2116,2054,2062,1987
2058,2055,2047,2032,2100,2055,2062,1990
2064,2058,2046,2029,2090,2053,2058,2000
2057,2052,2042,2034,2106,2065,2060,2020
2059,2052,2048,2039,2105,2069,2041,2032
2062,2047,2044,2050,2091,2063,2059,2049
2062,2046,2041,2047,2059,2045,2058,2058
2057,2044,2039,2034,2017,2032,2057,2069
2054,2042,2032,2028,1954,2016,2048,2074
2052,2046,2032,2017,1893,1990,2047,2069
2049,2040,2029,2007,1905,1989,2045,2075
2050,2048,2031,2018,1980,2008,2052,2093
2056,2056,2043,2039,2016,2028,2053,2099
2060,2054,2046,2043,2040,2028,2055,2095
2051,2042,2045,2045,2066,2043,2066,2100
2053,2042,2051,2055,2111,2084,2076,2105
2050,2045,2055,2061,2116,2084,2071,2105
2054,2037,2052,2056,2117,2076,2075,2087
2050,2033,2049,2045,2083,2104,2064,2078
2046,2034,2040,2025,2008,2113,2062,2069
2043,2036,2045,2003,1956,2105,2071,2057
2042,2039,2044,2001,1972,2108,2065,2057
2041,2043,2052,2002,1954,2084,2052,2051
2046,2046,2058,2011,1952,2018,2057,2058
2057,2057,2073,2043,2012,1961,2057,2058
2067,2062,2073,2062,2047,1983,2060,2043
2064,2068,2078,2073,2063,2031,2066,2026
2065,2068,2076,2065,2011,2056,2061,2013
2058,2061,2067,2038,1959,2059,2045,1992
2049,2049,2051,2016,1919,2050,2039,1976
2035,2030,2041,2013,1925,2014,2018,1979
2036,2036,2030,2005,1924,2001,2012,1973
2034,2037,2028,1995,1976,1995,2034,1979
2040,2042,2043,2029,2090,2008,2036,1992
2048,2043,2051,2054,2153,2034,2061,1999
2050,2042,2051,2070,2164,2059,2062,2011
2049,2044,2060,2071,2146,2064,2069,2028
2056,2045,2062,2068,2114,2064,2056,2042
2057,2048,2074,2062,2091,2060,2055,2049
2050,2044,2074,2058,2083,2055,2048,2060
2049,2042,2068,2055,2068,2061,2044,2072
2057,2044,2067,2058,2065,2049,2044,2081
2043,2046,2071,2053,2077,2055,2047,2083
2045,2039,2063,2065,2099,2068,2034,2089
2041,2036,2054,2062,2129,2071,2044,2098
2044,2036,2044,2060,2133,2062,2032,2091
2039,2024,2022,2062,2117,2054,2022,2092
2040,2024,2026,2069,2097,2058,2036,2099
2043,2032,2013,2062,2094,2057,2040,2088
2034,2020,1988,2055,2058,2054,2039,2085
2037,2018,1993,2066,2058,2056,2038,2083
2047,2038,2018,2074,2049,2061,2040,2085
2048,2045,2018,2074,2038,2059,2021,2087
2050,2041,2011,2065,2059,2039,2034,2078
2054,2043,2022,2063,2074,2019,2032,2074
2061,2055,2036,2064,2076,2031,2042,2069
2066,2054,2047,2065,2076,2058,2045,2058
2064,2058,2052,2057,1990,2076,2073,2044
2068,2065,2065,2045,1980,2076,2061,2030
2073,2064,2061,2041,2070,2079,2052,2021
2072,2066,2059,2032,2113,2108,2021,2002
2068,2055,2062,2023,2125,2105,2031,1990
2050,2036,2060,2008,2177,2127,2001,1980
2052,2041,2071,2016,2131,2129,2007,1982
2051,2060,2086,2023,2070,2084,2008,1988
2056,2073,2106,2046,2000,2035,2020,2005
2058,2081,2120,2055,1971,2042,2052,2019
2064,2084,2111,2044,1895,2032,2045,2032
2069,2076,2109,2021,1794,1998,2056,2047
2071,2074,2103,2014,1867,1985,2056,2067
2075,2067,2094,2021,1955,1994,2065,2080
2063,2054,2071,2027,1978,2008,2048,2076
2067,2046,2065,2041,2000,2009,2031,2081
2054,2033,2059,2057,2025,2013,2033,2084
2052,2039,2061,2076,2025,2007,2044,2085
2057,2040,2067,2079,2057,2023,2023,2096
2057,2047,2065,2072,2086,2030,2037,2091
2061,2045,2066,2067,2100,2029,2026,2099
2053,2038,2058,2071,2112,2042,2022,2106
2053,2038,2064,2067,2109,2045,2042,2117
2061,2049,2064,2059,2070,2044,2052,2102
2052,2039,2053,2036,2030,2044,2037,2094
2046,2034,2042,2016,2034,2043,2039,2090
2048,2034,2036,2019,2074,2035,2044,2087
2043,2032,2036,2020,2076,2038,2051,2085
2051,2037,2044,2031,2079,2046,2040,2075
2048,2045,2053,2057,2107,2056,2045,2067
2054,2047,2066,2073,2127,2055,2033,2063
2062,2056,2069,2079,2132,2051,2040,2050
2057,2052,2066,2076,2145,2058,2045,2030
2055,2053,2060,2074,2160,2047,2056,2014
2051,2047,2057,2070,2130,2029,2059,2003
2050,2050,2065,2050,2032,2022,2054,1994
2047,2048,2059,2056,2051,2025,2044,1983
2040,2033,2054,2062,2109,2037,2037,1974
2037,2031,2049,2069,2110,2066,2039,1974
2040,2029,2041,2065,2114,2080,2051,1976
2035,2033,2040,2061,2108,2084,2063,1982
2042,2033,2032,2046,2093,2062,2049,1987
2042,2026,2030,2017,1987,2008,2020,2005
2043,2032,2031,2016,1918,1967,2021,2026
2050,2037,2040,2043,1913,1960,2020,2044
2056,2041,2039,2045,1865,1972,2028,2061
2058,2039,2027,2047,1973,2023,2053,2065
2054,2038,2027,2077,2128,2089,2065,2075
2049,2035,2023,2093,2138,2081,2063,2072
2046,2024,2020,2076,2075,2070,2058,2075
2043,2024,2026,2080,2016,2067,2057,2084
2046,2025,2036,2096,1987,2054,2060,2094
2041,2033,2054,2095,1973,2039,2058,2091
2036,2031,2082,2094,1937,2032,2038,2096
2050,2046,2101,2092,1904,2029,2036,2105
2051,2052,2093,2086,1902,2021,2040,2103
2045,2042,2070,2072,1949,2013,2038,2093
2038,2034,2051,2064,2026,2000,2028,2086
2051,2039,2063,2084,2086,2008,2037,2079
2052,2053,2077,2101,2123,2024,2051,2074
2060,2068,2094,2092,2134,2041,2053,2064
2064,2066,2095,2082,2150,2062,2050,2054
2059,2062,2090,2062,2127,2064,2060,2045
2057,2063,2084,2050,2090,2067,2049,2031
2050,2051,2064,2032,2043,2054,2042,2025
2049,2046,2043,2011,2039,2046,2043,1999
2048,2037,2040,2013,2047,2034,2029,1993
2040,2038,2040,1996,2010,2036,2012,1972
2038,2040,2030,1990,1986,2022,2019,1965
2034,2031,2015,1998,2001,2031,2000,1956
2025,2031,2026,1999,1971,2055,2021,1956
2035,2031,2032,2003,1923,2053,2033,1970
2050,2048,2048,2008,1909,2029,2045,1991
2060,2062,2058,2006,1928,2045,2060,2008
2064,2054,2052,2012,1959,2066,2080,2019
2060,2052,2054,2017,1992,2084,2066,2030
2049,2051,2045,2021,1978,2075,2057,2028
2045,2051,2046,2036,1978,2075,2039,2036
2049,2047,2054,2050,1986,2069,2038,2050
2051,2045,2043,2050,2025,2070,2039,2058
2050,2041,2040,2039,2052,2068,2041,2064
2043,2037,2037,2037,2099,2073,2040,2077
2042,2042,2041,2046,2163,2062,2051,2081
2044,2041,2042,2048,2137,2042,2052,2080
2050,2040,2034,2036,2092,2020,2038,2080
2039,2029,2031,2024,2013,2015,2028,2083
2044,2034,2031,2046,2048,2038,2044,2093
2056,2052,2043,2078,2133,2062,2041,2094
2056,2053,2045,2080,2109,2059,2050,2093
2061,2055,2048,2075,2069,2054,2042,2093
2057,2056,2054,2071,2084,2059,2051,2090
2055,2064,2054,2065,2084,2052,2064,2079
2049,2059,2050,2055,2062,2044,2058,2074
2053,2065,2056,2059,2070,2054,2034,2064
2060,2065,2056,2064,2104,2061,2061,2054
2052,2060,2048,2054,2067,2037,2064,2032
2042,2050,2041,2042,2007,2034,2059,2016
2046,2047,2038,2046,2050,2035,2039,2001
2043,2040,2040,2051,2100,2036,2047,1987
2038,2042,2033,2052,2132,2039,2048,1983
2042,2036,2033,2046,2071,2022,2030,1970
2041,2020,2026,2033,2020,2007,2041,1967
2035,2026,2028,2039,2059,2011,2039,1971
2040,2037,2036,2038,2065,2005,2049,1976
2043,2028,2031,2037,2055,2009,2033,1989
2039,2033,2035,2046,2057,2019,2044,1998
2036,2037,2038,2045,2033,2016,2028,2003
2041,2034,2035,2043,2045,2022,2050,2015
2050,2049,2058,2062,2074,2027,2054,2038
2056,2058,2062,2061,2059,2027,2053,2056
2052,2050,2050,2041,2024,2037,2060,2057
2055,2051,2050,2037,1997,2042,2061,2063
2057,2051,2055,2046,1982,2043,2064,2073
2053,2053,2048,2047,1973,2041,2061,2080
2045,2045,2049,2051,1944,2034,2060,2084
2056,2049,2054,2051,1932,2033,2064,2094
2051,2046,2051,2051,1961,2041,2055,2095
2039,2029,2032,2028,1954,2038,2045,2091
2032,2019,2028,2024,1961,2043,2062,2098
2038,2024,2033,2038,2022,2046,2073,2106
2044,2030,2034,2045,2103,2059,2080,2104
2041,2033,2035,2067,2162,2067,2077,2099
2041,2034,2046,2057,2136,2058,2081,2092
2046,2039,2044,2060,2099,2047,2072,2086
2047,2033,2038,2049,2124,2066,2067,2070
2040,2028,2029,2042,2121,2077,2062,2057
2039,2021,2022,2031,2074,2092,2066,2044
2032,2020,2024,2022,2020,2091,2076,2030
2037,2028,2030,2039,2038,2089,2075,2015
2042,2037,2032,2056,2075,2076,2061,2013
2046,2034,2039,2074,2103,2070,2063,2002
2046,2042,2053,2097,2142,2057,2070,1998
2049,2039,2050,2104,2184,2060,2063,1986
2042,2035,2040,2098,2187,2074,2064,1984
2042,2033,2036,2085,2151,2052,2060,1993
2043,2030,2034,2085,2175,2058,2063,1994
2049,2030,2034,2081,2197,2078,2071,1999
2046,2027,2033,2085,2157,2085,2071,2000
2038,2028,2026,2075,2098,2059,2046,2001
2034,2023,2025,2046,1980,2024,2045,2009
2036,2024,2026,2028,1901,1995,2029,2006
2035,2025,2033,2012,1817,1972,2027,2023
2037,2034,2041,2013,1838,1971,2033,2043
2041,2042,2058,2028,1921,1987,2032,2052
2042,2045,2060,2038,2016,2004,2022,2057
2050,2045,2050,2040,2038,2006,2024,2066
2046,2047,2041,2027,2033,2010,2027,2075
2052,2046,2037,2035,2040,2013,2016,2085
2053,2047,2048,2033,2019,2016,2029,2099
2061,2053,2051,2027,2001,2011,2027,2101
2057,2052,2056,2033,2022,2021,2031,2103
2053,2061,2061,2045,2046,2040,2036,2106
2056,2052,2060,2046,2065,2052,2050,2110
2059,2054,2059,2053,2080,2049,2053,2108
2056,2058,2052,2047,2078,2037,2065,2105
2050,2043,2041,2044,2114,2042,2065,2094
2047,2040,2039,2058,2133,2054,2073,2091
2048,2041,2029,2072,2121,2061,2068,2080
2048,2043,2025,2070,2083,2054,2073,2071
2052,2051,2033,2058,1956,2036,2062,2050
2050,2042,2032,2032,1878,2016,2055,2042
2042,2037,2031,2025,1878,2027,2057,2026
2054,2039,2036,2040,1934,2050,2045,2017
2050,2042,2029,2052,1989,2064,2049,2008
2056,2050,2032,2055,2028,2059,2045,1999
2048,2042,2020,2039,2054,2049,2032,1987
2034,2031,2003,2024,2060,2043,2031,1982
2038,2031,2015,2035,2075,2056,2042,1978
2044,2053,2040,2042,2044,2063,2059,1991
2051,2055,2053,2026,1968,2056,2056,1994
2059,2057,2056,2010,1902,2057,2056,2006
2059,2062,2048,2025,1933,2073,2060,2025
2067,2061,2045,2027,1998,2068,2060,2036
2054,2058,2043,2034,2059,2023,2059,2038
2054,2057,2050,2047,2092,1998,2052,2053
2054,2051,2051,2054,2075,2009,2066,2064
2052,2050,2043,2044,2038,2042,2061,2068
2053,2047,2040,2038,1974,2063,2059,2068
2046,2043,2041,2039,1953,2077,2062,2069
2045,2044,2035,2045,1994,2084,2053,2074
2048,2046,2042,2055,2020,2094,2060,2082
2054,2053,2058,2069,2055,2050,2053,2097
2057,2047,2053,2070,2038,1992,2035,2089
2043,2043,2054,2070,1995,1991,2037,2094
2054,2049,2067,2054,1910,2008,2049,2095
2058,2062,2078,2050,1936,2019,2059,2102
2064,2062,2083,2055,2015,2030,2056,2099
2060,2059,2082,2058,2065,2032,2066,2096
2064,2055,2090,2061,2083,2039,2059,2090
2060,2063,2096,2071,2069,2042,2065,2092
2060,2066,2084,2070,2052,2038,2053,2082
2065,2064,2070,2073,2035,2042,2062,2068
2068,2053,2052,2064,2026,2026,2055,2047
2053,2041,2034,2052,1989,1995,2052,2031
2045,2038,2033,2047,1946,1979,2030,2027
2038,2034,2024,2036,1948,1971,2036,1998
2035,2024,2016,2021,2012,1982,2033,1980
2025,2017,2007,2032,2107,2023,2006,1976
2024,2023,2030,2060,2155,2054,2033,1969
2029,2024,2050,2062,2152,2056,2046,1971
2042,2037,2059,2057,2140,2065,2055,1977
2051,2045,2052,2049,2108,2062,2051,1985
2047,2043,2048,2031,2058,2054,2048,1985
2041,2040,2042,2024,2043,2042,2050,1995
2049,2043,2049,2026,2032,2036,2055,2006
2049,2049,2060,2027,2032,2040,2040,2018
2046,2037,2056,2015,2028,2033,2040,2030
2045,2040,2061,2025,2018,2032,2047,2041
2049,2036,2056,2025,2030,2035,2050,2052
2047,2034,2055,2027,2064,2041,2046,2062
2044,2036,2052,2038,2082,2045,2048,2069
2042,2041,2050,2045,2068,2037,2039,2077
2050,2041,2052,2050,2067,2036,2045,2084
2050,2031,2052,2047,2063,2036,2033,2091
2044,2035,2048,2044,2048,2033,2040,2086
2034,2022,2035,2033,2048,2035,2029,2090
2028,2020,2038,2041,2057,2049,2024,2091
2041,2038,2045,2053,2070,2048,2028,2091
2040,2047,2046,2054,2078,2054,2053,2090
2043,2055,2047,2061,2072,2059,2050,2096
2048,2048,2040,2060,2077,2062,2054,2095
2052,2044,2043,2062,2077,2065,2059,2086
2047,2049,2042,2052,2080,2059,2061,2069
2042,2046,2043,2054,2071,2046,2050,2068
2045,2049,2045,2056,2070,2035,2041,2057
2042,2050,2050,2061,2064,2039,2025,2050
2044,2046,2045,2055,2067,2030,2023,2034
2040,2044,2037,2054,2064,2038,2023,2014
2040,2037,2033,2046,2058,2040,2034,2004
2036,2033,2028,2043,2056,2032,2031,1993
2034,2030,2024,2044,2049,2034,2029,1992
2032,2021,2027,2050,2056,2036,2035,1987
2037,2040,2056,2062,2062,2047,2028,1984
2039,2061,2089,2079,2073,2057,2056,1993
2046,2073,2085,2074,2071,2054,2059,2000
2047,2064,2064,2073,2071,2049,2052,2000
2043,2053,2054,2064,2066,2040,2045,2004
2042,2052,2046,2060,2063,2042,2047,2018
2041,2049,2039,2058,2055,2040,2039,2037
2044,2052,2045,2055,2047,2035,2045,2049
2046,2041,2042,2052,2032,2029,2025,2056
2043,2041,2049,2051,2032,2036,2036,2061
2047,2056,2058,2049,2050,2054,2040,2075
2051,2064,2056,2043,2056,2068,2059,2086
2046,2057,2052,2048,2067,2073,2064,2093
2047,2057,2051,2042,2077,2078,2066,2100
2043,2046,2039,2041,2080,2076,2055,2113
2051,2045,2046,2039,2079,2074,2065,2116
2045,2043,2051,2041,2074,2061,2057,2117
2047,2040,2057,2045,2072,2062,2064,2122
2059,2061,2069,2049,2070,2052,2061,2111
2056,2058,2063,2051,2067,2039,2040,2112
2052,2055,2057,2058,2064,2033,2047,2107
2050,2053,2050,2062,2043,2025,2026,2099
2044,2052,2051,2061,2045,2032,2043,2093
2049,2053,2050,2064,2067,2046,2047,2091
2044,2056,2043,2061,2070,2049,2069,2080
2045,2050,2031,2058,2058,2042,2052,2063
2038,2040,2021,2042,2049,2031,2054,2045
2040,2038,2031,2035,2043,2028,2057,2037
2036,2042,2051,2037,2033,2029,2055,2023
2034,2050,2066,2037,2019,2027,2053,2011
2038,2054,2064,2038,2018,2031,2051,2004
2038,2050,2059,2037,2013,2033,2050,1985
2032,2042,2050,2028,2010,2031,2034,1972
2028,2033,2049,2036,2032,2039,2044,1975
2035,2052,2065,2061,2056,2048,2064,1990
2044,2058,2070,2065,2068,2052,2071,1994
2047,2060,2067,2069,2065,2051,2064,2006
2054,2071,2071,2065,2069,2055,2058,2012
2052,2069,2068,2059,2064,2055,2052,2023
2060,2067,2069,2064,2051,2052,2039,2034
2066,2064,2064,2060,2057,2046,2056,2045
2064,2062,2062,2058,2055,2051,2062,2052
2064,2062,2060,2062,2051,2047,2060,2061
2066,2067,2061,2060,2050,2048,2058,2070
2049,2058,2059,2062,2053,2046,2052,2067
2045,2044,2045,2055,2045,2044,2050,2070
2046,2042,2050,2052,2044,2049,2060,2086
2050,2047,2048,2057,2045,2057,2050,2094
2054,2052,2047,2058,2019,2054,2052,2094
2043,2032,2042,2048,2017,2039,2044,2096
2032,2026,2036,2044,2042,2040,2040,2097
2040,2037,2041,2058,2055,2054,2055,2098
2042,2044,2043,2058,2047,2060,2056,2096
2046,2045,2045,2061,2011,2064,2055,2097
2044,2043,2043,2056,1980,2061,2063,2101
2051,2043,2046,2060,2005,2060,2057,2098
2058,2050,2050,2060,2017,2057,2070,2093
2052,2049,2048,2058,2006,2053,2037,2080
2052,2039,2045,2052,2047,2045,2068,2069
2046,2042,2043,2053,2062,2046,2067,2054
2040,2045,2042,2052,2060,2067,2065,2050
2038,2049,2048,2050,2063,2112,2083,2029
2042,2048,2049,2059,2097,2149,2079,2019
2046,2053,2057,2066,2107,2155,2068,2007
2040,2053,2060,2061,2124,2133,2049,1986
2039,2046,2056,2055,2103,2064,2041,1986
2042,2045,2054,2073,2083,1982,2037,1998
2041,2048,2054,2082,2135,1997,2044,1998
2048,2059,2066,2085,2173,2038,2054,2002
2055,2066,2068,2082,2128,2058,2049,2004
2047,2063,2054,2072,2068,2029,2043,2010
2041,2054,2049,2057,2015,2014,2039,2011
2036,2047,2050,2069,2002,2006,2027,2015
2028,2038,2046,2075,2000,1997,2017,2021
2026,2039,2041,2051,1926,1985,2027,2029
2026,2043,2049,2041,1938,1994,2027,2042
2033,2052,2058,2046,1991,2011,2032,2058
2030,2056,2065,2044,2027,2022,2029,2059
2039,2054,2061,2042,2029,2016,2026,2078
2042,2055,2046,2037,2039,2032,2034,2088
2042,2054,2039,2040,2050,2034,2032,2087
2040,2048,2045,2046,2055,2039,2017,2094
2040,2048,2049,2046,2046,2031,2018,2093
2035,2033,2043,2052,2039,2035,2038,2098
2036,2034,2049,2052,2047,2045,2043,2108
2049,2051,2057,2057,2058,2045,2056,2098
2046,2051,2057,2057,2052,2047,2057,2096
2044,2048,2056,2056,2058,2045,2034,2097
2040,2052,2051,2058,2057,2041,2037,2090
2042,2039,2041,2059,2055,2045,2029,2082
2040,2041,2043,2060,2052,2048,2047,2077
2038,2031,2038,2052,2055,2045,2048,2067
2035,2028,2039,2054,2058,2043,2049,2056
2037,2033,2037,2054,2052,2040,2035,2041
2038,2032,2040,2056,2049,2033,2040,2028
2033,2034,2043,2056,2051,2038,2040,2010
2039,2030,2038,2047,2046,2046,2039,1998
2034,2030,2028,2053,2033,2055,2040,1989
2035,2021,2029,2044,2023,2064,2033,1982
2041,2021,2026,2035,2014,2053,2022,1974
2028,2021,2027,2035,2005,2052,2020,1966
2028,2036,2040,2041,2020,2045,2029,1980
2036,2044,2044,2056,2035,2015,2026,1987
2039,2049,2055,2063,2049,2002,2033,2002
2048,2052,2051,2068,2048,2007,2040,2009
2053,2049,2050,2064,2036,2016,2036,2018
2045,2052,2053,2059,2023,2018,2028,2021
2039,2037,2047,2049,2011,2027,2026,2031
2039,2037,2046,2054,2020,2049,2023,2048
2046,2043,2058,2066,2059,2066,2026,2056
2040,2048,2061,2081,2093,2068,2055,2070
2047,2052,2064,2082,2098,2078,2059,2072
2046,2058,2062,2075,2069,2075,2053,2078
2042,2048,2053,2065,2050,2045,2050,2092
2037,2049,2055,2060,2042,2034,2058,2096
2039,2056,2061,2060,2038,2053,2053,2104
2040,2054,2068,2056,2037,2045,2049,2104
2048,2064,2077,2064,2029,2010,2040,2130
2064,2088,2091,2069,1987,2011,2051,2132
2072,2094,2086,2057,1915,2020,2046,2119
2066,2074,2066,2047,1983,2053,2059,2116
2058,2070,2064,2061,2136,2101,2068,2105
2065,2070,2057,2058,2155,2110,2061,2098
2058,2063,2051,2056,2124,2098,2041,2090
2054,2061,2050,2053,2080,2075,2063,2082
2052,2062,2053,2047,2046,2069,2054,2080
2060,2061,2052,2045,2006,2048,2054,2064
2051,2058,2056,2037,1992,2036,2030,2044
2037,2049,2050,2023,2015,2037,2029,2024
2040,2048,2056,2030,2045,2026,2027,2015
2043,2064,2066,2060,2056,2015,2056,2011
2044,2064,2068,2065,2064,2016,2060,2005
2038,2051,2053,2074,2112,2046,2055,1989
2029,2033,2047,2077,2104,2053,2054,1982
2030,2032,2046,2084,2103,2050,2049,1983
2034,2036,2052,2080,2107,2049,2047,1988
2034,2038,2045,2064,2101,2039,2046,1991
2038,2034,2035,2056,2079,2030,2025,1997
2031,2032,2033,2055,2064,2031,2035,2007
2030,2035,2038,2054,2040,2029,2039,2029
2036,2039,2046,2054,2028,2027,2036,2034
2038,2029,2049,2060,2052,2036,2038,2040
2036,2027,2056,2060,2057,2050,2029,2041
2038,2029,2053,2069,2073,2065,2037,2060
2039,2032,2047,2090,2109,2085,2048,2070
2043,2030,2034,2096,2099,2094,2058,2080
2042,2032,2036,2087,2086,2101,2065,2090
2049,2032,2030,2096,2080,2099,2060,2092
2046,2027,2031,2088,2085,2089,2043,2106
2045,2027,2028,2088,2088,2088,2051,2105
2036,2016,2010,2081,2090,2061,2051,2110
2033,2019,2008,2080,2089,2009,2062,2115
2042,2028,2010,2067,2076,1984,2052,2114
2042,2022,2007,2056,2059,1985,2058,2109
2046,2030,2016,2061,2055,2007,2064,2107
2043,2025,2022,2059,2065,2028,2072,2103
2051,2031,2022,2060,2063,2032,2060,2098
2049,2025,2001,2045,2057,2027,2055,2084
2037,2017,1985,2029,2050,2027,2054,2073
2034,2031,2006,2036,2047,2035,2068,2061
2044,2062,2047,2041,2050,2036,2063,2055
2048,2071,2064,2036,2047,2039,2056,2044
2050,2076,2089,2045,2054,2038,2061,2030
2055,2082,2112,2057,2055,2040,2062,2020
2051,2082,2120,2057,2062,2051,2071,2014
2060,2083,2105,2054,2061,2053,2059,2002
2059,2076,2095,2041,2060,2042,2047,1985
2048,2062,2095,2054,2054,2025,2036,1976
2041,2071,2103,2057,2059,2020,2031,1981
2051,2066,2095,2059,2057,2016,2029,1987
2047,2062,2080,2044,2052,2024,2042,1990
2046,2057,2072,2036,2054,2030,2040,2004
2038,2056,2076,2032,2054,2024,2036,2015
2045,2060,2085,2033,2051,2015,2039,2022
2045,2059,2096,2038,2048,2016,2040,2035
2051,2058,2097,2039,2048,2015,2037,2048
2051,2062,2087,2044,2045,2016,2043,2060
2053,2064,2082,2038,2045,2025,2052,2068
2054,2060,2078,2045,2049,2030,2052,2087
2052,2062,2076,2051,2047,2029,2055,2085
2047,2057,2072,2049,2034,2021,2032,2100
2053,2057,2069,2054,2027,2009,2039,2111
2052,2050,2057,2054,2023,2001,2039,2113
2044,2039,2047,2057,2027,2008,2016,2111
2035,2034,2048,2056,2035,2026,2012,2111
2049,2039,2056,2068,2066,2046,2032,2109
2051,2049,2057,2081,2086,2047,2037,2108
2049,2048,2052,2078,2079,2048,2041,2097
2051,2047,2050,2074,2080,2044,2049,2099
2052,2049,2052,2075,2081,2045,2057,2103
2052,2046,2047,2065,2062,2062,2041,2096
2052,2045,2045,2056,2034,2074,2043,2083
2052,2054,2050,2055,2006,2071,2040,2070
2052,2052,2045,2049,1991,2062,2036,2059
2054,2056,2042,2039,1991,2052,2043,2037
2054,2052,2039,2034,2000,2012,2031,2036
2058,2059,2051,2051,2048,1988,2035,2035
2062,2058,2046,2057,2091,2017,2048,2028
2057,2054,2038,2055,2103,2041,2052,2017
2053,2046,2038,2055,2104,2064,2048,2008
2047,2039,2030,2039,2090,2044,2046,2003
2044,2037,2023,2036,2074,2038,2039,2004
2051,2048,2053,2048,2079,2037,2027,2009
2057,2051,2065,2052,2071,2040,2019,2010
2060,2058,2079,2056,2072,2042,2036,2021
2057,2063,2082,2060,2069,2038,2033,2035
2057,2057,2075,2060,2069,2039,2042,2042
2051,2051,2068,2056,2067,2040,2034,2055
2056,2052,2067,2057,2066,2045,2052,2070
2055,2055,2058,2049,2065,2049,2034,2076
2055,2047,2049,2055,2064,2047,2034,2075
2053,2040,2040,2046,2064,2046,2049,2084
2055,2038,2040,2046,2051,2046,2026,2095
2050,2042,2045,2040,2044,2033,2027,2090
2037,2030,2038,2040,2044,2033,2023,2099
2043,2031,2043,2050,2051,2038,2029,2114
2042,2034,2048,2055,2052,2034,2036,2111
2034,2027,2045,2046,2047,2028,2029,2114
2042,2026,2056,2052,2054,2029,2037,2121
2049,2036,2058,2055,2052,2032,2037,2118
2048,2033,2052,2055,2053,2029,2034,2115
2050,2043,2050,2058,2048,2033,2056,2114
2051,2043,2055,2063,2053,2040,2059,2108
2056,2046,2052,2060,2056,2045,2049,2109
2049,2044,2056,2066,2058,2048,2045,2101
2057,2052,2055,2063,2060,2042,2044,2090
2053,2054,2066,2066,2041,2046,2050,2078
2056,2055,2067,2071,2031,2042,2040,2068
2054,2057,2066,2070,2052,2043,2048,2045
2047,2051,2059,2064,2052,2043,2054,2039
2043,2049,2049,2054,2041,2048,2047,2027
2044,2045,2042,2042,2038,2051,2046,2014
2051,2051,2042,2041,2031,2056,2030,2006
2045,2036,2036,2037,2034,2052,2021,1997
2042,2027,2030,2035,2042,2049,1999,1992
2039,2034,2032,2029,2043,2037,2019,1994
2046,2040,2033,2025,2058,2031,2036,2002
2047,2055,2061,2042,2084,2046,2031,2004
2053,2064,2065,2047,2069,2044,2043,2018
2053,2064,2059,2044,2057,2044,2054,2023
2050,2058,2052,2050,2056,2047,2049,2039
2050,2056,2054,2052,2037,2070,2032,2049
2058,2060,2051,2044,2033,2074,2051,2056
2058,2065,2057,2048,2032,2065,2039,2068
2055,2060,2051,2041,2007,2041,2037,2076
2051,2049,2049,2037,1999,2014,2041,2086
2055,2049,2054,2050,2018,1999,2054,2104
2054,2056,2053,2051,2026,2021,2057,2090
2046,2042,2046,2042,2035,2058,2060,2094
2040,2041,2052,2060,2071,2080,2057,2099
2040,2041,2048,2060,2085,2072,2071,2099
2047,2043,2053,2063,2100,2072,2073,2110
2048,2046,2053,2065,2105,2074,2076,2106
2054,2044,2044,2056,2078,2054,2071,2109
2054,2050,2050,2052,2069,2048,2072,2113
2054,2057,2052,2061,2073,2052,2075,2104
2059,2059,2055,2064,2088,2041,2078,2096
2052,2051,2041,2061,2097,2034,2064,2084
2054,2055,2043,2067,2101,2042,2069,2077
2047,2043,2043,2072,2102,2050,2069,2064
2039,2047,2048,2075,2121,2057,2069,2052
2043,2044,2048,2075,2140,2056,2047,2039
2041,2040,2046,2069,2133,2053,2047,2022
2044,2046,2050,2069,2097,2060,2054,2010
2047,2054,2056,2066,2033,2067,2046,2009
2046,2058,2060,2049,1909,2051,2053,1996
2045,2052,2055,2036,1883,2031,2043,1981
2032,2033,2044,2026,1949,2004,2044,1977
2035,2035,2037,2046,2015,1999,2061,1988
2050,2049,2046,2065,2047,2024,2062,1996
2042,2051,2043,2060,2052,2057,2070,2008
2044,2046,2032,2048,2060,2080,2064,2007
2046,2045,2027,2037,2039,2079,2058,2013
2049,2044,2030,2030,2009,2048,2036,2021
2046,2045,2030,2034,2020,2021,2047,2048
2053,2044,2036,2038,2041,2018,2054,2057
2054,2055,2050,2041,2055,2027,2063,2072
2060,2062,2061,2045,2062,2055,2058,2078
2048,2059,2050,2038,2069,2080,2063,2077
2049,2047,2031,2029,2079,2086,2057,2084
2041,2037,2019,2036,2079,2088,2059,2091
2036,2038,2018,2039,2079,2076,2051,2098
2038,2039,2021,2044,2073,2046,2048,2105
2035,2035,2021,2044,2080,1986,2033,2112
2034,2029,2018,2056,2116,1994,2006,2115
2043,2040,2031,2066,2128,2034,2032,2122
2051,2057,2040,2075,2121,2058,2044,2116
2049,2054,2037,2065,2104,2067,2031,2115
2049,2053,2040,2052,2097,2075,2048,2108
2050,2056,2044,2053,2080,2074,2049,2101
2047,2058,2051,2060,2046,2074,2039,2096
2051,2059,2063,2056,2031,2082,2033,2085
2047,2058,2068,2060,2045,2084,2046,2075
2046,2061,2068,2056,2060,2083,2046,2060
2049,2062,2074,2055,2071,2077,2053,2047
2047,2064,2088,2059,2063,2050,2044,2038
2045,2061,2089,2059,2050,2000,2041,2026
2054,2065,2082,2053,2039,1982,2039,2023
2045,2059,2071,2054,2047,1994,2040,2008
2043,2057,2062,2061,2058,2000,2031,1995
2036,2043,2048,2046,2044,1995,2032,1991
2032,2039,2044,2042,2039,2003,2021,1977
2037,2041,2048,2044,2051,2013,2024,1983
2042,2051,2053,2048,2044,2012,2038,1988
2042,2050,2052,2049,2041,2018,2038,2001
2033,2044,2045,2052,2033,2016,2025,2009
2035,2043,2046,2049,2030,2026,2026,2012
2036,2040,2041,2051,2024,2027,2046,2031
2040,2043,2052,2057,2022,2034,2052,2050
2041,2050,2054,2060,2026,2035,2037,2062
2045,2054,2056,2060,2032,2044,2043,2071
2049,2054,2054,2060,2040,2056,2049,2077
2048,2053,2055,2054,2043,2053,2065,2086
2034,2042,2038,2052,2054,2049,2059,2092
2042,2041,2034,2049,2061,2053,2059,2090
2033,2036,2038,2048,2056,2050,2053,2088
2033,2037,2033,2048,2055,2048,2050,2090
2028,2021,2026,2053,2042,2048,2051,2092
2028,2028,2024,2058,2044,2052,2058,2102
2039,2038,2029,2058,2052,2046,2048,2103
2034,2041,2029,2060,2058,2045,2040,2111
2048,2046,2031,2068,2088,2054,2032,2106
2050,2051,2030,2072,2095,2052,2044,2104
2062,2057,2035,2065,2104,2047,2043,2099
2056,2059,2035,2068,2099,2046,2037,2090
2056,2061,2037,2062,2103,2047,2017,2081
2055,2059,2034,2067,2116,2054,2037,2069
2054,2059,2034,2065,2131,2061,2039,2061
2059,2057,2037,2057,2121,2060,2068,2042
2044,2043,2032,2052,2113,2054,2056,2031
2046,2042,2031,2046,2088,2040,2043,2016
2043,2038,2028,2031,2020,2041,2044,2006
2046,2045,2030,2030,2004,2044,2057,1999
2048,2045,2034,2035,2019,2051,2054,1994
2048,2039,2038,2039,2023,2054,2051,1988
2045,2051,2045,2041,2034,2061,2054,1991
2048,2055,2060,2049,2042,2058,2075,1994
2053,2071,2075,2056,2058,2066,2065,2007
2058,2068,2072,2063,2062,2062,2072,2016
2053,2067,2071,2064,2064,2065,2065,2023
2052,2067,2068,2064,2048,2055,2048,2034
2048,2056,2065,2063,2055,2049,2063,2041
2046,2049,2068,2063,2048,2045,2063,2057
2049,2048,2065,2059,2049,2044,2062,2063
2045,2051,2062,2063,2047,2043,2063,2068
2045,2051,2052,2062,2048,2035,2065,2073
2047,2045,2048,2057,2044,2031,2055,2078
2047,2041,2047,2058,2042,2039,2042,2095
2047,2037,2040,2052,2046,2057,2039,2107
2052,2041,2038,2050,2030,2062,2036,2098
2040,2026,2028,2046,2031,2069,2027,2092
2037,2020,2028,2051,2047,2079,2053,2104
2042,2031,2038,2066,2062,2092,2054,2103
2045,2032,2033,2066,2056,2073,2043,2104
2044,2036,2039,2078,2048,2011,2045,2098
2051,2035,2047,2084,2042,1978,2031,2098
2048,2041,2043,2077,2039,1988,2053,2097
2040,2041,2042,2068,2046,2018,2060,2087
2047,2047,2047,2080,2073,2038,2063,2080
2050,2047,2047,2080,2080,2050,2069,2066
2050,2045,2046,2076,2080,2061,2079,2055
2050,2048,2052,2080,2082,2069,2086,2046
2053,2053,2049,2067,2074,2066,2056,2023
2042,2045,2044,2053,2057,2058,2052,2008
2040,2042,2036,2032,2053,2054,2071,2000
2035,2038,2037,2020,2047,2045,2069,1983
2040,2035,2035,1998,2036,2048,2057,1977
2033,2032,2033,1991,2036,2046,2056,1975
2036,2036,2035,1991,2024,2058,2053,1988
2036,2036,2030,1996,2021,2052,2055,1986
2040,2041,2028,2005,2027,2049,2068,2007
2043,2048,2036,2016,2034,2038,2057,2013
2048,2056,2047,2016,2012,2024,2050,2026
2049,2060,2061,2018,2003,2001,2029,2044
2049,2065,2070,2028,2010,2009,2018,2056
2052,2062,2086,2038,2016,2024,2043,2068
2054,2058,2075,2043,2037,2046,2032,2076
2056,2055,2068,2047,2049,2060,2051,2074
2050,2057,2053,2043,2033,2062,2044,2090
2056,2061,2057,2056,2067,2043,2039,2105
2056,2067,2068,2066,2073,2045,2029,2111
2060,2059,2061,2064,2039,2047,2027,2108
2053,2058,2059,2056,2026,2050,2043,2112
2041,2032,2046,2040,2030,2055,2041,2114
2035,2035,2038,2042,2047,2062,2058,2112
2044,2038,2038,2043,2061,2054,2041,2109
2036,2038,2032,2024,2059,2037,2028,2101
2042,2037,2042,2033,2108,2040,2046,2101
2050,2048,2049,2059,2180,2068,2046,2107
2053,2053,2060,2072,2182,2074,2064,2096
2049,2049,2059,2064,2116,2056,2047,2088
2052,2048,2052,2046,2030,2041,2045,2082
2043,2048,2059,2047,2020,2041,2044,2069
2047,2050,2066,2049,2025,2043,2055,2053
2050,2055,2066,2056,2044,2043,2049,2044
2050,2056,2069,2054,2056,2049,2052,2036
2056,2059,2065,2055,2067,2051,2043,2024
2053,2057,2059,2055,2072,2051,2036,2009
2051,2058,2061,2049,2066,2048,2053,1997
2044,2052,2048,2046,2055,2032,2048,1992
2049,2048,2048,2051,2047,2032,2039,1989
2047,2058,2059,2063,2048,2052,2052,1999
2047,2069,2062,2066,2059,2049,2048,2000
2051,2064,2058,2059,2051,2044,2038,2007
2048,2064,2053,2057,2039,2030,2039,2010
2045,2066,2054,2050,2017,2008,2018,2020
2046,2067,2054,2043,1983,1998,2026,2031
2043,2067,2048,2045,1991,1999,2032,2039
2039,2056,2040,2043,1986,2008,2018,2048
2042,2051,2035,2027,1981,2018,2038,2059
2038,2052,2040,2033,1993,2040,2043,2074
2050,2061,2049,2044,2011,2045,2057,2094
2054,2065,2041,2048,2052,2042,2061,2094
2044,2060,2039,2061,2093,2053,2060,2094
2047,2082,2058,2066,2089,2054,2049,2094
2049,2085,2061,2056,2062,2027,2038,2094
2041,2080,2061,2049,2058,2017,2047,2103
2045,2077,2061,2049,2067,2035,2023,2107
2048,2079,2064,2062,2066,2036,2038,2098
2036,2071,2063,2056,2072,2036,2042,2102
2048,2068,2065,2066,2105,2052,2057,2100
2048,2075,2077,2071,2130,2068,2050,2097
2046,2080,2074,2068,2110,2068,2057,2087
2051,2072,2069,2064,2066,2061,2065,2091
2055,2073,2064,2060,2058,2056,2071,2090
2059,2071,2061,2058,2069,2054,2064,2078
2053,2059,2054,2040,2063,2051,2064,2060
2048,2047,2048,2036,2052,2053,2068,2048
2051,2042,2047,2036,2054,2056,2071,2031
2053,2049,2054,2029,2051,2066,2064,2021
2052,2042,2055,2038,2057,2077,2088,2011
2060,2044,2061,2045,2063,2088,2089,2001
2049,2038,2049,2045,2068,2082,2086,1985
2039,2029,2037,2043,2063,2079,2063,1982
2041,2037,2042,2046,2058,2082,2056,1990
2038,2036,2038,2042,2044,2078,2051,1991
2037,2039,2036,2043,2040,2067,2047,1997
2035,2035,2039,2042,2039,2064,2042,2011
2035,2036,2036,2035,2034,2048,2040,2021
2036,2045,2039,2054,2057,2012,2038,2045
2051,2054,2041,2056,2067,2005,2051,2054
2055,2045,2041,2057,2076,2009,2036,2058
2048,2043,2040,2061,2071,2021,2035,2057
2046,2043,2032,2054,2070,2028,2014,2064
2042,2032,2036,2048,2054,2033,2038,2073
2038,2029,2027,2049,2053,2032,2043,2081
2041,2026,2026,2048,2058,2027,2046,2089
2043,2037,2036,2053,2057,2032,2040,2093
2046,2036,2037,2057,2059,2033,2051,2104
2042,2039,2038,2053,2056,2036,2060,2115
2055,2049,2044,2058,2068,2045,2049,2112
2055,2047,2040,2048,2066,2050,2057,2106
2053,2045,2043,2049,2061,2044,2052,2100
2046,2051,2043,2047,2062,2042,2062,2100
2051,2049,2052,2058,2060,2045,2059,2100
2054,2066,2069,2061,2072,2041,2053,2088
2053,2080,2082,2064,2067,2038,2049,2080
2064,2074,2081,2069,2072,2038,2048,2071
2062,2066,2073,2066,2069,2036,2027,2058
2054,2053,2061,2064,2059,2037,2031,2034
2057,2051,2060,2060,2060,2034,2038,2016
2046,2047,2051,2056,2057,2047,2036,2005
2044,2045,2055,2056,2061,2057,2033,1995
2045,2047,2056,2055,2056,2047,2027,1989
2038,2033,2044,2045,2044,2037,2028,1977
2037,2025,2035,2040,2054,2033,2026,1978
2044,2041,2036,2049,2063,2039,2040,1983
2045,2038,2044,2057,2076,2044,2050,1983
2044,2040,2045,2063,2069,2043,2049,1990
2042,2042,2045,2071,2074,2046,2067,2002
2046,2045,2045,2068,2064,2041,2050,2015
2045,2041,2037,2064,2055,2037,2052,2026
2043,2032,2032,2059,2071,2034,2041,2033
2037,2025,2020,2057,2104,2031,2054,2045
2039,2013,2021,2052,2114,2039,2028,2064
2036,2024,2025,2061,2120,2040,2035,2072
2043,2022,2024,2063,2128,2040,2028,2075
2038,2026,2017,2057,2118,2049,2057,2084
2041,2030,2026,2057,2099,2050,2036,2096
2049,2034,2031,2058,2077,2045,2023,2099
2043,2026,2019,2040,2042,2031,2028,2088
2038,2019,2011,2019,1998,2020,2014,2094
2034,2020,2002,2005,1932,2010,2025,2098
2025,2015,2006,2010,1964,2016,2032,2092
2025,2024,2019,2020,1992,2029,2021,2091
2033,2030,2024,2022,2013,2033,2031,2092
2035,2031,2019,2029,2023,2030,2025,2085
2038,2029,2021,2028,2024,2035,2042,2075
2040,2033,2036,2035,2040,2049,2052,2073
2044,2035,2043,2041,2058,2062,2047,2060
2039,2047,2069,2044,2063,2058,2066,2041
2042,2045,2074,2050,2065,2056,2063,2028
2039,2042,2086,2050,2075,2064,2066,2006
2033,2043,2088,2052,2076,2058,2067,2001
2038,2045,2077,2051,2074,2054,2058,1988
2029,2040,2061,2043,2063,2038,2041,1981
2033,2043,2053,2036,2039,2026,2041,1972
2035,2036,2049,2033,2036,2030,2047,1972
2034,2047,2055,2038,2033,2052,2056,1984
2047,2054,2052,2036,2021,2050,2046,1985
2041,2049,2045,2031,2032,2047,2038,1984
2041,2043,2049,2036,2032,2044,2049,1997
2034,2039,2049,2042,2046,2017,2035,2007
2040,2040,2046,2047,2053,2000,2058,2026
2044,2041,2058,2056,2082,2011,2048,2048
2049,2049,2055,2058,2086,2028,2068,2059
2055,2057,2060,2059,2093,2052,2068,2077
2064,2051,2059,2062,2082,2052,2041,2078
2058,2053,2058,2055,2064,2046,2064,2076
2059,2056,2054,2053,2067,2041,2062,2092
2049,2055,2061,2049,2063,2045,2041,2097
2048,2059,2053,2049,2067,2043,2059,2100
2061,2058,2050,2045,2068,2036,2056,2101
2043,2040,2046,2044,2061,2034,2050,2091
2043,2041,2053,2054,2070,2041,2073,2104
2055,2055,2061,2057,2077,2051,2060,2104
2053,2060,2063,2058,2076,2056,2065,2100
2053,2047,2059,2057,2078,2061,2057,2088
2046,2045,2054,2052,2081,2063,2063,2082
2041,2045,2052,2049,2081,2066,2058,2073
2046,2038,2050,2052,2080,2074,2055,2062
2040,2029,2043,2041,2075,2074,2064,2058
2050,2045,2051,2049,2082,2079,2072,2051
2057,2047,2046,2042,2076,2080,2072,2036
2049,2040,2045,2043,2070,2074,2059,2033
2053,2041,2045,2041,2063,2064,2071,2018
2049,2046,2042,2042,2050,2048,2065,2013
2061,2055,2050,2047,2048,2044,2062,2007
2064,2059,2051,2043,2043,2043,2036,1999
2054,2045,2049,2040,2033,2054,2059,1981
2055,2051,2059,2051,2038,2068,2054,1990
2060,2054,2060,2050,2037,2064,2051,1990
2056,2053,2051,2042,2029,2051,2023,1997
2056,2045,2052,2043,2027,2018,2054,2014
2054,2047,2049,2047,2041,2005,2056,2021
2057,2040,2038,2050,2054,2017,2062,2032
2052,2034,2042,2050,2058,2025,2061,2044
2047,2037,2043,2051,2058,2031,2051,2061
2047,2040,2038,2050,2062,2036,2052,2061
2049,2031,2037,2051,2044,2035,2054,2065
2043,2030,2029,2046,2032,2039,2056,2079
2048,2040,2036,2039,2036,2046,2062,2081
2045,2040,2038,2041,2032,2049,2052,2090
2050,2040,2040,2041,2034,2054,2062,2087
2048,2038,2035,2033,2032,2055,2042,2093
2040,2026,2030,2034,2030,2069,2051,2099
2047,2031,2035,2041,2036,2084,2062,2095
2052,2032,2033,2043,2099,2111,2060,2094
2042,2033,2036,2051,2137,2130,2060,2086
2039,2035,2043,2054,2116,2110,2046,2088
2049,2040,2050,2057,2088,2054,2023,2078
2045,2039,2049,2047,2058,1988,2032,2064
2045,2046,2056,2049,2061,1983,2043,2058
2042,2038,2054,2053,2078,2004,2037,2050
2045,2048,2051,2053,2075,2019,2031,2043
2045,2049,2058,2051,2079,2019,2042,2031
2050,2050,2056,2055,2077,2032,2056,2016
2047,2050,2057,2049,2076,2041,2066,2007
2051,2043,2052,2056,2069,2044,2058,2003
2047,2046,2054,2056,2069,2039,2052,1995
2050,2033,2046,2045,2060,2035,2048,1987
2043,2033,2045,2048,2066,2035,2050,1976
2046,2038,2053,2053,2063,2043,2047,1987
2051,2048,2059,2047,2056,2041,2053,1998
2049,2045,2051,2052,2057,2044,2058,2001
2054,2046,2060,2048,2056,2047,2059,2015
2052,2044,2054,2049,2064,2050,2059,2021
2054,2047,2052,2045,2058,2059,2056,2025
2055,2046,2046,2044,2044,2056,2059,2049
2051,2046,2050,2042,2029,2052,2060,2048
2051,2045,2046,2038,2029,2046,2050,2057
2045,2045,2039,2027,2030,2053,2061,2060
2048,2038,2043,2028,2045,2065,2061,2068
2050,2049,2048,2050,2074,2067,2030,2080
2055,2048,2049,2055,2077,2061,2070,2089
2055,2041,2045,2053,2073,2046,2050,2092
2045,2044,2034,2049,2070,2034,2047,2091
2036,2024,2033,2047,2071,2024,2075,2092
2035,2030,2036,2043,2073,2012,2082,2100
2038,2037,2040,2044,2072,1995,2084,2101
2045,2042,2045,2048,2071,1991,2072,2103
2050,2054,2052,2052,2072,1993,2067,2100
2056,2051,2046,2052,2073,2007,2050,2095
2053,2047,2050,2058,2077,2018,2070,2092
2057,2046,2050,2052,2062,2028,2070,2076
2058,2046,2040,2047,2065,2052,2069,2051
2050,2038,2037,2044,2064,2054,2055,2033
2038,2035,2041,2044,2067,2051,2048,2013
2041,2034,2043,2047,2072,2063,2055,1995
2040,2041,2048,2048,2075,2063,2049,1982
2041,2041,2049,2044,2058,2047,2048,1974
2049,2044,2050,2042,2054,2036,2029,1967
2039,2024,2032,2038,2041,2016,2017,1960
2031,2019,2034,2042,2048,2029,2031,1955
2036,2022,2039,2039,2044,2033,2044,1958
2041,2031,2046,2045,2047,2040,2046,1968
2044,2038,2049,2046,2046,2051,2040,1983
2046,2035,2046,2042,2045,2059,2043,1993
2054,2036,2047,2047,2050,2067,2046,2011
2062,2051,2052,2048,2058,2075,2049,2028
2064,2047,2057,2045,2059,2073,2056,2030
2065,2053,2053,2051,2055,2070,2070,2035
2055,2050,2053,2049,2052,2066,2063,2053
2064,2053,2053,2050,2051,2057,2045,2061
2058,2048,2049,2048,2039,2046,2041,2065
2066,2048,2056,2047,2037,2043,2032,2073
2050,2038,2052,2045,2045,2050,2026,2079
2053,2044,2052,2051,2048,2054,2026,2084
2049,2037,2046,2046,2049,2060,2018,2079
2040,2032,2046,2041,2049,2049,2021,2087
2043,2050,2053,2051,2052,2051,2022,2090
2046,2037,2047,2049,2053,2048,2032,2090
2048,2042,2050,2046,2050,2050,2012,2084
2052,2037,2048,2037,2050,2044,2031,2076
2042,2040,2052,2041,2049,2048,2043,2069
2043,2033,2054,2044,2052,2051,2044,2062
2033,2042,2052,2045,2051,2043,2041,2048
2037,2044,2055,2049,2051,2046,2033,2039
2031,2037,2053,2045,2056,2045,2019,2027
2032,2036,2049,2045,2049,2039,2037,2016
2036,2044,2052,2049,2049,2045,2049,2005
2027,2045,2052,2053,2045,2034,2037,1990
2029,2042,2054,2051,2039,2018,2036,1991
2021,2039,2054,2052,2034,2006,2028,1978
2021,2035,2043,2040,2038,2017,2024,1962
2016,2028,2035,2044,2042,2028,2005,1964
2017,2037,2048,2055,2056,2039,2028,1968
2022,2041,2045,2054,2051,2041,2031,1974
2028,2046,2052,2051,2055,2042,2058,1984
2054,2055,2051,2053,2057,2036,2058,1999
2083,2058,2052,2046,2052,2032,2057,2008
2065,2052,2047,2049,2047,2038,2062,2022
2057,2053,2042,2057,2064,2041,2056,2036
2050,2047,2048,2053,2062,2036,2063,2040
2046,2042,2044,2048,2054,2039,2045,2049
2047,2049,2045,2046,2053,2052,2039,2054
2042,2050,2046,2043,2052,2079,2053,2061
2046,2053,2047,2042,2044,2070,2068,2077
2051,2059,2047,2048,2041,2057,2072,2084
2059,2062,2048,2042,2042,2034,2070,2084
2052,2054,2044,2038,2032,2017,2056,2088
2047,2052,2047,2040,2032,2011,2047,2090
2054,2060,2061,2050,2040,2021,2046,2087
2060,2062,2056,2049,2038,2037,2050,2080
2046,2054,2052,2051,2038,2063,2046,2069
2042,2050,2054,2052,2031,2049,2038,2065
2044,2047,2056,2054,2038,2045,2034,2061
2043,2045,2063,2052,2037,2061,2053,2060
2046,2047,2057,2052,2046,2076,2060,2058
2051,2051,2057,2053,2059,2093,2059,2047
2045,2054,2062,2054,2062,2097,2038,2035
2044,2053,2060,2052,2063,2097,2029,2025
2053,2060,2059,2049,2068,2098,2058,2020
2055,2057,2053,2052,2063,2112,2052,2011
2055,2057,2052,2045,2057,2120,2064,1998
2054,2050,2047,2045,2042,2096,2069,1982
2050,2045,2040,2030,2017,2064,2054,1965
2037,2032,2031,2022,2007,2048,2037,1950
2035,2041,2040,2018,2014,2061,2029,1961
2040,2044,2041,2030,2032,2061,2027,1972
2042,2052,2044,2028,2031,2044,2047,1988
2042,2049,2046,2025,2021,2041,2057,1994
2040,2048,2040,2019,2001,2036,2047,2004
2037,2048,2043,2025,1988,2027,2022,2025
2046,2047,2042,2021,1984,2032,2020,2030
2041,2039,2044,2023,1995,2042,2036,2042
2045,2049,2056,2033,2022,2057,2072,2054
2049,2054,2058,2047,2050,2054,2081,2076
2052,2052,2054,2049,2077,2062,2087,2087
2056,2054,2056,2062,2086,2051,2087,2097
2058,2054,2062,2055,2073,2018,2109,2110
2055,2051,2057,2048,2049,1991,2102,2105
2047,2034,2041,2041,2042,1990,2104,2094
2031,2031,2033,2029,2029,2016,2105,2100
2040,2039,2045,2035,2041,2048,2122,2105
2048,2046,2045,2041,2045,2070,2138,2113
2058,2049,2045,2040,2053,2079,2118,2110
2060,2055,2051,2047,2055,2089,2138,2108
2061,2058,2055,2055,2060,2111,2128,2097
2062,2058,2057,2057,2068,2165,2074,2078
2062,2064,2055,2061,2070,2210,2051,2052
2051,2060,2052,2053,2064,2203,2046,2024
2039,2050,2044,2044,2057,2111,1942,2008
2047,2050,2044,2037,2048,2003,1960,1993
2044,2045,2038,2036,2041,2000,2018,1986
2043,2053,2040,2037,2054,2043,2022,1977
2046,2054,2041,2043,2063,2080,2019,1975
2049,2056,2044,2039,2051,2094,2033,1962
2040,2052,2036,2033,2044,2075,2020,1950
2041,2043,2036,2033,2036,2056,2030,1947
2038,2048,2038,2036,2025,2055,2034,1946
2033,2042,2036,2034,2021,2084,2060,1953
2033,2044,2037,2034,2029,2075,2063,1961
2031,2040,2035,2036,2037,2046,2062,1975
2036,2045,2039,2038,2044,2038,2075,1995
2032,2041,2038,2038,2051,2061,2067,2005
2034,2038,2033,2040,2052,2076,2058,2011
2036,2038,2030,2038,2046,2076,2070,2026
2035,2043,2034,2040,2050,2079,2068,2040
2040,2056,2045,2047,2051,2080,2093,2053
2045,2059,2042,2044,2045,2064,2072,2061
2037,2059,2054,2049,2044,2052,2064,2064
2039,2051,2047,2046,2045,2027,2038,2060
2029,2047,2046,2049,2039,2045,2026,2060
2035,2040,2040,2039,2032,2048,2042,2066
2057,2050,2041,2047,2038,2056,2038,2071
2069,2062,2042,2040,2042,2056,2044,2071
2065,2060,2045,2054,2037,2058,2037,2054
2054,2065,2051,2053,2045,2066,2034,2060
2057,2072,2054,2058,2048,2057,2049,2069
2060,2068,2048,2055,2052,2026,2042,2062
2051,2061,2038,2053,2050,2017,2036,2045
2050,2055,2030,2051,2049,2025,2028,2027
2040,2046,2033,2041,2044,2035,2036,2014
2039,2044,2032,2040,2045,2049,2037,1998
2044,2046,2034,2034,2042,2046,2043,1991
2051,2055,2033,2036,2034,2035,2033,1972
2047,2064,2040,2034,2039,2035,2044,1978
2060,2072,2049,2041,2031,2035,2033,1970
2046,2067,2051,2041,2034,2027,2028,1957
2036,2057,2038,2040,2025,2015,2029,1947
2027,2044,2044,2035,2018,2023,2006,1947
2021,2054,2045,2040,2027,2036,2014,1944
2019,2053,2044,2038,2038,2042,2035,1946
2021,2057,2048,2045,2030,2043,2030,1963
2029,2056,2051,2045,2038,2041,2035,1955
2030,2055,2044,2046,2034,2040,2049,1969
2031,2054,2048,2050,2040,2038,2041,1979
2036,2057,2056,2053,2042,2033,2043,2001
2033,2055,2052,2049,2039,2030,2036,2019
2029,2047,2049,2049,2045,2031,2050,2012
2023,2044,2046,2045,2041,2034,2048,2016
2029,2047,2047,2050,2038,2026,2046,2030
2028,2046,2046,2049,2040,2028,2042,2037
2033,2049,2051,2049,2044,2035,2043,2041
2033,2051,2050,2055,2038,2028,2040,2048
2021,2037,2048,2053,2035,2024,2029,2065
2026,2051,2054,2062,2048,2038,2041,2077
2044,2067,2065,2072,2050,2056,2045,2090
2051,2070,2070,2074,2067,2071,2032,2106
2059,2068,2065,2081,2076,2078,2035,2107
2051,2069,2066,2083,2078,2084,2038,2106
2051,2070,2066,2083,2078,2091,2057,2096
2058,2069,2065,2083,2075,2092,2056,2083
2097,2078,2066,2086,2085,2091,2061,2074
2085,2070,2064,2078,2082,2082,2072,2054
2067,2064,2054,2068,2074,2077,2053,2034
2056,2054,2044,2057,2063,2062,2038,2005
2044,2049,2039,2040,2051,2046,2027,1981
2040,2047,2039,2024,2035,2039,2043,1971
2034,2041,2040,2026,2019,2030,2039,1965
2040,2049,2036,2023,2010,2021,2050,1954
2038,2037,2039,2022,2015,2031,2023,1953
2046,2040,2032,2022,2029,2044,2038,1960
2044,2048,2043,2032,2030,2052,2022,1968
2054,2051,2045,2035,2034,2055,2054,1977
2054,2059,2050,2046,2040,2067,2041,1986
2050,2062,2046,2045,2034,2074,2052,1992
2054,2064,2045,2050,2039,2072,2012,1999
2052,2062,2054,2060,2040,2067,2019,2012
2052,2062,2051,2059,2057,2054,2026,2023
2054,2061,2054,2060,2057,2029,2025,2027
2046,2053,2048,2052,2047,2031,2031,2040
2046,2046,2038,2050,2046,2037,2021,2038
2043,2045,2040,2046,2033,2016,1993,2045
2038,2038,2039,2042,2021,1999,2032,2057
2043,2051,2043,2040,2011,1996,2018,2069
2040,2051,2043,2041,2012,2002,2023,2070
2043,2046,2033,2036,2010,2016,2025,2070
2040,2041,2037,2037,2026,2042,2036,2083
2045,2055,2052,2064,2065,2054,2036,2092
2063,2061,2060,2072,2080,2060,2060,2099
2058,2063,2064,2068,2078,2067,2062,2091
2059,2068,2067,2060,2082,2100,2076,2089
2059,2061,2056,2059,2071,2115,2099,2065
2051,2058,2054,2043,2053,2090,2076,2049
2045,2057,2045,2036,2031,2068,2046,2036
2039,2056,2043,2031,2006,2054,2056,2015
2039,2057,2048,2030,2002,2033,2026,2006
2038,2060,2048,2037,2009,2045,2050,1985
2040,2054,2042,2035,2008,2044,2034,1973
2043,2053,2050,2034,2034,2037,2049,1969
2045,2055,2049,2046,2054,2056,2054,1964
2048,2055,2053,2053,2067,2054,2028,1955
2039,2046,2040,2048,2070,2018,2015,1955
2035,2044,2044,2047,2065,2010,2020,1949
2039,2050,2045,2040,2054,2012,2001,1949
2034,2048,2042,2039,2046,2022,2030,1956
2043,2054,2039,2046,2049,2033,2044,1974
2050,2055,2046,2044,2060,2047,2051,1984
2042,2048,2035,2044,2050,2032,2038,1987
2042,2044,2038,2033,2040,2029,2028,2001
2034,2042,2035,2041,2034,2029,2038,2010
2030,2034,2031,2045,2029,2029,2050,2024
2033,2036,2032,2039,2030,2032,2050,2035
2036,2036,2027,2041,2025,2037,2056,2047
2037,2039,2030,2039,2021,2043,2063,2053
2035,2044,2034,2038,2020,2045,2065,2066
2042,2045,2037,2041,2028,2043,2062,2067
2037,2036,2029,2036,2022,2016,2043,2067
2033,2028,2021,2030,2019,2018,2038,2064
2033,2034,2027,2031,2013,2022,2035,2072
2041,2051,2031,2033,2011,2017,2013,2069
2035,2045,2036,2031,1995,2024,2025,2062
2032,2050,2032,2033,1988,2033,2018,2061
2039,2055,2046,2041,1995,2031,2010,2056
2043,2058,2041,2042,2005,2057,2006,2046
2044,2059,2045,2046,2034,2044,2015,2042
2044,2058,2052,2052,2045,2043,2015,2028
2038,2047,2043,2057,2077,2070,2043,2019
2039,2046,2038,2054,2094,2091,2045,2008
2044,2049,2030,2056,2084,2093,2042,1995
2043,2051,2035,2054,2073,2091,2036,1982
2045,2053,2031,2048,2064,2096,2041,1981
2044,2055,2044,2046,2066,2094,2039,1967
2042,2055,2045,2041,2058,2078,2019,1947
2031,2038,2032,2033,2054,2071,2036,1941
2021,2040,2044,2044,2060,2078,2046,1952
2038,2053,2046,2044,2048,2060,2036,1963
2045,2059,2053,2043,2055,2045,2038,1968
2040,2055,2045,2039,2051,2039,2041,1985
2041,2052,2043,2038,2058,2058,2042,1987
2043,2050,2045,2036,2061,2070,2034,1999
2035,2045,2045,2040,2050,2073,2028,2006
2031,2040,2042,2035,2048,2066,2018,2012
2032,2045,2042,2038,2058,2054,2032,2018
2036,2048,2047,2034,2050,2023,2029,2036
2040,2048,2041,2033,2043,2007,2024,2051
2040,2049,2046,2037,2047,2016,2016,2059
2043,2045,2040,2040,2049,2034,2039,2065
2040,2041,2036,2041,2047,2052,2034,2077
2041,2034,2044,2038,2045,2057,2021,2072
2028,2028,2033,2032,2038,2056,2027,2077
2033,2031,2038,2036,2036,2058,2040,2073
2041,2037,2040,2036,2016,2060,2031,2069
2037,2040,2039,2027,2002,2052,2052,2063
2039,2046,2031,2034,2005,2075,2056,2060
2046,2054,2039,2034,2003,2093,2065,2063
2046,2054,2054,2037,2012,2100,2073,2056
2052,2064,2071,2048,2049,2111,2061,2057
2056,2067,2084,2062,2079,2129,2055,2043
2045,2066,2081,2059,2075,2091,2058,2025
2043,2068,2076,2053,2064,2027,2029,2002
2039,2067,2075,2047,2058,1991,2053,1981
2047,2062,2070,2039,2048,2028,2040,1965
2039,2056,2064,2038,2049,2073,2040,1966
2039,2058,2047,2042,2050,2066,2046,1959
2040,2055,2050,2030,2040,2006,2031,1953
2037,2051,2041,2033,2041,1991,2037,1948
2037,2054,2045,2039,2043,1998,2027,1948
2042,2053,2044,2046,2042,2013,2037,1962
2038,2050,2043,2046,2038,2029,2019,1972
2045,2050,2044,2047,2044,2040,2029,1980
2048,2048,2045,2048,2043,2037,2030,1992
2044,2045,2041,2049,2045,2052,2045,2005
2044,2050,2041,2044,2050,2064,2063,2021
2042,2044,2043,2045,2050,2065,2062,2030
2038,2042,2035,2045,2054,2072,2060,2033
2039,2037,2035,2041,2047,2056,2050,2038
2033,2036,2031,2047,2043,2053,2058,2040
2038,2036,2040,2048,2044,2062,2057,2053
2036,2034,2037,2048,2052,2068,2051,2061
2033,2037,2044,2046,2049,2084,2066,2062
2044,2046,2061,2054,2060,2094,2047,2072
2039,2043,2057,2052,2058,2109,2065,2074
2043,2045,2064,2047,2050,2086,2053,2075
2043,2055,2065,2045,2053,2012,2028,2074
2037,2044,2070,2044,2045,1940,2042,2066
2049,2054,2077,2044,2036,1968,2042,2066
2049,2055,2074,2041,2025,2021,2064,2058
2048,2053,2070,2039,2032,2046,2069,2053
2052,2056,2069,2045,2041,2054,2076,2048
2042,2051,2069,2042,2054,2050,2077,2040
2038,2046,2070,2045,2056,2057,2059,2033
2036,2046,2067,2046,2068,2070,2053,2015
2039,2055,2070,2053,2064,2082,2068,2005
2044,2053,2066,2053,2071,2079,2063,1996
2047,2055,2073,2051,2056,2075,2062,1986
2042,2050,2060,2040,2033,2060,2066,1980
2043,2049,2054,2028,2027,2060,2060,1969
2034,2036,2051,2022,2020,2056,2039,1959
2031,2036,2046,2029,2027,2056,2036,1950
2036,2053,2064,2042,2041,2050,2025,1956
2040,2055,2065,2049,2043,2051,2019,1959
2040,2054,2069,2052,2045,2056,2043,1975
2047,2064,2065,2049,2040,2050,2035,1994
2043,2060,2056,2047,2032,2019,2024,1999
2042,2056,2061,2050,2025,1991,2026,2016
2048,2052,2052,2040,2005,1995,2031,2026
2047,2059,2049,2042,2001,2005,2045,2037
2044,2056,2055,2039,1999,2011,2045,2036
2037,2049,2050,2038,1996,2021,2052,2036
2031,2038,2039,2035,2017,2038,2038,2045
2033,2034,2038,2049,2043,2064,2055,2062
2040,2045,2050,2070,2071,2050,2030,2065
2044,2046,2044,2059,2066,2033,2039,2065
2035,2032,2036,2052,2052,2037,2043,2064
2028,2028,2032,2044,2051,2055,2035,2064
2030,2028,2027,2039,2025,2074,2053,2057
2023,2024,2026,2030,1998,2067,2047,2058
2028,2024,2023,2033,1986,2056,2038,2060
2031,2022,2020,2038,1981,2034,2033,2054
2031,2029,2021,2036,1986,2008,2057,2050
2028,2029,2030,2059,2040,1969,2064,2053
2044,2036,2041,2085,2077,1982,2070,2046
2030,2028,2029,2081,2080,2003,2072,2030
2030,2024,2012,2066,2073,2026,2079,2014
2032,2022,2008,2056,2064,2025,2076,1994
2030,2026,2007,2053,2059,2033,2050,1978
2026,2027,2010,2056,2058,2041,2047,1981
2038,2037,2013,2068,2069,2051,2068,1967
2036,2039,2011,2072,2065,2047,2067,1957
2028,2025,2004,2060,2052,2050,2040,1944
2028,2023,1993,2044,2037,2047,2064,1946
2034,2029,1994,2036,2035,2040,2057,1951
2034,2019,1986,2025,2027,2050,2027,1952
2023,2013,1988,2009,2026,2059,2030,1968
2019,2014,2015,2012,2018,2068,2021,1980
2023,2025,2040,2017,2016,2062,2025,1994
2029,2035,2053,2024,2021,2072,2061,2018
2043,2042,2050,2040,2032,2083,2072,2025
2035,2028,2040,2039,2038,2082,2075,2036
2030,2018,2027,2033,2033,2067,2058,2026
2012,2011,2017,2016,2006,2046,2038,2024
2009,2011,2008,2004,1972,2025,2032,2030
1997,2005,2004,1993,1966,2024,2030,2037
2003,1996,2014,1978,1949,2015,2021,2042
2003,2015,2041,1992,1955,1985,2017,2057
2001,2025,2075,2015,2004,1981,2026,2069
2021,2041,2110,2056,2064,2009,2044,2086
2039,2059,2114,2083,2102,2036,2062,2088
2037,2063,2103,2078,2120,2062,2064,2081
2040,2057,2093,2070,2107,2066,2053,2078
2041,2048,2082,2064,2075,2056,2044,2068
2032,2049,2072,2057,2061,2043,2059,2056
2035,2049,2072,2053,2060,2048,2046,2044
2033,2050,2072,2048,2056,2080,2059,2042
2038,2054,2074,2047,2055,2092,2058,2034
2044,2062,2071,2046,2057,2104,2073,2030
2049,2068,2077,2048,2056,2105,2076,2015
2051,2058,2065,2045,2058,2073,2085,2010
2057,2053,2070,2060,2079,2016,2097,2005
2054,2052,2076,2061,2090,2023,2090,1989
2045,2049,2072,2053,2067,2047,2073,1974
2038,2040,2055,2042,2065,2066,2073,1963
2038,2040,2052,2041,2053,2078,2054,1961
2033,2038,2047,2037,2038,2096,2051,1958
2030,2040,2040,2017,1998,2079,2046,1960
2022,2027,2032,2008,1978,2013,2036,1974
2019,2024,2025,2009,1968,1988,2032,1988
2030,2034,2026,2019,1966,1983,2041,2008
2043,2043,2031,2029,2000,1951,2032,2035
2056,2061,2045,2043,2043,1940,2052,2056
2058,2058,2045,2051,2073,1958,2059,2067
2058,2060,2047,2060,2083,2008,2072,2078
2056,2072,2057,2069,2088,2039,2069,2090
2057,2068,2058,2066,2075,2041,2066,2082
2053,2059,2063,2066,2070,2049,2069,2080
2048,2050,2074,2061,2056,2047,2048,2085
2038,2050,2068,2050,2027,2046,2008,2080
2020,2020,2049,2029,2008,2050,2012,2076
2014,2019,2052,2026,2020,2076,2048,2084
2030,2043,2071,2046,2039,2069,2050,2090
2040,2045,2082,2052,2047,2072,2059,2090
2037,2049,2076,2060,2049,2051,2063,2089
2040,2050,2070,2059,2054,2048,2060,2088
2043,2048,2072,2059,2060,2035,2048,2080
2044,2052,2073,2060,2056,1998,2026,2071
2043,2050,2078,2056,2049,1974,2032,2055
2037,2048,2073,2056,2041,1984,2037,2041
2039,2044,2073,2055,2031,1994,2024,2026
2037,2051,2070,2050,2032,2015,2046,2016
2039,2056,2074,2049,2027,2029,2030,2001
2038,2056,2072,2045,2024,2035,2021,1979
2040,2051,2066,2047,2026,2039,2024,1977
2039,2060,2082,2055,2046,2058,2035,1972
2034,2054,2067,2047,2040,2067,2046,1971
2036,2052,2065,2043,2039,2083,2058,1975
2045,2066,2075,2046,2043,2074,2049,1982
2043,2061,2074,2047,2033,2068,2032,1988
2045,2056,2066,2046,2032,2054,2038,1996
2044,2050,2059,2047,2027,2046,2057,2000
2040,2052,2056,2052,2031,2050,2035,2009
2043,2052,2062,2046,2033,2044,2046,2022
2046,2052,2056,2049,2034,2048,2053,2041
2043,2052,2054,2052,2038,2057,2059,2056
2046,2043,2060,2050,2034,2050,2055,2064
2045,2045,2057,2044,2029,2039,2058,2068
2042,2038,2056,2047,2025,2032,2043,2067
2038,2031,2052,2040,2032,2026,2040,2075
2037,2032,2045,2038,2025,2026,2037,2086
2034,2029,2047,2037,2015,2015,2035,2082
2027,2019,2038,2029,2009,2003,2036,2089
2032,2026,2040,2028,2005,2008,2033,2093
2042,2036,2046,2035,2020,2031,2022,2099
2046,2037,2050,2039,2027,2037,2029,2097
2050,2044,2058,2043,2023,2034,2055,2088
2054,2047,2060,2046,2029,2040,2055,2090
2051,2050,2063,2044,2028,2048,2049,2081
2054,2057,2064,2047,2036,2042,2060,2077
2048,2050,2058,2042,2037,2046,2050,2064
2044,2045,2055,2044,2046,2048,2064,2053
2036,2048,2055,2046,2056,2058,2063,2041
2044,2051,2051,2049,2052,2057,2067,2030
2047,2043,2047,2047,2053,2054,2049,2014
2042,2038,2052,2044,2049,2053,2042,2001
2039,2047,2054,2050,2046,2047,2040,1996
2044,2051,2052,2046,2043,2048,2018,1988
2042,2033,2045,2045,2040,2050,2021,1984
2036,2038,2038,2050,2045,2053,2015,1976
2047,2046,2047,2051,2041,2065,2016,1985
2047,2046,2053,2054,2042,2068,2038,1985
2048,2049,2052,2051,2042,2075,2068,1994
2057,2048,2053,2051,2041,2076,2075,2006
2052,2053,2054,2051,2046,2066,2059,2020
2055,2056,2054,2054,2049,2068,2064,2027
2054,2049,2051,2053,2040,2056,2048,2034
2049,2042,2046,2043,2040,2044,2027,2045
2045,2040,2048,2040,2034,2035,2058,2061
2049,2043,2041,2045,2037,2041,2066,2073
2056,2044,2034,2045,2036,2034,2048,2077
2044,2047,2036,2045,2035,2032,2035,2077
2046,2044,2040,2043,2031,2025,2035,2085
2045,2038,2039,2043,2030,2017,2037,2086
2039,2030,2032,2038,2022,2015,2054,2087
2034,2031,2031,2035,2022,2023,2045,2097
2041,2041,2039,2041,2032,2051,2069,2100
2045,2044,2043,2044,2034,2054,2072,2097
2043,2044,2041,2050,2035,2055,2064,2101
2049,2041,2035,2047,2047,2062,2072,2099
2047,2046,2038,2045,2043,2074,2065,2090
2045,2040,2034,2045,2047,2069,2054,2078
2044,2042,2035,2044,2042,2060,2061,2067
2039,2038,2034,2043,2048,2056,2055,2052
2037,2044,2033,2040,2049,2061,2057,2047
2046,2037,2032,2043,2044,2061,2046,2031
2048,2036,2027,2040,2052,2060,2045,2015
2043,2034,2017,2035,2037,2047,2037,2003
2039,2032,2025,2034,2028,2035,2007,1992
2038,2041,2028,2036,2025,2031,2005,1978
2041,2036,2026,2029,2025,2027,2010,1968
2027,2025,2019,2031,2043,2056,2009,1967
2036,2032,2026,2040,2066,2059,2020,1984
2045,2038,2040,2057,2077,2040,2024,1989
2047,2053,2035,2050,2053,2036,2017,1992
2034,2041,2035,2034,2047,2040,2030,1994
2042,2044,2044,2038,2041,2044,2023,2004
2039,2045,2031,2036,2046,2057,2039,2016
2042,2043,2027,2040,2044,2041,2026,2034
2050,2042,2027,2038,2039,2040,2025,2040
2041,2035,2036,2044,2036,2032,2032,2060
2041,2044,2040,2041,2030,2025,2032,2063
2043,2043,2039,2045,2018,2015,2013,2065
2039,2038,2039,2049,2020,2009,2000,2068
2040,2034,2044,2050,2033,2020,2002,2075
2038,2030,2042,2056,2045,2022,2012,2082
2039,2033,2044,2051,2038,2025,1993,2082
2029,2024,2048,2042,2022,2044,2004,2089
2032,2021,2061,2043,2014,2062,2027,2097
2045,2038,2069,2036,1998,2074,2040,2093
2042,2040,2072,2028,1988,2082,2037,2097
2038,2037,2062,2024,1988,2064,2070,2095
2041,2046,2059,2033,2014,2032,2068,2100
2051,2050,2061,2040,2042,2033,2069,2092
2049,2056,2068,2054,2067,2060,2077,2082
2049,2057,2060,2050,2078,2086,2088,2081
2052,2059,2066,2057,2082,2094,2087,2070
2060,2060,2063,2051,2077,2081,2084,2048
2053,2058,2059,2050,2064,2066,2069,2029
2045,2048,2050,2045,2062,2041,2055,2011
2047,2048,2055,2048,2067,2027,2044,1989
2043,2048,2055,2047,2068,2015,2033,1978
2036,2047,2047,2047,2062,2002,2020,1964
2032,2041,2047,2038,2040,1989,2004,1969
2028,2036,2044,2042,2037,1987,2011,1982
2051,2064,2062,2047,2032,1977,2037,1994
2053,2064,2061,2042,2004,1963,2023,2001
2052,2068,2054,2040,1992,1961,2009,1998
2045,2060,2057,2034,1998,1981,2016,1997
2042,2047,2045,2034,2016,2008,2010,2004
2047,2049,2042,2050,2057,2061,2045,2024
2048,2051,2039,2059,2071,2080,2049,2031
2042,2048,2041,2060,2088,2083,2036,2045
2039,2042,2036,2059,2097,2084,2050,2062
2040,2039,2043,2056,2081,2082,2039,2069
2040,2040,2043,2044,2053,2072,2047,2080
2049,2043,2044,2045,2050,2075,2071,2091
2053,2051,2045,2045,2054,2078,2054,2100
2060,2057,2047,2048,2056,2100,2062,2107
2054,2044,2034,2046,2048,2093,2047,2102
2048,2038,2034,2039,2050,2092,2019,2103
2045,2049,2034,2044,2050,2110,2031,2104
2036,2046,2034,2042,2044,2128,2022,2099
2035,2041,2036,2038,2046,2154,2029,2100
2037,2039,2032,2036,2053,2207,2034,2097
2037,2037,2029,2035,2061,2262,2070,2100
2040,2035,2030,2039,2062,2306,2100,2094
2044,2037,2032,2042,2074,2319,2105,2085
2040,2035,2028,2042,2089,2201,2088,2062
2037,2033,2032,2039,2094,2034,2053,2050
2036,2033,2028,2040,2098,1955,2033,2045
2045,2038,2037,2051,2103,1944,2050,2027
2042,2042,2037,2047,2100,1982,2048,2010
2034,2037,2033,2046,2089,2024,2055,1986
2037,2033,2034,2039,2070,2029,2026,1967
2028,2030,2033,2032,2049,1983,2013,1962
2018,2023,2028,2021,2032,1952,2035,1962
2024,2025,2030,2024,2036,1950,2021,1966
2037,2047,2039,2036,2031,1968,2050,1976
2037,2041,2033,2033,2031,1993,2043,1983
2046,2041,2034,2044,2035,2019,2053,1997
2048,2048,2033,2049,2038,2045,2032,2014
2050,2048,2039,2045,2043,2045,2058,2024
2048,2049,2047,2051,2038,2039,2065,2033
2056,2052,2054,2051,2043,2037,2050,2047
2047,2056,2057,2052,2040,2033,2034,2054
2045,2061,2062,2054,2045,2040,2031,2060
2047,2064,2069,2061,2049,2044,2029,2064
2052,2062,2064,2060,2053,2057,2032,2067
2044,2054,2054,2047,2048,2046,2032,2075
2047,2047,2047,2041,2042,2043,2058,2085
2046,2047,2046,2033,2031,2030,2040,2088
2035,2029,2033,2031,2023,2020,2043,2092
2039,2036,2039,2032,2035,2016,2040,2096
2049,2051,2045,2044,2040,2028,2048,2096
2050,2050,2046,2042,2050,2034,2056,2091
2047,2052,2050,2047,2053,2036,2052,2090
2049,2059,2056,2042,2061,2040,2059,2094
2052,2056,2054,2047,2066,2046,2046,2089
2049,2061,2053,2048,2056,2027,2064,2082
2045,2054,2047,2043,2041,1995,2028,2061
2039,2046,2053,2038,2041,1994,2032,2060
2032,2056,2054,2044,2040,2008,2050,2053
2039,2060,2052,2043,2039,2022,2065,2041
2046,2058,2053,2039,2026,2030,2046,2035
2044,2061,2050,2038,2014,2017,2047,2023
2052,2069,2048,2044,2018,2016,2047,2003
2043,2065,2050,2046,2035,2021,2051,1991
2046,2052,2041,2046,2027,2015,2013,1981
2037,2045,2028,2036,2022,2039,2023,1980
2032,2043,2031,2041,2025,2098,2054,1983
2029,2041,2026,2040,2023,2139,2069,1988
2034,2034,2017,2036,2022,2097,2045,1985
2028,2033,2015,2031,2012,2056,2040,1995
2029,2029,2011,2027,1997,2054,2038,2006
2028,2027,2010,2028,2007,2062,2024,2014
2020,2023,1999,2030,2023,2074,2007,2024
2021,2017,1998,2032,2032,2069,2033,2034
2031,2026,2001,2031,2036,2041,2013,2051
2034,2033,2003,2045,2062,2015,2041,2064
2035,2033,2004,2053,2076,2010,2034,2069
2039,2029,2008,2052,2082,2018,2051,2082
2038,2024,2008,2048,2078,2027,2045,2088
2041,2031,2013,2047,2065,2033,2039,2088
2046,2040,2018,2047,2055,2034,2035,2099
2045,2040,2029,2049,2049,2036,2027,2100
2049,2059,2047,2055,2056,2051,2042,2112
2053,2072,2054,2061,2057,2054,2042,2110
2053,2063,2051,2055,2051,2057,2065,2104
2053,2064,2056,2052,2054,2062,2064,2103
2050,2057,2066,2058,2056,2071,2073,2095
2055,2061,2067,2056,2054,2076,2061,2095
2057,2061,2073,2062,2059,2073,2062,2079
2057,2066,2083,2061,2060,2073,2068,2069
2058,2068,2083,2058,2062,2080,2070,2060
2051,2061,2080,2055,2050,2068,2060,2044
2043,2053,2061,2041,2047,2059,2061,2033
2039,2056,2061,2037,2046,2047,2066,2018
2045,2053,2060,2034,2049,2047,2083,2008
2040,2059,2065,2034,2055,2052,2048,1999
2042,2060,2064,2029,2047,2053,2052,1983
2036,2045,2051,2022,2040,2057,2020,1983
2034,2049,2049,2029,2041,2061,2029,1993
2035,2049,2048,2029,2026,2060,2057,1992
2041,2048,2052,2030,2037,2049,2050,2006
2042,2050,2054,2040,2046,2019,2041,2023
2044,2062,2060,2053,2056,2028,2055,2033
2057,2064,2062,2058,2059,2039,2054,2047
2053,2059,2058,2047,2057,2050,2065,2056
2050,2054,2053,2050,2054,2047,2053,2070
2055,2057,2052,2047,2051,2052,2057,2069
2053,2059,2052,2047,2054,2055,2063,2078
2047,2058,2054,2044,2041,2054,2059,2085
2053,2060,2048,2045,2045,2061,2065,2102
2056,2055,2054,2046,2046,2058,2052,2104
2053,2050,2046,2042,2038,2052,2059,2109
2050,2045,2042,2036,2036,2045,2058,2108
2036,2032,2034,2032,2037,2047,2049,2114
2042,2033,2024,2043,2047,2065,2074,2115
2045,2051,2028,2051,2049,2083,2063,2114
2050,2046,2033,2053,2056,2097,2053,2110
2052,2040,2031,2050,2066,2095,2089,2106
2054,2048,2035,2050,2072,2071,2069,2104
2064,2056,2041,2054,2072,2008,2065,2102
2064,2059,2039,2059,2083,2015,2064,2094
2066,2061,2039,2060,2090,2048,2062,2079
2054,2043,2028,2053,2085,2068,2061,2064
2054,2046,2028,2052,2073,2075,2059,2046
2051,2042,2024,2046,2061,2072,2057,2039
2043,2041,2022,2044,2056,2064,2059,2019
2041,2036,2022,2042,2059,2055,2042,2003
2036,2032,2015,2034,2058,2043,2044,1994
2034,2031,2017,2035,2053,2028,2046,1988
2026,2014,2006,2024,2052,2003,2029,1983
2027,2021,2014,2020,2044,1996,2041,1989
2042,2038,2043,2029,2052,2006,2037,1998
2048,2051,2062,2033,2052,2022,2078,2000
2052,2058,2070,2041,2057,2037,2081,2019
2046,2056,2060,2031,2052,2048,2072,2033
2049,2045,2049,2028,2043,2055,2040,2031
2048,2041,2042,2023,2031,2051,2057,2038
2041,2037,2038,2027,2018,2033,2060,2047
2038,2030,2037,2027,2021,2039,2040,2059
2041,2028,2036,2033,2036,2052,2070,2069
2045,2034,2054,2035,2045,2057,2068,2074
2040,2042,2066,2045,2045,2059,2077,2088
2049,2048,2081,2057,2045,2062,2089,2096
2056,2050,2084,2067,2052,2059,2062,2101
2048,2042,2081,2073,2058,2047,2058,2095
2039,2030,2065,2067,2051,2038,2035,2096
2033,2020,2057,2061,2046,2035,2049,2106
2047,2034,2055,2059,2053,2033,2052,2107
2046,2037,2047,2058,2050,2021,2049,2104
2049,2041,2051,2057,2054,2028,2052,2103
2041,2043,2049,2056,2051,2027,2037,2107
2051,2049,2051,2054,2058,2030,2036,2096
2052,2044,2051,2051,2054,2035,2056,2085
2051,2043,2043,2043,2037,2025,2052,2078
2042,2044,2048,2040,2029,2015,2037,2064
2050,2052,2057,2039,2024,2011,2038,2054
2051,2052,2062,2038,2026,2019,2055,2033
2046,2050,2059,2026,2039,2030,2062,2016
2041,2051,2049,2031,2057,2045,2053,2013
2046,2051,2064,2042,2076,2061,2067,1998
2043,2057,2063,2040,2073,2052,2038,1983
2035,2051,2050,2029,2068,2036,2039,1991
2040,2046,2048,2038,2064,2035,2041,1989
2049,2054,2054,2034,2063,2043,2041,1990
2045,2058,2044,2033,2065,2064,2039,1991
2040,2050,2039,2036,2063,2081,2049,2001
2046,2055,2038,2033,2056,2085,2056,2020
2044,2053,2032,2032,2054,2076,2033,2026
2049,2054,2031,2032,2038,2064,2052,2032
2040,2042,2036,2031,2047,2071,2064,2046
2041,2045,2039,2038,2052,2077,2064,2051
2040,2044,2050,2050,2053,2083,2073,2066
2038,2043,2053,2044,2054,2074,2068,2073
2045,2047,2048,2043,2049,2078,2055,2086
2050,2044,2050,2039,2048,2073,2045,2090
2047,2045,2049,2035,2033,2060,2049,2100
2044,2047,2048,2034,2038,2056,2032,2093
2044,2037,2041,2035,2035,2052,2030,2092
2038,2034,2045,2039,2047,2046,2043,2099
2040,2051,2058,2050,2044,2037,2017,2092
2039,2050,2047,2044,2044,2016,2039,2097
2046,2052,2056,2053,2054,2029,2035,2101
2049,2057,2057,2052,2056,2034,2046,2097
2049,2057,2062,2050,2058,2036,2046,2089
2049,2056,2062,2043,2062,2043,2038,2083
2047,2056,2058,2041,2056,2034,2045,2072
2043,2046,2064,2043,2061,2034,2029,2059
2046,2042,2056,2037,2048,2029,2043,2045
2046,2044,2052,2031,2043,2032,2048,2028
2042,2034,2042,2029,2036,2040,2035,2009
2029,2030,2029,2033,2041,2045,2043,1999
2032,2028,2035,2029,2043,2049,2050,1995
2038,2039,2048,2041,2045,2056,2043,1983
2040,2036,2044,2043,2034,2048,2057,1978
2035,2038,2048,2040,2033,2049,2052,1986
2047,2056,2061,2050,2047,2043,2059,1980
2046,2048,2054,2050,2051,2040,2057,1990
2046,2044,2051,2046,2042,2033,2051,1999
2047,2044,2043,2042,2020,2012,2041,2004
2045,2049,2049,2032,1999,2008,2048,2020
2043,2054,2052,2039,2003,2020,2057,2035
2048,2053,2049,2032,1994,2031,2058,2035
2039,2043,2040,2024,2007,2052,2036,2046
2044,2044,2038,2037,2043,2078,2044,2053
2045,2048,2043,2048,2064,2089,2064,2070
2053,2051,2046,2055,2083,2096,2072,2085
2052,2051,2046,2051,2080,2047,2065,2092
2046,2041,2040,2039,2057,2014,2065,2088
2050,2048,2042,2039,2045,2012,2053,2092
2040,2029,2034,2024,2032,2026,2063,2094
2036,2024,2024,2031,2036,2030,2059,2103
2042,2040,2032,2040,2048,2029,2045,2105
2044,2038,2038,2046,2049,2026,2042,2109
2044,2034,2034,2038,2052,2041,2068,2101
2046,2040,2030,2038,2050,2077,2084,2094
2051,2042,2031,2038,2051,2083,2074,2088
2047,2041,2033,2038,2056,2082,2077,2069
2048,2040,2028,2037,2056,2084,2059,2059
2042,2040,2038,2044,2057,2073,2054,2048
2043,2044,2044,2040,2045,2060,2057,2038
2049,2046,2044,2037,2049,2050,2051,2022
2043,2046,2043,2041,2048,2047,2030,2007
2039,2044,2046,2038,2056,2064,2042,2002
2047,2047,2047,2044,2051,2071,2064,2000
2051,2049,2052,2039,2046,2062,2031,1997
2045,2042,2049,2034,2041,2053,2059,1983
2044,2044,2043,2029,2037,2058,2033,1985
2051,2056,2054,2043,2043,2057,2034,1985
2048,2050,2049,2032,2037,2059,2033,1990
2052,2045,2045,2038,2042,2058,2058,1999
2047,2044,2038,2037,2041,2060,2054,2005
2044,2044,2041,2040,2045,2054,2042,2017
2049,2046,2040,2036,2037,2045,2043,2028
2048,2044,2031,2034,2036,2047,2021,2049
2051,2050,2031,2040,2034,2053,2049,2059
2054,2056,2035,2038,2039,2060,2061,2061
2056,2053,2035,2033,2045,2065,2044,2073
2053,2049,2034,2036,2044,2064,2048,2081
2054,2046,2032,2041,2046,2055,2068,2086
2053,2044,2024,2042,2047,2047,2041,2089
2054,2040,2023,2043,2043,2023,2046,2095
2055,2032,2025,2035,2036,2020,2030,2096
2047,2029,2025,2031,2041,2027,2026,2107
2050,2032,2026,2041,2039,2043,2051,2111
2049,2033,2032,2037,2042,2048,2046,2104
2047,2030,2032,2037,2046,2050,2044,2102
2052,2037,2039,2041,2040,2048,2054,2096
2046,2043,2043,2043,2043,2050,2057,2087
2055,2039,2052,2032,2042,2053,2054,2071
2046,2040,2051,2031,2043,2060,2052,2068
2045,2044,2050,2035,2035,2064,2053,2065
2052,2041,2044,2030,2041,2072,2065,2062
2061,2066,2057,2040,2058,2070,2066,2051
2071,2074,2061,2045,2064,2071,2060,2043
2069,2066,2060,2043,2054,2078,2044,2021
2058,2066,2055,2043,2051,2074,2060,2006
2054,2058,2049,2041,2053,2079,2059,1990
2055,2060,2041,2031,2048,2077,2053,1976
2051,2049,2042,2033,2046,2066,2058,1978
2055,2050,2046,2039,2051,2068,2057,1987
2056,2064,2053,2048,2056,2065,2064,1999
2055,2061,2053,2049,2053,2057,2034,1997
2051,2048,2046,2042,2049,2026,2034,2006
2052,2046,2040,2037,2047,2007,2025,2018
2051,2045,2033,2037,2045,2016,2042,2028
2038,2042,2029,2041,2044,2022,2019,2043
2044,2044,2033,2041,2043,2027,2042,2060
2045,2041,2038,2038,2039,2024,2055,2069
2054,2056,2056,2039,2041,2025,2048,2074
2057,2057,2056,2044,2040,2015,2049,2086
2057,2058,2057,2045,2038,2013,2062,2090
2064,2062,2069,2048,2041,2021,2062,2098
2056,2056,2064,2047,2052,2028,2067,2102
2058,2058,2057,2041,2050,2035,2059,2107
2048,2044,2044,2038,2036,2022,2041,2101
2058,2049,2052,2046,2037,2019,2043,2105
2058,2056,2049,2049,2042,2021,2036,2094
2059,2054,2054,2045,2046,2034,2048,2098
2055,2056,2057,2043,2050,2060,2054,2099
2059,2062,2061,2045,2046,2099,2051,2092
2049,2062,2066,2046,2049,2128,2052,2080
2054,2057,2071,2046,2057,2113,2055,2069
2052,2056,2066,2048,2057,2093,2045,2063
2056,2050,2067,2049,2057,2084,2059,2050
2058,2056,2065,2052,2060,2074,2065,2038
2053,2052,2060,2045,2057,2063,2055,2024
2043,2047,2051,2038,2048,2056,2047,2007
2029,2046,2049,2040,2049,2053,2029,1998
2037,2047,2051,2041,2052,2049,2043,1984
2037,2047,2052,2039,2054,2042,2033,1974
2036,2045,2048,2038,2047,2054,2050,1973
2044,2055,2052,2045,2056,2068,2062,1989
2048,2060,2060,2045,2055,2066,2050,1995
2050,2060,2054,2044,2052,2058,2048,2007
2050,2061,2054,2043,2048,2055,2050,2018
2051,2062,2054,2047,2050,2058,2037,2024
2048,2056,2058,2051,2047,2060,2040,2033
2051,2060,2056,2051,2049,2059,2045,2044
2052,2057,2060,2056,2043,2063,2031,2051
2047,2044,2055,2039,2024,2066,2041,2051
2042,2039,2042,2028,2014,2072,2032,2062
2036,2043,2043,2022,2012,2079,2045,2068
2037,2044,2043,2030,2010,2079,2072,2082
2041,2042,2044,2031,2020,2051,2060,2090
2038,2044,2044,2040,2043,2027,2050,2106
2043,2050,2046,2049,2074,2021,2062,2110
2035,2035,2035,2047,2073,2041,2061,2104
2035,2033,2033,2049,2078,2074,2072,2111
2046,2043,2034,2051,2082,2077,2064,2108
2047,2045,2030,2044,2065,2056,2061,2101
2046,2039,2026,2048,2061,2045,2040,2096
2041,2037,2024,2046,2059,2057,2064,2098
2046,2046,2031,2045,2052,2058,2068,2095
2044,2043,2038,2044,2049,2044,2062,2083
2044,2051,2039,2047,2044,2051,2067,2082
2047,2046,2042,2043,2045,2061,2059,2070
2045,2053,2037,2042,2060,2069,2074,2057
2044,2052,2039,2039,2061,2076,2078,2042
2046,2048,2041,2038,2062,2071,2065,2023
2045,2045,2042,2033,2053,2067,2077,2019
2038,2042,2035,2027,2048,2049,2059,2006
2040,2036,2035,2027,2037,2025,2061,1998
2036,2032,2039,2021,2037,2017,2031,1989
2033,2023,2033,2018,2029,2001,2014,1988
2038,2033,2041,2029,2035,1984,1998,1987
2030,2031,2039,2021,2031,1976,2022,1995
2035,2045,2042,2026,2047,1995,2016,2017
2051,2063,2055,2046,2072,2020,2034,2037
2056,2072,2056,2050,2069,2027,2028,2055
2054,2067,2058,2055,2067,2035,2048,2066
2055,2063,2062,2051,2052,2027,2026,2070
2058,2060,2059,2038,2028,2022,2036,2074
2043,2050,2057,2033,2021,2040,2016,2070
2042,2043,2056,2046,2037,2072,2044,2081
2040,2051,2065,2052,2046,2080,2069,2090
2046,2051,2062,2056,2044,2086,2075,2094
2051,2049,2059,2050,2040,2087,2072,2103
2053,2055,2049,2040,2038,2084,2048,2106
2053,2043,2039,2037,2030,2073,2054,2106
2049,2045,2045,2042,2042,2068,2053,2119
2065,2060,2059,2046,2039,2059,2054,2116
2056,2060,2055,2045,2037,2039,2041,2115
2056,2054,2056,2052,2048,2022,2049,2110
2056,2065,2057,2050,2050,2021,2059,2110
2054,2060,2054,2046,2050,2038,2063,2099
2053,2051,2046,2044,2049,2043,2044,2088
2051,2054,2046,2050,2051,2054,2059,2083
2047,2049,2045,2049,2054,2056,2046,2068
2046,2049,2045,2056,2061,2045,2039,2055
2045,2048,2046,2046,2053,2031,2052,2032
2041,2045,2044,2049,2051,2035,2044,2013
2045,2051,2044,2051,2052,2033,2046,2003
2040,2046,2040,2052,2056,2032,2036,1992
2041,2040,2042,2046,2054,2047,2029,1980
2028,2029,2035,2037,2049,2049,2037,1967
2032,2024,2031,2030,2039,2064,2037,1965
2035,2033,2037,2029,2034,2078,2019,1974
2037,2028,2037,2030,2025,2102,2042,1977
2035,2027,2039,2027,2022,2132,2058,1996
2046,2043,2043,2030,2017,2137,2066,2006
2050,2049,2047,2032,2009,2073,2062,2025
2052,2048,2052,2041,2023,2042,2055,2036
2050,2046,2049,2042,2041,2076,2060,2048
2052,2047,2054,2053,2055,2113,2070,2058
2052,2052,2057,2054,2069,2112,2076,2069
2054,2047,2053,2065,2092,2082,2063,2078
2054,2047,2052,2068,2091,1986,2047,2078
2052,2047,2046,2061,2073,1951,2053,2084
2046,2041,2040,2052,2061,1964,2051,2096
2049,2038,2049,2049,2061,1986,2052,2097
2046,2036,2038,2042,2053,1996,2054,2097
2044,2030,2034,2040,2054,2022,2049,2105
2050,2042,2040,2045,2048,2056,2056,2102
2052,2041,2046,2052,2041,2062,2073,2101
2050,2060,2052,2049,2045,2043,2073,2105
2049,2064,2057,2050,2047,2036,2072,2102
2054,2068,2063,2056,2045,2043,2061,2092
2055,2064,2064,2057,2047,2055,2064,2079
2053,2065,2057,2060,2054,2068,2071,2073
2056,2063,2054,2054,2053,2079,2052,2061
2057,2065,2054,2052,2055,2079,2054,2046
2061,2064,2046,2051,2054,2066,2064,2032
2054,2056,2036,2046,2051,2037,2036,2007
2044,2039,2034,2040,2046,2020,2029,1994
2037,2037,2031,2044,2032,2027,2054,1992
2042,2037,2039,2046,2043,2035,2048,1986
2038,2033,2037,2039,2038,2035,2040,1975
2037,2033,2035,2038,2038,2042,2046,1971
2043,2038,2042,2043,2038,2045,2046,1976
2050,2048,2045,2049,2042,2042,2041,1982
2042,2054,2042,2047,2044,2047,2041,1992
2039,2050,2042,2047,2042,2044,2043,2002
2046,2049,2043,2049,2037,2043,2049,2009
2041,2051,2037,2046,2036,2045,2042,2025
2042,2041,2037,2044,2044,2047,2049,2037
2047,2046,2040,2046,2039,2048,2048,2049
2043,2043,2045,2040,2034,2049,2053,2055
2046,2039,2036,2040,2038,2043,2045,2065
2049,2041,2040,2041,2040,2042,2042,2076
2049,2045,2036,2040,2037,2052,2061,2089
2050,2047,2037,2041,2048,2053,2049,2093
2051,2045,2033,2039,2042,2048,2070,2090
2047,2038,2018,2039,2044,2047,2038,2096
2038,2035,2016,2036,2039,2039,2032,2089
2041,2045,2021,2041,2046,2038,2048,2097
2044,2044,2018,2040,2041,2045,2052,2099
2042,2041,2023,2043,2047,2050,2047,2092
2045,2038,2026,2039,2049,2045,2049,2094
2041,2036,2028,2042,2050,2051,2050,2090
2045,2039,2028,2042,2049,2050,2052,2083
2038,2034,2031,2045,2052,2052,2054,2067
2044,2043,2032,2047,2055,2052,2057,2066
2039,2039,2023,2040,2048,2052,2063,2052
2035,2034,2015,2038,2051,2047,2046,2033
2036,2033,2015,2041,2060,2044,2035,2017
2034,2037,2021,2040,2053,2048,2042,2010
2037,2039,2027,2039,2054,2049,2044,2000
2039,2042,2024,2037,2047,2054,2042,1985
2041,2030,2020,2024,2044,2041,2037,1981
2034,2025,2025,2033,2039,2041,2050,1973
2036,2036,2029,2034,2041,2045,2041,1981
2037,2038,2034,2037,2045,2041,2045,1985
2039,2040,2030,2030,2038,2039,2038,1992
2043,2036,2032,2031,2036,2043,2038,2000
2035,2039,2027,2036,2031,2039,2036,2020
2044,2040,2031,2032,2029,2043,2031,2032
2045,2050,2035,2038,2034,2055,2047,2038
2044,2052,2042,2044,2036,2059,2064,2051
2048,2047,2044,2044,2037,2067,2049,2071
2053,2046,2040,2047,2053,2061,2055,2073
2053,2052,2046,2051,2051,2064,2039,2085
2056,2048,2056,2054,2054,2062,2063,2087
2059,2052,2066,2053,2051,2064,2072,2094
2061,2062,2074,2051,2052,2065,2063,2101
2057,2062,2075,2043,2044,2059,2048,2097
2051,2054,2065,2046,2041,2055,2049,2101
2044,2051,2065,2047,2050,2055,2051,2106
2046,2058,2064,2046,2050,2054,2029,2108
2055,2060,2064,2050,2044,2046,2035,2107
2055,2066,2061,2053,2042,2036,2042,2100
2052,2066,2061,2050,2052,2042,2025,2093
2056,2076,2069,2055,2059,2050,2046,2086
2063,2073,2067,2052,2057,2041,2048,2076
2057,2067,2058,2059,2058,2043,2042,2071
2059,2061,2068,2058,2061,2048,2049,2052
2062,2063,2064,2056,2063,2059,2046,2045
2058,2060,2057,2059,2064,2054,2041,2025
2054,2055,2051,2049,2055,2039,2045,2006
2044,2054,2048,2045,2052,2047,2043,1998
2051,2056,2052,2055,2051,2056,2033,1988
2057,2053,2053,2050,2050,2064,2056,1984
2052,2041,2043,2050,2046,2064,2051,1982
2046,2041,2039,2053,2050,2073,2050,1983
2052,2052,2036,2052,2048,2074,2062,1990
2048,2052,2034,2048,2049,2074,2059,1992
2046,2056,2032,2051,2040,2058,2054,1994
2044,2049,2023,2044,2035,2051,2047,2004
2050,2045,2027,2045,2037,2029,2032,2016
2046,2047,2026,2044,2034,2019,2049,2034
2045,2049,2025,2036,2028,2026,2043,2046
2052,2038,2016,2025,2032,2045,2058,2062
2048,2043,2020,2026,2043,2056,2061,2072
2057,2054,2033,2033,2051,2068,2062,2082
2058,2059,2030,2029,2047,2065,2060,2081
2048,2043,2019,2020,2056,2070,2064,2092
2049,2043,2027,2032,2056,2068,2066,2094
