CH1,CH2,CH3,CH4,CH5,CH6,CH7,CH8
2054,2047,2028,2038,2070,2078,2077,2030
2053,2045,2035,2032,2070,2070,2059,2017
2050,2032,2027,2028,2069,2068,2056,2012
2048,2039,2035,2040,2064,2073,2066,2013
2059,2050,2041,2039,2065,2064,2061,2013
2061,2056,2042,2039,2059,2046,2061,2023
2050,2058,2040,2038,2053,2038,2048,2028
2055,2056,2037,2037,2049,2036,2044,2034
2050,2051,2031,2034,2047,2023,2055,2038
2052,2046,2035,2038,2046,2040,2043,2050
2053,2060,2040,2037,2030,2043,2046,2057
2058,2053,2042,2019,1995,2043,2044,2056
2057,2055,2043,2021,1947,2030,2050,2056
2055,2050,2041,2018,1964,2023,2043,2058
2051,2047,2041,2024,1993,2025,2042,2056
2052,2043,2042,2033,2001,2012,2042,2064
2061,2048,2047,2036,1999,2009,2043,2069
2060,2046,2041,2041,2005,2009,2036,2068
2052,2042,2033,2041,2013,2020,2038,2055
2044,2028,2029,2041,2040,2031,2042,2058
2054,2042,2032,2052,2054,2046,2047,2059
2052,2045,2034,2062,2052,2049,2063,2063
2052,2045,2044,2067,2034,2050,2056,2060
2053,2047,2050,2067,2025,2044,2057,2063
2055,2045,2052,2069,2019,2043,2056,2052
2057,2040,2045,2071,2030,2044,2056,2048
2054,2041,2042,2064,2031,2043,2049,2043
2053,2043,2042,2060,2019,2046,2052,2042
2059,2043,2035,2056,2004,2043,2050,2027
2055,2041,2034,2059,2000,2054,2042,2023
2053,2042,2031,2050,1999,2048,2060,2023
2056,2044,2034,2040,1990,2058,2055,2018
2062,2042,2035,2044,2000,2068,2062,2007
2059,2043,2033,2045,2031,2070,2042,2007
2046,2024,2025,2025,2034,2052,2039,2010
2044,2019,2022,2018,2067,2010,2051,2008
2051,2031,2023,2027,2090,2001,2054,2020
2049,2029,2010,2030,2097,2014,2060,2025
2054,2029,2021,2028,2087,2035,2051,2034
2061,2036,2024,2034,2065,2039,2039,2045
2061,2045,2029,2045,2050,2042,2042,2049
2062,2041,2036,2048,2045,2048,2054,2054
2055,2040,2041,2055,2049,2047,2043,2059
2056,2040,2037,2053,2059,2042,2029,2064
2058,2040,2036,2052,2060,2030,2034,2064
2063,2044,2043,2060,2090,2044,2048,2073
2068,2045,2056,2058,2103,2044,2049,2070
2064,2043,2059,2066,2092,2051,2057,2069
2066,2050,2060,2069,2082,2049,2056,2078
2061,2047,2060,2069,2105,2059,2053,2072
2054,2037,2048,2058,2125,2062,2035,2070
2052,2034,2041,2062,2116,2058,2043,2074
2057,2044,2054,2068,2104,2057,2036,2072
2059,2045,2056,2051,2040,2038,2051,2074
2054,2040,2053,2038,1981,2023,2050,2069
2059,2037,2046,2032,1955,2012,2039,2064
2050,2040,2030,2015,1909,2007,2039,2059
2050,2041,2024,2013,1928,2020,2043,2049
2057,2045,2034,2034,1949,2038,2058,2052
2056,2044,2035,2051,2008,2031,2043,2042
2057,2040,2035,2062,2044,2024,2031,2030
2046,2032,2030,2070,2083,2045,2048,2025
2040,2026,2032,2070,2113,2053,2060,2022
2038,2019,2027,2072,2082,2040,2044,2012
2041,2018,2019,2070,2059,2037,2050,2010
2038,2018,2013,2065,2045,2032,2054,2003
2029,2007,1993,2054,2029,2026,2039,2007
2026,2001,1984,2047,2032,2025,2034,2008
2034,2004,1991,2048,2039,2038,2032,2018
2038,2005,1999,2045,2033,2039,2026,2035
2042,2008,2010,2035,2038,2043,2026,2041
2045,2013,2025,2037,2044,2047,2041,2052
2044,2023,2042,2043,2039,2040,2029,2054
2046,2039,2050,2030,2039,2044,2039,2071
2046,2047,2048,2016,2027,2036,2039,2077
2048,2064,2060,2014,2018,2037,2045,2079
2058,2081,2080,2015,2020,2044,2065,2084
2066,2091,2083,2010,2028,2046,2065,2098
2075,2087,2071,2036,2049,2044,2050,2091
2066,2080,2075,2054,2060,2037,2053,2086
2061,2063,2086,2073,2076,2043,2053,2084
2058,2057,2089,2073,2067,2046,2047,2084
2058,2052,2080,2072,2058,2040,2046,2083
2053,2050,2081,2072,2055,2048,2056,2088
2057,2059,2096,2078,2057,2056,2049,2095
2062,2062,2100,2087,2046,2058,2050,2093
2057,2066,2098,2072,2034,2049,2056,2084
2060,2064,2093,2065,2031,2046,2062,2084
2059,2064,2087,2065,2012,2042,2052,2085
2067,2061,2088,2064,2031,2052,2052,2080
2056,2051,2087,2078,2037,2059,2047,2070
2045,2057,2082,2070,2044,2057,2033,2058
2038,2059,2096,2058,2039,2054,2049,2060
2040,2058,2080,2039,2056,2052,2064,2060
2043,2053,2073,2032,2104,2059,2066,2061
2038,2064,2072,2034,2148,2075,2061,2059
2046,2067,2064,2041,2160,2077,2073,2059
2049,2067,2062,2045,2151,2070,2054,2054
2050,2059,2047,2050,2152,2058,2037,2042
2042,2043,2033,2049,2140,2051,2039,2035
2031,2034,2020,2048,2125,2038,2028,2031
2043,2044,2024,2047,2088,2034,2035,2036
2048,2044,2017,2043,2069,2051,2033,2038
2043,2041,2002,2027,2016,2065,2026,2047
2038,2040,1986,2009,1906,2053,2051,2057
2044,2039,1988,1998,1887,2048,2056,2065
2049,2041,1987,1997,1915,2052,2039,2067
2051,2038,1986,2014,1941,2042,2028,2078
2049,2046,1994,2031,1953,2013,2028,2086
2046,2042,2008,2040,1938,2027,2049,2080
2040,2037,2015,2039,1919,2041,2037,2077
2042,2041,2028,2046,1916,2047,2035,2077
2031,2044,2034,2040,1930,2043,2026,2076
2040,2048,2030,2038,1969,2032,2004,2072
2038,2044,2028,2045,2007,2020,2008,2070
2041,2037,2025,2071,2072,2017,1996,2075
2037,2030,2030,2082,2121,2031,2015,2081
2049,2041,2053,2094,2133,2062,2032,2089
2056,2050,2065,2087,2147,2075,2023,2088
2057,2057,2067,2074,2110,2069,2019,2081
2057,2056,2074,2069,2118,2080,2029,2083
2054,2062,2104,2089,2172,2088,2047,2081
2060,2079,2132,2104,2216,2100,2053,2083
2064,2073,2124,2098,2217,2098,2040,2076
2063,2066,2111,2094,2224,2098,2039,2073
2067,2058,2094,2099,2234,2114,2060,2069
2063,2055,2084,2092,2227,2126,2061,2060
2061,2056,2076,2074,2186,2117,2035,2049
2059,2057,2060,2046,2095,2086,2033,2034
2053,2059,2058,2018,1972,2057,2016,2039
2056,2061,2058,2011,1925,2039,2036,2046
2064,2077,2067,2002,1858,1994,2030,2051
2055,2075,2056,1982,1754,1979,2046,2048
2057,2071,2061,2001,1805,2012,2040,2055
2072,2081,2072,2010,1857,2021,2052,2052
2069,2069,2063,2008,1852,2001,2041,2055
2063,2062,2059,2010,1838,1999,2036,2055
2065,2060,2064,2028,1923,2037,2023,2073
2073,2070,2074,2060,1995,2057,2033,2070
2069,2073,2070,2065,2047,2067,2041,2068
2068,2062,2065,2068,2116,2069,2035,2070
2056,2061,2058,2092,2215,2097,2039,2069
2053,2055,2052,2094,2274,2100,2029,2074
2057,2051,2062,2078,2277,2090,2030,2073
2046,2045,2061,2045,2186,2047,2031,2070
2035,2037,2049,2007,2015,1985,2013,2065
2037,2031,2033,1972,1875,1966,2001,2070
2033,2029,2030,1991,1966,1993,2024,2070
2032,2022,2025,2015,2078,2012,2012,2072
2032,2020,2026,2028,2100,2023,2019,2075
2045,2039,2044,2033,2080,2037,2041,2077
2051,2052,2054,2040,2068,2039,2031,2069
2054,2055,2052,2038,2073,2044,2027,2070
2051,2051,2052,2043,2067,2039,2047,2069
2055,2044,2052,2040,2058,2036,2042,2069
2052,2049,2051,2043,2061,2039,2047,2065
2052,2048,2046,2048,2058,2040,2041,2067
2049,2048,2043,2047,2061,2047,2056,2058
2050,2052,2053,2049,2061,2054,2053,2054
2059,2059,2051,2052,2070,2054,2054,2047
2051,2057,2056,2046,2064,2055,2055,2045
2055,2053,2054,2040,2059,2051,2055,2043
2051,2047,2053,2035,2046,2052,2071,2041
2054,2051,2053,2036,2051,2053,2062,2040
2057,2051,2044,2033,2038,2044,2044,2030
2042,2039,2038,2033,2030,2039,2032,2028
2040,2036,2036,2039,2026,2043,2025,2037
2047,2051,2040,2049,2029,2042,2036,2041
2046,2049,2039,2042,2034,2044,2040,2034
2047,2047,2031,2061,2026,2040,2056,2040
2051,2044,2029,2071,2028,2040,2055,2053
2054,2045,2022,2068,2034,2039,2063,2058
2057,2051,2018,2073,2041,2041,2051,2065
2051,2044,2004,2068,2056,2049,2022,2070
2058,2039,1996,2068,2078,2054,2024,2070
2059,2046,1995,2076,2076,2052,2043,2073
2058,2035,1993,2084,2074,2056,2052,2078
2051,2030,1996,2084,2086,2047,2039,2073
2042,2010,1985,2082,2101,2048,2021,2057
2031,2006,1979,2076,2112,2043,2042,2066
2035,2012,1993,2070,2107,2046,2029,2078
2028,2006,1994,2064,2094,2034,2036,2074
2031,2008,1997,2052,2089,2042,2027,2072
2037,2025,2002,2050,2090,2051,2045,2077
2050,2039,2009,2044,2079,2058,2044,2077
2052,2056,2034,2050,2070,2064,2067,2080
2052,2064,2065,2052,2066,2065,2049,2075
2056,2060,2075,2040,2049,2054,2051,2067
2045,2046,2066,2011,1957,2042,2032,2061
2042,2041,2057,1995,1905,2037,2041,2057
2044,2054,2077,2010,1949,2044,2039,2059
2059,2075,2102,2027,1994,2054,2043,2058
2062,2078,2103,2035,2016,2061,2048,2057
2057,2069,2089,2022,2038,2055,2056,2051
2056,2061,2084,2019,2051,2053,2050,2044
2057,2069,2088,2027,2061,2056,2060,2042
2064,2076,2093,2044,2080,2059,2066,2042
2063,2076,2083,2047,2085,2060,2066,2041
2053,2056,2066,2051,2064,2051,2068,2039
2047,2050,2058,2054,2069,2062,2075,2039
2055,2061,2066,2066,2075,2071,2069,2046
2060,2068,2074,2072,2083,2071,2074,2056
2059,2069,2074,2079,2091,2072,2074,2062
2065,2070,2075,2073,2081,2068,2064,2065
2070,2065,2076,2066,2077,2069,2074,2069
2073,2058,2058,2058,2066,2059,2058,2076
2065,2053,2051,2039,2008,2031,2048,2068
2053,2044,2049,2012,1906,2000,2044,2069
2044,2044,2049,2007,1927,2000,2034,2072
2046,2047,2055,2026,2008,2022,2049,2081
2047,2054,2062,2036,2042,2047,2060,2084
2058,2058,2076,2054,2076,2063,2072,2099
2060,2066,2084,2067,2080,2065,2069,2096
2054,2062,2080,2067,2054,2056,2062,2091
2056,2060,2073,2064,2025,2044,2058,2087
2051,2047,2063,2056,2020,2039,2050,2081
2051,2047,2067,2069,2035,2055,2051,2091
2059,2055,2067,2070,2065,2064,2053,2088
2054,2046,2067,2073,2068,2083,2053,2081
2047,2046,2074,2093,2113,2094,2068,2077
2059,2050,2081,2117,2143,2099,2064,2080
2060,2052,2083,2118,2120,2088,2064,2068
2049,2057,2071,2110,2126,2085,2068,2071
2055,2062,2054,2111,2149,2086,2061,2064
2057,2051,2036,2109,2160,2089,2063,2060
2049,2046,2015,2103,2162,2096,2051,2053
2046,2045,2005,2082,2158,2080,2054,2046
2049,2038,1989,2071,2126,2058,2051,2041
2048,2035,1983,2054,2054,2034,2020,2035
2053,2045,1978,2037,1975,2012,2043,2032
2054,2045,1975,2010,1928,1991,2046,2030
2051,2038,1965,1994,1939,2001,2042,2027
2045,2034,1976,1994,1962,2023,2044,2029
2047,2036,1983,1991,2003,2041,2054,2045
2047,2044,1986,1974,1976,2053,2048,2045
2053,2051,2005,1988,1959,2053,2051,2045
2048,2065,2043,2007,1962,2062,2061,2051
2059,2074,2071,2031,1964,2065,2074,2066
2067,2079,2084,2055,1969,2081,2072,2075
2061,2075,2073,2051,1971,2077,2046,2078
2056,2061,2071,2049,1993,2077,2044,2080
2052,2065,2073,2037,2013,2082,2016,2085
2053,2072,2089,2024,2040,2082,2036,2086
2053,2079,2097,2033,2098,2082,2025,2086
2050,2075,2102,2022,2066,2069,2022,2089
2046,2069,2086,2017,2040,2054,2019,2093
2052,2059,2078,2037,2101,2033,2021,2097
2048,2064,2072,2044,2079,2027,2028,2100
2048,2053,2060,2041,2056,2023,2018,2096
2044,2056,2060,2056,2089,2024,2029,2105
2053,2065,2062,2069,2047,2016,2048,2103
2058,2062,2057,2068,2049,2033,2054,2114
2064,2067,2066,2083,2083,2073,2066,2115
2069,2080,2075,2093,2082,2092,2074,2117
2070,2086,2075,2092,2068,2083,2062,2101
2063,2076,2065,2069,2076,2051,2050,2088
2052,2072,2058,2040,2030,2019,2053,2076
2048,2066,2053,2038,2017,2014,2054,2077
2044,2068,2055,2044,2018,2019,2056,2076
2050,2061,2043,2051,1992,2008,2048,2063
2047,2053,2041,2032,1900,1983,2048,2052
2043,2044,2037,2017,1896,1987,2018,2043
2044,2052,2039,2023,1959,2003,2007,2046
2053,2056,2049,2044,2016,2029,2014,2042
2046,2055,2049,2058,2039,2030,2026,2033
2042,2046,2035,2052,2031,2026,2017,2032
2032,2043,2033,2057,2025,2025,2019,2045
2040,2059,2044,2060,2021,2030,2011,2050
2047,2054,2037,2056,2028,2027,2008,2055
2050,2053,2043,2064,2034,2034,2014,2066
2046,2055,2040,2077,2062,2046,2009,2074
2051,2052,2037,2088,2113,2054,2018,2071
2049,2043,2034,2086,2113,2049,2017,2068
2039,2037,2034,2083,2096,2041,2007,2074
2035,2040,2041,2080,2072,2045,2005,2080
2038,2035,2047,2078,2062,2040,2001,2076
2032,2038,2041,2072,2040,2035,2013,2081
2033,2037,2045,2076,2043,2042,2024,2087
2039,2045,2036,2088,2071,2050,2034,2103
2048,2054,2041,2105,2088,2058,2035,2109
2060,2065,2045,2105,2088,2068,2042,2109
2056,2058,2031,2101,2072,2063,2053,2108
2052,2059,2017,2095,2068,2072,2051,2119
2064,2064,2023,2096,2075,2081,2073,2111
2059,2061,2021,2077,2032,2068,2051,2101
2048,2047,2023,2064,2015,2066,2020,2090
2045,2050,2030,2055,2034,2072,2059,2087
2049,2056,2036,2049,1997,2061,2067,2083
2053,2054,2027,2015,1882,2041,2043,2084
2056,2054,2027,2018,1905,2029,2034,2085
2053,2055,2037,2039,1982,2036,2055,2082
2052,2051,2030,2046,2031,2048,2052,2074
2045,2042,2026,2038,2047,2060,2046,2062
2042,2040,2026,2023,2050,2059,2040,2052
2035,2039,2033,2017,2027,2043,2043,2045
2041,2040,2052,2020,1993,2020,2023,2043
2039,2044,2060,2034,2017,2028,2025,2041
2036,2043,2056,2032,2054,2027,1997,2033
2036,2032,2039,2036,2120,2042,2011,2035
2034,2047,2040,2036,2110,2064,2029,2051
2045,2058,2046,2032,2087,2062,2043,2064
2059,2063,2054,2034,2098,2058,2028,2067
2063,2069,2063,2045,2128,2065,2043,2074
2065,2072,2070,2060,2118,2073,2025,2088
2060,2073,2068,2068,2105,2076,2029,2094
2066,2066,2063,2061,2076,2073,2049,2093
2056,2060,2057,2066,2087,2076,2050,2094
2055,2056,2049,2066,2100,2075,2050,2096
2056,2057,2055,2057,2071,2075,2042,2099
2057,2064,2049,2055,2084,2074,2040,2105
2057,2062,2053,2057,2110,2065,2034,2108
2060,2063,2053,2042,2057,2056,2037,2118
2061,2059,2043,2031,1986,2059,2042,2113
2057,2063,2044,2026,2006,2058,2041,2109
2053,2046,2039,2025,2057,2073,2040,2107
2054,2049,2044,2039,2083,2083,2052,2111
2058,2056,2046,2042,2049,2079,2064,2101
2060,2057,2047,2037,1997,2062,2047,2099
2064,2053,2053,2039,2010,2019,2040,2100
2052,2052,2054,2040,2047,2004,2036,2096
2046,2042,2049,2058,2061,2019,2053,2089
2048,2049,2062,2093,2082,2042,2038,2088
2056,2056,2075,2115,2091,2049,2064,2087
2057,2054,2067,2109,2084,2045,2042,2079
2044,2047,2061,2105,2070,2058,2024,2071
2045,2043,2048,2087,2051,2045,2024,2064
2043,2044,2042,2070,2036,2040,2041,2050
2040,2049,2041,2061,2052,2043,2034,2047
2044,2048,2037,2049,2056,2048,2037,2050
2045,2046,2038,2043,2024,2034,2035,2051
2041,2039,2035,2050,2007,2024,2033,2047
2050,2040,2038,2058,2006,2024,2025,2059
2054,2055,2050,2072,2049,2036,2064,2071
2056,2055,2049,2080,2080,2060,2063,2074
2053,2046,2035,2074,2063,2064,2065,2079
2055,2047,2017,2054,2051,2058,2064,2084
2055,2038,1996,2040,2018,2051,2056,2091
2053,2040,2001,2040,2008,2053,2071,2098
2064,2052,2009,2054,2022,2052,2069,2115
2062,2057,2014,2045,2007,2034,2056,2115
2065,2047,2015,2036,1940,2015,2055,2104
2060,2042,2011,2034,1945,2025,2063,2108
2052,2047,2024,2063,1992,2054,2075,2115
2053,2044,2023,2073,2024,2066,2077,2122
2052,2037,2022,2073,2037,2070,2070,2111
2050,2031,2036,2062,2021,2068,2050,2099
2040,2033,2054,2066,2008,2057,2049,2107
2042,2050,2087,2081,2022,2060,2032,2116
2055,2066,2095,2070,2097,2051,2042,2108
2050,2064,2088,2049,2157,2046,2038,2103
2049,2052,2070,2037,2106,2035,2021,2106
2047,2055,2075,2050,2138,2048,2033,2100
2054,2060,2076,2054,2183,2056,2048,2103
2052,2043,2061,2045,2170,2062,2053,2102
2050,2048,2058,2046,2153,2055,2064,2099
2053,2050,2061,2058,2129,2059,2065,2090
2052,2044,2059,2057,2089,2060,2072,2081
2055,2045,2060,2049,1980,2052,2057,2076
2054,2047,2053,2047,1947,2046,2042,2070
2046,2042,2051,2042,2003,2046,2056,2064
2044,2041,2041,2057,2060,2046,2047,2064
2043,2034,2040,2059,2057,2035,2040,2056
2039,2028,2036,2049,2011,2018,2034,2058
2042,2042,2050,2047,1948,2010,2025,2070
2055,2040,2057,2031,1886,2009,2022,2076
2057,2045,2056,2033,1897,2015,2007,2079
2053,2040,2045,2031,1918,2022,2002,2081
2053,2041,2042,2032,1967,2040,2046,2098
2065,2052,2041,2035,2009,2050,2048,2105
2067,2065,2048,2037,2027,2058,2060,2109
2076,2066,2047,2031,2021,2056,2063,2119
2074,2060,2043,2036,2028,2055,2049,2117
2071,2056,2045,2057,2068,2062,2070,2122
2065,2050,2044,2079,2104,2073,2070,2122
2068,2046,2038,2082,2091,2056,2053,2120
2063,2035,2030,2059,2051,2044,2052,2120
2060,2034,2029,2051,2033,2040,2059,2116
2057,2036,2028,2047,2046,2031,2044,2109
2047,2036,2024,2055,2043,2033,2029,2110
2052,2039,2027,2058,2052,2051,2046,2116
2064,2044,2022,2050,2077,2054,2032,2116
2058,2042,2014,2045,2092,2060,2018,2113
2058,2043,2010,2055,2092,2056,2021,2116
2064,2045,2017,2061,2093,2063,2018,2117
2057,2041,2024,2065,2091,2064,2013,2106
2055,2042,2031,2064,2077,2059,2010,2095
2054,2042,2045,2074,2070,2060,2018,2088
2053,2044,2045,2074,2064,2059,2035,2090
2045,2044,2046,2071,2067,2055,2025,2081
2047,2046,2043,2075,2072,2061,2042,2070
2047,2040,2050,2081,2081,2055,2042,2072
2051,2038,2047,2081,2103,2060,2010,2072
2055,2043,2031,2082,2116,2060,2013,2069
2048,2032,2030,2088,2088,2057,2037,2066
2038,2022,2032,2076,2045,2052,2022,2062
2035,2021,2034,2073,2030,2053,2053,2077
2053,2034,2044,2075,2038,2052,2038,2080
2056,2050,2055,2074,2026,2045,2034,2088
2066,2063,2065,2074,2050,2054,2063,2095
2071,2057,2051,2058,2038,2050,2041,2093
2057,2050,2016,2025,1907,2047,2026,2088
2044,2042,2006,2025,1920,2047,2041,2099
2045,2045,2022,2034,1985,2054,2035,2097
2048,2043,2019,2035,2009,2040,2038,2101
2049,2043,2023,2031,2032,2035,2021,2108
2045,2039,2031,2039,2060,2047,2023,2113
2061,2050,2041,2044,2037,2065,2037,2118
2057,2058,2049,2040,2033,2083,2063,2122
2059,2073,2068,2060,2073,2100,2051,2125
2078,2095,2090,2082,2087,2093,2059,2126
2073,2078,2079,2090,2089,2098,2054,2131
2069,2072,2077,2096,2078,2092,2050,2131
2070,2072,2073,2099,2078,2088,2037,2122
2062,2068,2064,2090,2080,2068,2039,2114
2052,2064,2067,2090,2083,2028,2042,2104
2048,2060,2067,2073,2098,1990,2021,2096
2043,2053,2053,2056,2072,1983,2006,2091
2047,2056,2034,2036,1993,1997,2018,2085
2043,2045,2012,2026,1967,2015,2009,2080
2047,2044,2014,2046,2115,2051,2028,2079
2050,2054,2026,2076,2185,2062,2055,2073
2045,2056,2034,2082,2192,2068,2047,2072
2047,2049,2025,2059,2174,2091,2060,2061
2050,2045,2012,2041,2123,2112,2044,2050
2045,2046,2024,2026,2062,2100,2038,2052
2039,2044,2028,2017,2016,2084,2032,2044
2036,2038,2032,2019,1993,2057,2003,2052
2039,2043,2037,2026,2006,1999,2029,2075
2053,2064,2059,2054,2066,1973,2052,2084
2062,2064,2060,2060,2090,1986,2054,2086
2063,2068,2056,2076,2100,2024,2053,2095
2068,2071,2071,2091,2114,2051,2039,2096
2068,2074,2072,2093,2115,2066,2042,2103
2066,2060,2071,2087,2101,2058,2039,2105
2058,2058,2068,2077,2075,2049,2042,2105
2058,2060,2062,2077,2060,2051,2055,2102
2056,2046,2052,2077,2060,2051,2063,2098
2048,2043,2049,2077,2077,2050,2044,2100
2041,2046,2052,2078,2098,2058,2036,2110
2045,2047,2050,2064,2089,2065,2054,2113
2050,2054,2050,2053,2078,2073,2065,2116
2058,2049,2046,2044,2088,2084,2050,2112
2043,2037,2037,2042,2108,2072,2054,2110
2044,2038,2037,2058,2128,2087,2056,2114
2052,2048,2040,2075,2144,2097,2070,2110
2049,2047,2043,2079,2134,2092,2073,2109
2053,2051,2046,2066,2093,2084,2038,2109
2057,2052,2047,2034,1997,2059,2043,2100
2052,2050,2032,2008,1884,2034,2046,2096
2047,2043,2031,2018,1944,2027,2037,2088
2040,2045,2029,2036,1990,2024,2034,2081
2045,2045,2041,2070,2054,2055,2045,2088
2047,2046,2042,2076,2050,2052,2052,2078
2044,2048,2038,2072,2048,2054,2040,2071
2050,2052,2035,2064,2061,2053,2067,2059
2040,2046,2031,2056,2030,2054,2053,2057
2046,2038,2023,2056,2023,2062,2058,2055
2044,2037,2024,2059,2007,2076,2054,2052
2046,2042,2034,2055,2007,2068,2058,2052
2045,2047,2049,2054,2016,2076,2045,2047
2042,2057,2055,2058,2048,2074,2046,2051
2049,2059,2055,2051,2058,2012,2025,2055
2045,2059,2064,2048,2092,1991,2037,2065
2057,2056,2064,2057,2089,2010,2044,2078
2061,2059,2068,2056,2061,2023,2062,2081
2060,2061,2073,2062,2056,2036,2040,2093
2064,2067,2074,2071,2043,2045,2043,2095
2061,2069,2085,2085,2039,2046,2049,2098
2051,2071,2085,2083,2040,2046,2045,2095
2052,2065,2088,2078,2026,2041,2053,2094
2049,2061,2084,2074,1984,2035,2038,2098
2042,2060,2077,2066,1910,2037,2025,2101
2039,2068,2075,2068,1939,2039,2054,2112
2041,2061,2075,2066,2010,2042,2029,2106
2040,2058,2064,2063,2032,2034,2032,2101
2040,2044,2043,2050,2023,2024,2027,2103
2033,2038,2030,2042,2047,2032,2036,2104
2046,2055,2039,2047,2079,2042,2045,2108
2046,2059,2036,2046,2080,2054,2047,2109
2051,2058,2033,2043,2088,2062,2049,2109
2056,2054,2025,2036,2088,2062,2053,2102
2047,2053,2021,2037,2088,2060,2052,2093
2051,2055,2034,2045,2083,2057,2036,2087
2048,2058,2044,2050,2076,2059,2053,2094
2050,2063,2048,2058,2092,2069,2055,2086
2052,2054,2042,2053,2102,2073,2054,2078
2048,2048,2035,2049,2096,2066,2067,2068
2046,2043,2028,2055,2081,2062,2044,2058
2045,2042,2031,2053,2059,2053,2041,2061
2049,2051,2031,2059,2047,2052,2051,2059
2056,2055,2032,2055,2043,2043,2033,2060
2045,2049,2029,2047,2022,2026,2045,2037
2040,2044,2026,2037,2019,2012,2012,2033
2039,2044,2026,2041,2016,2025,2004,2042
2036,2043,2020,2030,2026,2029,2028,2055
2035,2042,2018,2019,2020,2039,2034,2060
2038,2044,2033,2021,2044,2055,2048,2068
2042,2049,2039,2028,2073,2060,2057,2070
2042,2059,2064,2044,2115,2074,2067,2083
2047,2063,2076,2058,2111,2078,2051,2090
2052,2063,2076,2056,2086,2073,2062,2098
2054,2060,2068,2057,2065,2074,2068,2099
2046,2057,2062,2063,2062,2080,2076,2100
2045,2052,2056,2070,2070,2081,2046,2098
2042,2049,2048,2063,2085,2075,2050,2098
2039,2045,2033,2055,2080,2064,2058,2101
2036,2035,2032,2053,2074,2060,2057,2101
2052,2042,2036,2053,2090,2063,2059,2097
2044,2041,2031,2049,2107,2062,2051,2088
2039,2036,2031,2059,2130,2070,2063,2094
2043,2045,2033,2066,2147,2078,2053,2087
2037,2042,2024,2066,2129,2070,2052,2090
2039,2039,2021,2059,2107,2068,2056,2092
2042,2043,2022,2056,2078,2068,2052,2086
2045,2045,2014,2055,2080,2069,2043,2077
2050,2041,2010,2054,2060,2044,2052,2079
2042,2037,2013,2049,2049,2040,2046,2068
2038,2033,2015,2058,2073,2048,2049,2078
2036,2041,2022,2057,2094,2042,2023,2064
2040,2042,2027,2037,2016,2022,2033,2046
2042,2044,2029,2028,1944,2007,2041,2050
2040,2049,2041,2044,1942,2024,2056,2050
2044,2053,2050,2056,1963,2032,2050,2053
2053,2063,2060,2064,2033,2037,2042,2055
2050,2055,2075,2069,2074,2038,2037,2058
2052,2060,2100,2085,2096,2038,2059,2059
2054,2081,2121,2090,2070,2038,2063,2064
2061,2078,2126,2093,2045,2036,2040,2074
2066,2078,2116,2094,2014,2022,2054,2075
2058,2072,2102,2088,1994,2010,2047,2078
2060,2064,2084,2067,1972,1987,2048,2078
2046,2057,2069,2061,1966,1980,2023,2074
2054,2056,2059,2058,1988,2008,2034,2083
2054,2058,2065,2063,1917,2034,2043,2089
2056,2063,2062,2076,1891,2039,2058,2091
2058,2058,2064,2082,1982,2057,2059,2092
2057,2055,2050,2074,2102,2066,2041,2094
2055,2050,2043,2069,2155,2059,2052,2094
2061,2052,2039,2065,2152,2049,2047,2092
2058,2048,2024,2044,2080,2039,2048,2094
2051,2029,2009,2016,2039,2023,2028,2085
2032,2029,2003,2004,2026,2018,2019,2085
2040,2029,2015,2013,2037,2033,2027,2095
2049,2047,2033,2033,2059,2038,2052,2091
2049,2056,2043,2050,2076,2050,2058,2087
2046,2065,2042,2063,2084,2056,2072,2081
2053,2070,2040,2067,2089,2060,2056,2087
2055,2066,2026,2066,2076,2056,2044,2083
2051,2051,2015,2057,2076,2047,2028,2081
2045,2039,1999,2058,2069,2042,2031,2072
2041,2037,2005,2063,2071,2047,2049,2058
2047,2046,2024,2065,2072,2056,2056,2053
2047,2048,2029,2061,2072,2048,2047,2045
2041,2042,2030,2063,2071,2045,2042,2040
2046,2033,2033,2062,2066,2047,2044,2037
2044,2038,2043,2069,2064,2056,2037,2038
2052,2046,2055,2068,2062,2045,2042,2035
2043,2047,2052,2060,2065,2047,2047,2036
2043,2038,2050,2065,2062,2050,2042,2040
2053,2050,2060,2068,2061,2044,2036,2044
2052,2051,2063,2066,2060,2050,2036,2046
2054,2052,2070,2075,2059,2054,2038,2057
2058,2058,2075,2088,2064,2059,2051,2059
2049,2055,2071,2081,2059,2056,2047,2067
2040,2051,2068,2083,2056,2043,2049,2067
2040,2055,2057,2081,2050,2046,2056,2074
2047,2055,2051,2079,2055,2048,2057,2084
2047,2049,2054,2078,2060,2050,2065,2084
2053,2058,2050,2087,2058,2054,2057,2089
2052,2053,2048,2087,2059,2053,2046,2091
2053,2054,2041,2090,2051,2052,2047,2095
2055,2046,2041,2096,2047,2058,2047,2091
2052,2050,2050,2098,2035,2062,2047,2087
2047,2036,2035,2086,2026,2057,2049,2080
2046,2038,2036,2083,2026,2059,2057,2085
2052,2050,2033,2078,2026,2058,2042,2087
2051,2047,2026,2053,2028,2052,2045,2082
2048,2048,2026,2049,2028,2050,2057,2074
2048,2044,2027,2056,2035,2058,2058,2078
2047,2046,2026,2057,2048,2055,2046,2068
2048,2046,2018,2054,2060,2049,2062,2062
2047,2036,2013,2050,2063,2038,2056,2065
2050,2042,2022,2046,2062,2035,2069,2066
2049,2050,2038,2052,2089,2047,2063,2051
2062,2046,2040,2056,2095,2049,2062,2047
2057,2050,2030,2050,2070,2041,2054,2043
2054,2039,2018,2036,2031,2031,2061,2029
2043,2036,2006,2025,2020,2042,2053,2032
2041,2036,2011,2036,2025,2047,2064,2034
2050,2048,2038,2047,2058,2058,2061,2027
2046,2054,2055,2061,2100,2079,2053,2036
2051,2071,2063,2082,2132,2095,2061,2038
2056,2072,2065,2082,2149,2096,2057,2049
2057,2062,2059,2086,2174,2101,2070,2051
2057,2065,2058,2082,2178,2099,2059,2059
2050,2058,2047,2078,2164,2094,2069,2060
2056,2060,2045,2067,2136,2088,2046,2062
2054,2053,2037,2054,2055,2063,2066,2069
2044,2051,2032,2056,2011,2022,2053,2075
2052,2046,2030,2048,1987,2008,2054,2068
2043,2041,2030,2045,1950,2005,2060,2068
2043,2048,2033,2041,1919,2006,2047,2079
2048,2044,2037,2036,1962,2008,2067,2074
2052,2046,2042,2044,1999,2017,2040,2081
2052,2052,2053,2051,2012,2032,2064,2078
2052,2046,2045,2049,2010,2039,2042,2072
2045,2036,2041,2045,2018,2035,2048,2076
2052,2045,2030,2051,2023,2050,2043,2076
2054,2051,2031,2061,2042,2051,2049,2074
2051,2053,2029,2077,2094,2043,2047,2080
2053,2054,2038,2101,2119,2029,2069,2079
2055,2054,2040,2088,2069,2027,2060,2075
2055,2051,2036,2078,2045,2035,2049,2067
2057,2046,2039,2091,2068,2045,2056,2063
2049,2047,2045,2100,2083,2055,2040,2049
2044,2037,2040,2103,2075,2071,2068,2046
2048,2035,2042,2105,2040,2067,2083,2047
2043,2034,2047,2105,2071,2055,2060,2031
2041,2035,2054,2108,2067,2042,2062,2034
2046,2032,2055,2110,2046,2052,2063,2024
2036,2028,2056,2103,2034,2057,2059,2015
2031,2015,2036,2067,1956,2050,2050,2007
2016,2011,2022,2032,1874,2044,2050,2007
2032,2032,2038,2044,1953,2043,2066,2016
2046,2041,2047,2033,2003,2032,2065,2022
2046,2041,2044,2028,2016,2032,2068,2031
2043,2047,2041,2034,2049,2054,2079,2041
2047,2053,2051,2041,2066,2062,2078,2047
2055,2046,2039,2042,2105,2071,2072,2054
2048,2040,2029,2041,2154,2071,2069,2062
2050,2044,2028,2024,2143,2071,2065,2072
2051,2049,2028,2014,2111,2080,2065,2067
2050,2045,2026,2011,2083,2080,2074,2066
2048,2040,2011,2005,2042,2077,2066,2070
2046,2046,2024,2010,1970,2083,2056,2070
2047,2044,2043,2009,1874,2086,2061,2074
2049,2054,2052,2020,1920,2060,2057,2083
2048,2048,2055,2038,1958,2052,2054,2075
2047,2043,2045,2041,1943,2069,2063,2079
2049,2044,2048,2049,1929,2063,2069,2077
2040,2035,2036,2048,1965,2034,2067,2066
2043,2039,2027,2048,1992,2017,2055,2065
2052,2044,2025,2050,1991,2016,2061,2059
2055,2041,2018,2056,2014,2016,2053,2057
2052,2042,2025,2071,2042,2023,2055,2056
2054,2047,2034,2085,2137,2047,2058,2052
2054,2047,2047,2086,2205,2060,2052,2040
2055,2047,2049,2069,2195,2060,2048,2034
2052,2049,2054,2045,2138,2052,2053,2025
2045,2046,2064,2040,2125,2059,2086,2020
2042,2049,2074,2042,2116,2058,2075,2016
2044,2050,2077,2036,2136,2060,2071,2012
2038,2054,2067,2044,2168,2058,2062,2017
2035,2040,2053,2057,2188,2051,2067,2017
2031,2031,2042,2067,2102,2034,2055,2015
2022,2031,2040,2060,1958,2012,2058,2018
2040,2039,2048,2067,1961,2033,2079,2029
2041,2047,2058,2083,2019,2054,2076,2032
2043,2057,2058,2088,2050,2059,2061,2030
2039,2057,2054,2087,2052,2057,2072,2035
2042,2057,2046,2068,2051,2035,2036,2039
2041,2049,2042,2062,2053,2039,2046,2049
2041,2051,2047,2063,2096,2055,2067,2054
2046,2050,2041,2056,2095,2042,2056,2059
2045,2044,2036,2025,1996,2020,2039,2052
2038,2035,2029,2034,1962,2016,2024,2046
2031,2031,2022,2044,2006,2013,2026,2044
2033,2027,2019,2049,2005,2018,2026,2049
2035,2024,2017,2041,1985,2012,2030,2052
2028,2019,2013,2039,1974,1999,2032,2046
2020,2011,2026,2035,1991,2003,2036,2048
2024,2020,2038,2057,2052,2038,2058,2058
2041,2039,2052,2088,2143,2054,2054,2050
2039,2045,2042,2109,2223,2076,2084,2062
2044,2050,2042,2117,2256,2107,2077,2058
2043,2038,2028,2091,2231,2125,2081,2051
2041,2038,2029,2086,2194,2127,2089,2048
2040,2038,2033,2083,2146,2111,2080,2049
2041,2050,2034,2065,2077,2087,2078,2043
2044,2050,2038,2044,2017,2056,2054,2031
2045,2054,2048,2020,1939,2024,2044,2036
2038,2051,2055,2004,1910,2007,2033,2022
2042,2057,2065,2001,1963,2023,2062,2010
2045,2053,2076,2019,1996,2029,2069,2003
2042,2051,2056,2026,1983,2024,2064,2001
2037,2034,2041,2020,2002,2020,2056,1999
2017,2018,2034,2028,2048,2033,2068,1997
2021,2032,2054,2047,2061,2048,2063,2015
2036,2050,2071,2050,2032,2045,2073,2017
2037,2046,2077,2052,2038,2049,2068,2014
2044,2057,2083,2062,2049,2049,2049,2025
2044,2064,2091,2073,2060,2049,2044,2029
2044,2063,2085,2069,2045,2045,2044,2046
2050,2064,2071,2065,2043,2041,2053,2052
2054,2066,2065,2077,2065,2050,2062,2055
2044,2058,2060,2076,2117,2066,2065,2063
2046,2050,2051,2095,2145,2075,2070,2055
2047,2033,2032,2085,2129,2060,2060,2045
2029,2024,2025,2072,2082,2045,2066,2050
2032,2027,2032,2071,2080,2046,2062,2052
2033,2039,2040,2062,2027,2040,2062,2052
2031,2050,2047,2065,2016,2026,2045,2054
2029,2036,2041,2064,2016,2039,2066,2051
2038,2033,2034,2060,2034,2044,2055,2054
2047,2044,2041,2058,2012,2041,2064,2049
2038,2039,2044,2057,2021,2037,2053,2058
2034,2043,2057,2052,2033,2039,2026,2045
2038,2044,2056,2042,2044,2038,2060,2038
2042,2049,2053,2043,2046,2046,2039,2037
2034,2040,2051,2060,2050,2042,2035,2035
2036,2045,2056,2077,2057,2041,2056,2033
2040,2043,2070,2092,2058,2044,2051,2024
2040,2046,2071,2092,2061,2047,2064,2017
2037,2039,2065,2094,2062,2040,2069,2009
2033,2035,2058,2092,2053,2040,2059,2001
2038,2035,2059,2086,2045,2041,2027,2005
2038,2037,2056,2079,2045,2039,2042,2010
2044,2046,2057,2074,2036,2034,2052,2006
2040,2035,2041,2068,2035,2030,2050,2006
2036,2038,2044,2074,2049,2033,2047,2003
2045,2055,2052,2074,2052,2034,2053,2009
2046,2056,2047,2064,2046,2031,2042,2010
2052,2052,2051,2058,2042,2030,2033,2023
2058,2060,2052,2047,2052,2035,2055,2033
2062,2061,2050,2031,2054,2032,2042,2032
2050,2058,2040,2024,2057,2034,2042,2037
2045,2056,2042,2025,2055,2040,2042,2050
2047,2058,2047,2037,2046,2049,2048,2048
2054,2062,2056,2046,2030,2041,2057,2045
2052,2057,2044,2045,2032,2034,2060,2049
2050,2049,2031,2044,2037,2036,2062,2053
2046,2045,2036,2045,2041,2027,2063,2056
2051,2045,2034,2045,2044,2033,2063,2056
2048,2039,2027,2044,2044,2025,2043,2044
2038,2030,2014,2046,2050,2031,2021,2045
2034,2028,2015,2044,2061,2040,2060,2053
2045,2044,2014,2045,2057,2045,2070,2056
2050,2040,2011,2038,2053,2047,2062,2045
2050,2048,2026,2045,2058,2058,2077,2051
2057,2056,2041,2059,2066,2074,2094,2054
2069,2065,2066,2070,2066,2078,2087,2051
2067,2064,2059,2068,2080,2075,2070,2043
2063,2055,2058,2073,2087,2079,2064,2037
2059,2054,2058,2085,2090,2077,2071,2029
2046,2046,2068,2101,2097,2088,2071,2019
2044,2050,2071,2119,2102,2110,2074,2000
2036,2049,2068,2125,2103,2114,2076,1994
2036,2048,2066,2129,2108,2111,2068,2001
2047,2050,2067,2129,2074,2090,2078,2003
2045,2055,2081,2112,2042,2024,2064,1996
2033,2040,2075,2080,1964,1991,2046,1982
2027,2034,2066,2056,1904,1996,2066,1991
2038,2047,2068,2061,1977,2019,2053,1999
2041,2043,2058,2062,1995,2043,2057,1997
2038,2038,2046,2044,1983,2049,2063,2007
2038,2046,2056,2028,1941,2037,2059,2007
2040,2054,2062,2014,1931,2011,2032,2022
2037,2051,2052,1993,1960,1992,2036,2023
2034,2052,2058,2010,2037,1995,2024,2033
2040,2059,2073,2033,2085,1956,2032,2046
2055,2068,2065,2032,2080,1956,2044,2064
2061,2074,2053,2026,2046,1995,2058,2064
2064,2074,2057,2017,1965,2020,2060,2058
2052,2069,2035,1990,1871,2025,2034,2043
2045,2060,2020,1988,1894,2057,2061,2048
2045,2055,2010,1992,1926,2060,2043,2040
2029,2038,2006,2002,1948,2032,2038,2041
2034,2042,2024,2031,2033,2054,2062,2049
2058,2080,2047,2064,2098,2060,2077,2060
2060,2082,2054,2072,2143,2046,2074,2061
2066,2082,2059,2072,2159,2062,2086,2055
2064,2072,2056,2072,2087,2076,2074,2036
2050,2062,2046,2061,2076,2083,2064,2036
2049,2050,2038,2070,2127,2077,2055,2019
2038,2045,2039,2080,2121,2069,2058,2018
2039,2045,2042,2073,2083,2040,2051,2013
2035,2045,2047,2077,2097,1991,2058,2022
2038,2051,2045,2088,2115,2003,2067,2013
2043,2050,2059,2083,2114,2038,2053,2002
2038,2056,2064,2075,2098,2052,2062,1988
2038,2060,2067,2072,2075,2059,2044,1997
2042,2069,2076,2063,2042,2042,2012,1994
2030,2064,2078,2039,2034,2019,2039,1992
2036,2070,2087,2037,2028,1997,2056,2009
2038,2075,2074,2029,2022,2000,2059,2017
2041,2072,2063,2023,2007,2009,2059,2016
2042,2067,2059,2020,1999,2002,2058,2018
2045,2069,2055,2013,1996,2000,2046,2028
2042,2076,2062,2026,2016,1999,2052,2027
2051,2087,2077,2052,2048,2016,2053,2046
2059,2088,2087,2071,2110,2042,2077,2056
2062,2090,2081,2088,2150,2079,2090,2061
2062,2088,2071,2077,2138,2083,2094,2059
2050,2076,2059,2066,2090,2066,2086,2056
2049,2075,2052,2060,2070,2052,2072,2054
2041,2069,2041,2066,2090,2047,2070,2055
2051,2068,2038,2064,2101,2032,2061,2047
2042,2061,2026,2056,2122,2034,2054,2039
2034,2044,2014,2060,2141,2035,2055,2043
2044,2051,2022,2068,2156,2052,2066,2048
2045,2053,2022,2074,2172,2060,2076,2043
2051,2050,2023,2074,2161,2059,2066,2046
2045,2047,2024,2070,2158,2054,2080,2043
2043,2044,2021,2064,2124,2041,2058,2034
2039,2048,2018,2042,1990,2019,2032,2024
2033,2044,2019,2046,1997,2036,2039,2023
2031,2045,2037,2073,2089,2060,2057,2014
2036,2053,2063,2081,2081,2060,2062,2008
2038,2051,2066,2078,2059,2050,2047,2001
2030,2049,2054,2067,2045,2053,2018,1994
2028,2039,2045,2063,2044,2050,2029,1983
2026,2032,2037,2054,2059,2048,2044,1991
2030,2028,2028,2042,2056,2049,2039,1987
2023,2030,2030,2039,2051,2043,2027,1989
2024,2045,2048,2044,2036,2044,2021,1996
2038,2068,2067,2060,2028,2048,2053,2012
2049,2076,2084,2060,2076,2048,2046,2008
2043,2076,2094,2051,2090,2035,2026,2019
2049,2070,2088,2042,2044,2035,2031,2024
2050,2072,2094,2041,2012,2040,2031,2027
2053,2066,2089,2038,2013,2047,2044,2030
2050,2060,2072,2036,2023,2050,2059,2037
2044,2054,2052,2036,2028,2044,2047,2040
2040,2055,2049,2039,2037,2047,2057,2040
2038,2056,2053,2048,2046,2049,2059,2042
2047,2059,2058,2054,2045,2048,2044,2053
2048,2062,2056,2059,2040,2046,2026,2057
2043,2056,2051,2045,2025,2045,2030,2048
2048,2050,2050,2043,2020,2044,2021,2047
2039,2041,2043,2039,2004,2030,2037,2037
2027,2042,2042,2031,1987,2027,2040,2039
2033,2044,2056,2042,1991,2038,2051,2040
2042,2061,2047,2043,2002,2045,2050,2050
2054,2062,2055,2052,2020,2049,2049,2048
2049,2058,2058,2062,2035,2048,2039,2042
2047,2057,2056,2062,2053,2043,2050,2038
2046,2062,2066,2076,2093,2037,2041,2037
2055,2070,2071,2098,2124,2050,2037,2030
2050,2067,2081,2104,2111,2062,2045,2026
2046,2068,2091,2102,2100,2069,2048,2017
2039,2061,2080,2094,2090,2076,2056,2009
2043,2056,2070,2091,2087,2084,2054,2002
2041,2062,2068,2091,2092,2089,2062,2002
2043,2063,2066,2090,2091,2086,2043,2001
2049,2056,2053,2087,2088,2071,2020,1991
2036,2045,2039,2063,2078,2050,2012,1987
2037,2049,2031,2062,2073,2047,2013,1994
2038,2064,2035,2064,2068,2049,2039,2004
2046,2059,2026,2048,2058,2031,2038,2004
2046,2062,2023,2033,2049,2024,2038,2004
2047,2060,2016,2023,2051,2026,2029,2019
2044,2056,2025,2031,2048,2029,2036,2019
2048,2058,2031,2036,2039,2032,2017,2033
2050,2061,2020,2027,2028,2026,2048,2033
2046,2053,2014,2031,2015,2034,2040,2048
2042,2052,2014,2047,2027,2054,2059,2047
2045,2052,2024,2056,2029,2058,2063,2045
2048,2049,2032,2060,2024,2056,2059,2055
2046,2051,2043,2045,2019,2058,2058,2056
2044,2058,2048,2035,2006,2054,2044,2052
2042,2059,2054,2032,2032,2061,2024,2038
2030,2050,2053,2031,2097,2070,2036,2042
2033,2044,2051,2039,2125,2093,2045,2043
2042,2053,2050,2055,2108,2093,2050,2043
2043,2057,2054,2060,2090,2077,2044,2047
2048,2061,2060,2063,2094,2068,2042,2044
2043,2057,2060,2064,2106,2047,2045,2043
2041,2050,2056,2065,2085,2044,2052,2036
2041,2055,2056,2065,2069,2042,2053,2032
2043,2053,2054,2067,2043,2037,2043,2026
2040,2049,2050,2058,2049,2025,2048,2018
2041,2044,2049,2044,2026,2017,2024,2012
2041,2047,2051,2049,2024,2024,2022,2012
2045,2047,2058,2041,2021,2030,2045,2008
2045,2046,2060,2032,2024,2024,2029,2001
2044,2040,2055,2033,2018,2028,2041,1995
2040,2043,2048,2040,2017,2032,2035,1996
2039,2037,2041,2040,2056,2039,2024,1994
2034,2038,2049,2048,2067,2047,2035,1994
2044,2047,2055,2061,2074,2043,2036,1999
2047,2050,2061,2066,2058,2035,2036,2007
2041,2044,2061,2066,2039,2040,2036,2010
2034,2036,2064,2059,2043,2030,2037,2012
2035,2040,2054,2053,2038,2028,2030,2016
2036,2039,2046,2042,2024,2015,2038,2022
2029,2034,2042,2053,2015,2030,2041,2026
2029,2042,2047,2061,2010,2035,2034,2030
2030,2038,2040,2055,2020,2040,2038,2037
2024,2031,2026,2052,2024,2040,2036,2036
2020,2028,2022,2054,2028,2034,2022,2041
2033,2035,2020,2058,2028,2029,2036,2050
2041,2040,2023,2065,2027,2022,2042,2053
2037,2033,2013,2061,2031,2032,2039,2046
2037,2017,2000,2051,2021,2024,2031,2046
2030,2020,2010,2042,2051,2017,2045,2048
2036,2034,2018,2049,2079,2039,2043,2050
2042,2034,2013,2048,2073,2042,2056,2052
2045,2035,2028,2037,2051,2040,2049,2043
2047,2046,2046,2038,2027,2032,2051,2052
2047,2050,2051,2035,2013,2023,2055,2056
2053,2049,2054,2042,1994,2011,2035,2046
2046,2051,2053,2037,1987,2028,2042,2037
2057,2055,2064,2057,2048,2059,2044,2041
2058,2059,2065,2077,2074,2082,2035,2036
2054,2058,2055,2082,2090,2096,2049,2016
2047,2046,2042,2070,2102,2094,2045,2008
2046,2037,2030,2026,2019,2064,2046,1997
2029,2033,2029,1988,1978,2023,2032,1992
2028,2034,2040,1998,2093,2014,2019,1994
2032,2029,2039,2020,2153,2041,2020,1985
2031,2034,2051,2038,2107,2054,2021,1987
2040,2053,2080,2049,2049,2048,2011,1990
2044,2053,2076,2035,2012,2047,2011,1994
2044,2051,2068,2032,1998,2040,2010,2006
2052,2053,2063,2035,1944,2010,2004,2014
2059,2059,2074,2048,2005,2014,2040,2033
2066,2062,2082,2056,2072,2040,2042,2041
2066,2060,2066,2055,2082,2057,2032,2034
2053,2046,2052,2043,2066,2059,2028,2034
2043,2042,2050,2045,2078,2040,2015,2033
2045,2041,2040,2040,2080,2020,2018,2035
2035,2037,2034,2038,2080,2009,2010,2044
2031,2038,2042,2042,2071,2022,2013,2051
2039,2053,2051,2048,2054,2064,2018,2050
2052,2054,2054,2046,2065,2086,2031,2047
2048,2040,2041,2038,2053,2103,2027,2042
2034,2034,2031,2026,2035,2093,2020,2039
2038,2036,2037,2017,2014,2062,2032,2048
2043,2037,2034,1991,1937,1998,2034,2050
2042,2041,2034,1994,1916,1944,2042,2055
2045,2053,2045,2024,1961,1935,2053,2048
2056,2056,2049,2041,2056,1967,2034,2040
2046,2054,2046,2050,2118,2005,2049,2036
2043,2045,2052,2063,2122,2039,2052,2040
2047,2049,2053,2074,2116,2063,2039,2030
2042,2048,2050,2063,2100,2057,2055,2019
2040,2037,2036,2055,2076,2050,2057,2006
2036,2031,2024,2049,2079,2049,2050,2005
2035,2037,2030,2048,2094,2046,2053,1998
2037,2039,2031,2050,2109,2054,2053,1992
2032,2037,2031,2050,2107,2050,2028,1990
2032,2032,2020,2048,2097,2047,2009,1988
2025,2022,2018,2043,2099,2039,2025,1976
2028,2025,2027,2053,2097,2042,2020,1988
2031,2032,2030,2063,2093,2035,2020,1997
2032,2028,2028,2061,2088,2036,2048,2011
2033,2032,2030,2063,2081,2029,2042,2012
2037,2033,2031,2062,2077,2020,2049,2023
2045,2037,2038,2070,2072,2016,2051,2033
2053,2045,2048,2069,2049,2009,2067,2040
2064,2053,2056,2072,2045,2002,2058,2045
2056,2060,2058,2072,2065,2008,2057,2042
2052,2057,2050,2077,2077,2021,2056,2051
2055,2059,2046,2068,2082,2031,2039,2051
2055,2045,2036,2059,2083,2027,2044,2048
2054,2039,2027,2040,2067,2029,2026,2049
2050,2038,2014,2034,2069,2034,2019,2047
2047,2038,2012,2038,2057,2029,2023,2039
2035,2019,2015,2040,2070,2030,2033,2038
2041,2020,2010,2051,2072,2042,2048,2050
2052,2028,2004,2042,2012,2041,2045,2052
2042,2017,1993,2035,1978,2037,2062,2038
2036,2018,1987,2040,2022,2047,2061,2032
2041,2024,2003,2045,2069,2060,2054,2028
2036,2038,2021,2053,2096,2070,2057,2032
2041,2037,2036,2058,2094,2060,2078,2023
2038,2052,2057,2058,2084,2042,2063,2018
2039,2057,2063,2050,2085,2031,2038,2013
2040,2058,2059,2054,2120,2044,2047,2019
2045,2062,2078,2063,2130,2042,2043,2015
2051,2069,2093,2061,2112,2038,2039,2006
2049,2066,2098,2054,2067,2028,2047,1999
2042,2061,2094,2025,1941,2024,2047,2006
2044,2058,2092,2023,1974,2038,2043,1998
2045,2049,2078,2030,2019,2045,2049,1994
2045,2053,2077,2034,2049,2059,2065,2000
2050,2067,2080,2049,2065,2062,2050,2008
2051,2068,2086,2055,2065,2068,2053,2014
2058,2065,2077,2056,2050,2063,2060,2020
2053,2061,2072,2038,2036,2051,2036,2012
2048,2057,2073,2047,2050,2055,2050,2019
2042,2061,2074,2049,2048,2065,2044,2028
2044,2062,2078,2032,2009,2054,2058,2031
2038,2054,2066,2023,1987,2045,2056,2036
2039,2052,2063,2032,2028,2055,2058,2042
2040,2065,2070,2043,2059,2061,2068,2049
2046,2057,2066,2060,2076,2050,2066,2047
2042,2057,2056,2080,2095,2045,2074,2051
2037,2048,2052,2074,2092,2029,2033,2050
2035,2045,2042,2052,2041,2008,2025,2041
2032,2040,2040,2039,1978,1988,2023,2029
2027,2040,2048,2054,1976,2008,2044,2025
2038,2043,2059,2070,2016,2029,2049,2034
2042,2050,2062,2080,2050,2052,2057,2035
2038,2043,2050,2075,2092,2060,2030,2038
2038,2041,2041,2068,2097,2054,2038,2029
2044,2037,2035,2060,2087,2054,2054,2030
2043,2048,2041,2071,2111,2064,2048,2028
2052,2052,2048,2074,2105,2066,2058,2021
2053,2056,2052,2066,2097,2072,2058,2018
2045,2057,2042,2059,2066,2083,2055,2007
2041,2057,2050,2056,2044,2086,2064,1997
2042,2058,2051,2052,2036,2087,2049,2000
2035,2051,2050,2037,2031,2069,2059,1989
2037,2046,2056,2035,2025,2006,2048,1981
2028,2052,2066,2027,2026,1995,2052,1983
2030,2044,2047,2014,2028,1996,2037,1970
2028,2029,2052,2011,2025,2013,2021,1975
2026,2032,2048,2018,2023,2025,2043,1992
2027,2036,2051,2035,2020,2032,2024,1997
2033,2038,2056,2044,2019,2029,2034,2006
2038,2037,2047,2047,2023,2030,2030,2012
2035,2039,2050,2059,2033,2039,2043,2014
2039,2041,2044,2060,2029,2040,2051,2025
2044,2045,2038,2058,2018,2047,2048,2024
2031,2043,2044,2056,2017,2044,2052,2032
2035,2046,2039,2062,2024,2045,2041,2037
2033,2039,2037,2063,2028,2043,2040,2035
2030,2037,2032,2059,2032,2038,2032,2040
2034,2036,2029,2048,2046,2045,2033,2039
2030,2042,2021,2046,2037,2051,2050,2047
2035,2038,2024,2039,2036,2046,2059,2054
2037,2037,2015,2024,2033,2041,2045,2042
2028,2032,2018,2031,2061,2041,2043,2041
2029,2038,2032,2044,2076,2056,2065,2045
2048,2057,2048,2057,2066,2060,2058,2046
2044,2053,2052,2052,2055,2063,2056,2039
2039,2054,2057,2058,2063,2059,2065,2039
2034,2056,2054,2052,2062,2054,2060,2043
2030,2054,2042,2048,2060,2049,2065,2032
2036,2056,2050,2042,2058,2045,2054,2027
2043,2053,2070,2048,2047,2043,2041,2023
2037,2064,2074,2053,2049,2042,2043,2026
2047,2064,2074,2063,2051,2033,2038,2016
2046,2054,2072,2064,2041,2023,2033,2003
2041,2046,2070,2072,2050,2029,2056,2002
2038,2044,2070,2074,2048,2036,2055,2002
2037,2047,2063,2076,2053,2035,2048,1995
2028,2040,2053,2080,2070,2035,2044,1989
2024,2021,2041,2071,2071,2035,2049,1983
2020,2023,2041,2075,2061,2033,2049,1981
2018,2032,2052,2080,2065,2041,2041,1990
2026,2032,2046,2076,2060,2031,2048,2001
2022,2030,2037,2059,2049,2036,2017,2007
2025,2030,2026,2032,2030,2056,2054,2007
2032,2027,2022,2009,2028,2070,2054,2013
2027,2043,2034,2005,2006,2073,2051,2020
2032,2046,2030,1997,1969,2065,2044,2032
2036,2046,2028,1982,1936,2030,2050,2037
2039,2053,2043,2010,1973,1991,2056,2056
2054,2071,2069,2032,2036,2005,2059,2052
2049,2068,2079,2047,2060,2028,2062,2056
2055,2064,2071,2052,2059,2038,2049,2057
2048,2053,2052,2050,2049,2036,2043,2047
2044,2046,2044,2040,2016,2025,2044,2046
2039,2048,2040,2035,1994,2001,2021,2036
2030,2033,2026,2023,1986,1990,2031,2031
2028,2042,2037,2028,1993,1992,2045,2040
2042,2060,2060,2051,2007,1996,2046,2041
2045,2064,2065,2054,1995,2012,2036,2035
2041,2059,2051,2050,1986,2030,2036,2031
2047,2058,2053,2059,2018,2048,2042,2033
2044,2055,2056,2079,2052,2061,2052,2029
2046,2057,2053,2092,2083,2046,2059,2031
2050,2054,2059,2100,2117,2021,2076,2034
2048,2052,2055,2100,2141,2048,2093,2024
2049,2055,2047,2073,2126,2067,2052,2008
2041,2050,2040,2034,2087,2048,2063,2013
2034,2042,2041,2016,2061,2041,2071,2006
2038,2045,2054,2025,2060,2037,2056,1999
2049,2049,2074,2041,2054,2042,2055,1993
2040,2050,2071,2047,2058,2046,2046,1990
2031,2033,2057,2032,2050,2031,2059,1986
2028,2026,2053,2028,2048,2028,2054,1990
2035,2045,2073,2027,2046,2033,2062,1995
2039,2045,2077,2027,2045,2034,2062,2003
2038,2052,2093,2029,2048,2032,2061,2007
2043,2059,2101,2039,2048,2038,2060,2013
2043,2057,2090,2044,2052,2038,2070,2022
2044,2057,2086,2056,2046,2042,2064,2033
2041,2062,2083,2053,2044,2044,2071,2043
2044,2054,2073,2051,2033,2043,2074,2048
2044,2050,2064,2043,2030,2042,2068,2043
2046,2051,2068,2041,2022,2034,2072,2054
2053,2059,2068,2042,2024,2044,2064,2065
2053,2067,2079,2053,2030,2058,2073,2071
2063,2072,2080,2061,2036,2059,2092,2071
2058,2071,2075,2067,2034,2057,2094,2072
2047,2060,2069,2059,2021,2048,2073,2060
2040,2052,2061,2056,2041,2043,2068,2051
2030,2048,2062,2065,2113,2056,2076,2053
2037,2056,2058,2076,2148,2066,2057,2045
2042,2052,2062,2079,2148,2053,2049,2037
2044,2058,2072,2089,2154,2053,2045,2035
2048,2062,2067,2092,2151,2054,2036,2027
2048,2063,2064,2079,2129,2033,2032,2024
2046,2048,2049,2075,2109,2019,2017,2017
2038,2045,2051,2086,2103,2020,2037,2007
2028,2037,2056,2075,2025,2016,2032,2004
2029,2036,2052,2066,1943,2020,2042,1995
2034,2033,2052,2058,1956,2028,2044,1991
2032,2035,2040,2047,1999,2032,2020,1983
2031,2030,2031,2044,2026,2034,2036,1983
2026,2023,2020,2041,2028,2042,2054,1984
2019,2028,2017,2033,2018,2036,2064,1980
2010,2023,2010,2023,2011,2036,2049,1978
2023,2024,2019,2020,1997,2035,2056,1985
2022,2041,2033,2026,2002,2034,2059,1995
2032,2043,2021,2016,2021,2031,2072,1997
2029,2029,1996,2003,2027,2032,2056,2006
2033,2028,2000,1995,2008,2030,2066,2014
2037,2045,2022,1996,2020,2050,2064,2021
2038,2058,2033,2007,2028,2071,2072,2023
2045,2064,2053,2017,2042,2069,2045,2027
2049,2077,2094,2026,2039,2077,2036,2043
2052,2092,2108,2030,2025,2070,2031,2045
2054,2095,2105,2048,2039,2039,2034,2052
2058,2085,2096,2054,2017,2023,2036,2057
2054,2072,2084,2053,2028,2036,2035,2060
2051,2056,2069,2053,2083,2053,2044,2060
2047,2060,2081,2058,2113,2054,2032,2062
2038,2054,2085,2052,2106,2047,2038,2047
2037,2051,2086,2050,2093,2047,2037,2049
2046,2067,2099,2063,2099,2066,2063,2049
2050,2070,2087,2076,2098,2072,2037,2050
2049,2061,2075,2068,2094,2065,2040,2046
2048,2048,2059,2059,2061,2050,2047,2047
2041,2050,2054,2060,2048,2041,2049,2037
2047,2055,2063,2067,2074,2046,2043,2042
2040,2064,2064,2070,2087,2038,2041,2040
2042,2055,2061,2049,2049,2008,2042,2030
2040,2050,2051,2041,2018,2004,2056,2027
2043,2058,2063,2043,2052,2024,2064,2026
2053,2070,2061,2041,2069,2032,2070,2019
2046,2062,2046,2033,2063,2033,2042,2010
2046,2057,2050,2036,2073,2041,2044,2009
2050,2060,2049,2050,2073,2050,2053,2010
2045,2048,2039,2038,2058,2042,2049,2001
2035,2039,2037,2035,2047,2042,2047,1998
2030,2041,2041,2040,2047,2051,2049,2014
2039,2053,2050,2045,2058,2053,2047,2012
2051,2055,2052,2044,2058,2044,2050,2015
2057,2062,2055,2047,2051,2042,2025,2017
2043,2053,2045,2051,2067,2038,2028,2018
2041,2047,2047,2055,2085,2037,2036,2020
2029,2040,2046,2058,2082,2028,2042,2025
2027,2042,2043,2059,2081,2013,2044,2032
2035,2035,2045,2059,2076,2022,2041,2040
2037,2037,2041,2056,2071,2032,2053,2040
2033,2038,2041,2047,2030,2030,2051,2042
2036,2043,2036,2040,1996,2028,2056,2049
2039,2042,2039,2037,2007,2025,2038,2059
2045,2044,2044,2044,2029,2030,2042,2055
2047,2042,2050,2051,2038,2030,2035,2053
2043,2030,2036,2046,2035,2030,2031,2054
2037,2033,2043,2048,2041,2039,2034,2058
2049,2049,2055,2061,2047,2047,2050,2055
2041,2052,2052,2057,2044,2041,2058,2057
2049,2058,2046,2063,2048,2041,2047,2055
2053,2057,2055,2070,2046,2042,2045,2059
2053,2056,2058,2079,2052,2045,2034,2052
2052,2053,2053,2074,2052,2059,2027,2046
2050,2040,2044,2077,2045,2062,2055,2037
2052,2040,2037,2074,2040,2059,2060,2029
2048,2042,2028,2054,2030,2064,2053,2019
2047,2047,2031,2052,2033,2051,2053,2025
2050,2053,2038,2049,2040,2013,2040,2020
2051,2057,2045,2052,2046,2010,2036,2016
2056,2051,2040,2039,2048,2025,2033,2008
2056,2056,2043,2043,2041,2030,2036,2002
2042,2042,2037,2033,2036,2024,2032,2003
2036,2039,2056,2031,2035,2033,2039,2008
2044,2058,2060,2031,2044,2041,2031,2013
2047,2051,2061,2032,2039,2040,2049,2016
2052,2052,2046,2031,2037,2033,2044,2022
2049,2054,2045,2030,2029,2031,2047,2032
2052,2051,2052,2034,2040,2035,2048,2043
2051,2045,2047,2044,2043,2039,2058,2050
2051,2046,2046,2046,2046,2054,2053,2053
2050,2049,2042,2046,2048,2059,2064,2056
2052,2040,2041,2040,2046,2064,2065,2054
2044,2045,2042,2042,2047,2056,2061,2049
2042,2046,2046,2046,2046,2044,2052,2052
2040,2047,2047,2043,2051,2036,2049,2058
2046,2049,2053,2045,2050,2035,2049,2055
2049,2051,2051,2046,2051,2034,2050,2057
2045,2044,2041,2039,2041,2028,2050,2053
2042,2036,2034,2037,2043,2026,2054,2059
2047,2045,2038,2041,2051,2036,2046,2068
2053,2048,2036,2047,2048,2048,2059,2063
2054,2045,2039,2049,2051,2054,2064,2061
2055,2040,2034,2054,2053,2052,2051,2058
2050,2043,2032,2052,2059,2051,2054,2052
2048,2039,2027,2054,2059,2050,2046,2045
2047,2037,2011,2054,2062,2046,2039,2031
2037,2037,2007,2053,2062,2047,2037,2030
2031,2032,2003,2061,2064,2047,2056,2022
2034,2029,1999,2055,2063,2038,2042,2022
2041,2028,1990,2055,2062,2036,2046,2018
2043,2024,1981,2055,2062,2033,2028,2014
2038,2022,1976,2056,2056,2027,2037,2000
2037,2021,1976,2059,2057,2030,2022,1998
2038,2017,1986,2053,2048,2023,2028,1998
2029,2002,1988,2049,2036,2018,2024,1998
2023,2003,1988,2042,2028,2019,2022,2002
2028,2015,1998,2034,2030,2017,2032,2000
2040,2019,2012,2041,2036,2028,2025,2004
2046,2035,2026,2040,2035,2041,2039,2015
2047,2040,2023,2043,2037,2052,2038,2019
2052,2043,2035,2034,2032,2057,2045,2032
2062,2057,2055,2031,2026,2064,2051,2044
2059,2060,2063,2028,2025,2058,2044,2045
2060,2062,2078,2035,2031,2065,2050,2042
2049,2064,2098,2046,2040,2064,2050,2044
2052,2064,2107,2045,2041,2053,2061,2050
2048,2065,2110,2046,2034,2049,2058,2057
2046,2063,2099,2042,2039,2041,2055,2057
2054,2064,2094,2035,2045,2041,2038,2062
2055,2058,2096,2039,2046,2039,2002,2056
2043,2041,2079,2031,2036,2033,2021,2039
2046,2038,2084,2042,2036,2032,2024,2047
2054,2054,2098,2054,2045,2045,2039,2042
2056,2062,2103,2056,2038,2050,2051,2039
2056,2066,2098,2058,2045,2048,2064,2041
2053,2069,2101,2063,2045,2047,2065,2044
2054,2069,2096,2062,2053,2050,2055,2048
2055,2067,2093,2063,2049,2052,2057,2040
2057,2068,2090,2061,2055,2049,2045,2038
2050,2069,2075,2065,2056,2055,2061,2036
2049,2065,2070,2069,2056,2053,2068,2023
2053,2062,2077,2067,2063,2056,2058,2014
2048,2062,2077,2069,2064,2051,2054,2009
2048,2056,2072,2064,2055,2053,2067,1999
2042,2054,2071,2055,2043,2041,2029,1997
2044,2054,2062,2052,2042,2034,2041,2001
2041,2041,2053,2035,2030,2034,2021,1996
2041,2037,2052,2029,2035,2033,2025,1997
2044,2044,2059,2036,2045,2044,2028,2004
2049,2053,2057,2035,2040,2047,2024,2004
2049,2058,2049,2038,2045,2046,2034,2014
2047,2049,2051,2041,2046,2046,2026,2011
2045,2045,2052,2043,2040,2044,2028,2024
2049,2045,2048,2043,2043,2049,2023,2029
2044,2043,2050,2039,2046,2050,2040,2036
2040,2037,2045,2036,2044,2050,2055,2037
2046,2038,2041,2029,2036,2052,2031,2041
2039,2041,2046,2028,2021,2049,2023,2044
2043,2044,2042,2026,2019,2045,2025,2044
2040,2046,2049,2021,2022,2046,2028,2047
2045,2045,2042,2017,2013,2044,2036,2053
2043,2042,2038,2037,2026,2039,2041,2050
2043,2041,2039,2051,2037,2037,2039,2051
2035,2029,2029,2048,2026,2027,2041,2051
2044,2037,2032,2051,2034,2029,2040,2057
2046,2050,2041,2057,2043,2030,2049,2056
2046,2044,2040,2061,2047,2038,2057,2050
2043,2040,2044,2063,2051,2049,2054,2049
2042,2042,2051,2060,2052,2055,2052,2046
2048,2044,2053,2062,2060,2060,2064,2052
2050,2046,2056,2059,2063,2065,2061,2038
2051,2051,2059,2059,2055,2059,2058,2037
2046,2048,2060,2049,2055,2055,2052,2028
2039,2040,2054,2051,2052,2055,2054,2022
2038,2046,2042,2040,2049,2045,2048,2013
2038,2046,2035,2039,2057,2029,2042,2010
2039,2045,2040,2037,2057,2037,2051,2000
2040,2043,2039,2034,2045,2043,2041,2000
2043,2038,2037,2031,2044,2046,2040,1992
2031,2022,2031,2020,2032,2039,2038,1988
2034,2026,2041,2009,2019,2040,2034,1998
2036,2038,2055,2011,2024,2045,2061,2010
2048,2039,2054,2002,2021,2054,2042,2018
2051,2045,2059,2008,2028,2064,2036,2024
2052,2037,2055,2022,2039,2073,2048,2031
2051,2043,2058,2020,2045,2078,2061,2037
2048,2047,2059,2030,2047,2081,2046,2040
2045,2036,2055,2030,2048,2083,2042,2050
2053,2049,2050,2033,2044,2088,2043,2050
2056,2051,2056,2034,2046,2090,2042,2052
2055,2059,2061,2034,2036,2077,2038,2053
2048,2056,2060,2028,2031,2026,2029,2057
2051,2054,2059,2028,2017,1987,2014,2059
2045,2047,2052,2017,1987,1980,2021,2050
2039,2037,2047,2011,1963,1984,2024,2055
2040,2031,2040,1999,1944,1985,1998,2044
2034,2028,2037,1998,1957,1991,2001,2040
2044,2042,2050,2017,2010,2027,2023,2052
2052,2057,2065,2048,2068,2054,2049,2053
2056,2057,2068,2057,2098,2065,2045,2050
2052,2053,2066,2065,2122,2083,2056,2050
2052,2053,2061,2068,2126,2097,2067,2053
2053,2054,2056,2054,2096,2085,2069,2045
2050,2055,2059,2049,2078,2078,2061,2043
2054,2051,2057,2046,2074,2075,2054,2032
2053,2050,2054,2046,2075,2078,2066,2029
2045,2048,2054,2045,2059,2076,2057,2021
2043,2041,2046,2045,2050,2078,2057,2007
2039,2035,2041,2032,2045,2068,2056,1998
2042,2035,2032,2032,2049,2054,2036,1986
2037,2036,2033,2037,2040,2045,2038,1989
2026,2031,2030,2029,2036,2033,2033,1974
2024,2021,2025,2024,2033,2025,2032,1977
2024,2026,2024,2029,2033,2022,2034,1983
2027,2026,2025,2024,2040,2024,2012,1988
2025,2028,2024,2029,2048,2036,2025,1990
2027,2035,2028,2038,2061,2046,2017,2000
2036,2029,2027,2045,2058,2048,2016,2010
2035,2037,2030,2045,2053,2058,2041,2019
2036,2047,2039,2047,2051,2062,2052,2024
2041,2056,2049,2050,2050,2062,2047,2027
2045,2061,2056,2045,2055,2055,2052,2037
2056,2052,2055,2055,2056,2061,2035,2045
2051,2053,2051,2048,2052,2058,2044,2045
2049,2054,2053,2044,2046,2057,2045,2043
2048,2042,2055,2045,2053,2068,2031,2045
2049,2033,2042,2029,2050,2064,2033,2050
2045,2028,2028,2018,2041,2064,2035,2042
2045,2034,2049,2024,2048,2072,2036,2049
2050,2063,2075,2043,2057,2075,2048,2052
2057,2073,2076,2044,2062,2066,2034,2050
2048,2062,2063,2042,2055,2049,2038,2040
2041,2061,2064,2057,2058,2043,2046,2031
2043,2046,2066,2062,2055,2044,2035,2026
2041,2044,2062,2062,2058,2045,2043,2026
2040,2042,2065,2066,2068,2052,2052,2021
2041,2044,2062,2065,2071,2067,2061,2014
2047,2041,2051,2064,2062,2082,2074,2004
2046,2037,2053,2059,2055,2085,2053,1999
2039,2038,2048,2055,2041,2065,2059,1996
2036,2039,2043,2046,2028,2049,2058,1989
2036,2042,2046,2047,2038,2009,2054,1996
2043,2042,2048,2049,2040,2017,2063,1993
2038,2044,2046,2045,2030,2022,2030,1982
2030,2038,2040,2030,2022,2021,2045,1986
2032,2044,2036,2013,2009,2032,2062,1996
2044,2043,2033,1992,2009,2038,2034,2001
2039,2049,2028,1991,2008,2038,2040,2006
2040,2052,2035,2000,2007,2047,2030,2017
2046,2062,2042,2005,2023,2049,2040,2024
2054,2064,2045,2011,2016,2047,2052,2032
2049,2069,2058,2023,2023,2046,2064,2035
2051,2060,2058,2032,2032,2051,2039,2037
2053,2061,2061,2031,2047,2050,2040,2041
2057,2071,2064,2046,2059,2055,2051,2038
2056,2076,2062,2049,2065,2053,2078,2038
2050,2067,2061,2045,2060,2049,2058,2039
2045,2060,2052,2041,2055,2039,2042,2033
2045,2054,2051,2041,2050,2038,2026,2042
2045,2048,2045,2030,2048,2031,2028,2037
2037,2036,2027,2026,2042,2034,2020,2035
2041,2043,2036,2032,2041,2044,2048,2041
2055,2057,2046,2039,2045,2049,2039,2037
2055,2062,2054,2035,2046,2044,2034,2033
2051,2061,2055,2040,2051,2055,2048,2036
2051,2060,2052,2042,2049,2067,2061,2032
2048,2062,2052,2041,2046,2074,2053,2026
2045,2056,2050,2036,2044,2082,2049,2018
2046,2058,2051,2039,2038,2086,2058,2013
2037,2058,2048,2041,2027,2081,2056,2015
2036,2054,2047,2038,2020,2082,2072,2004
2046,2054,2036,2037,2019,2059,2070,1998
2039,2047,2027,2033,2013,2030,2052,1986
2039,2041,2025,2032,2006,2034,2057,1989
2035,2036,2020,2033,2000,2043,2053,1983
2038,2041,2022,2024,2004,2032,2035,1975
2030,2025,2012,2021,2007,2027,2042,1974
2024,2026,2013,2032,2013,2020,2054,1984
2039,2043,2017,2041,2056,2021,2033,1987
2040,2043,2024,2043,2083,2018,2041,1993
2040,2041,2022,2041,2094,2003,2028,2003
2048,2048,2019,2040,2078,2014,2030,2014
2047,2045,2017,2032,2046,2018,2025,2017
2041,2042,2024,2029,2016,2022,2032,2017
2046,2045,2037,2040,2018,2023,2016,2022
2038,2045,2050,2042,2016,2019,2025,2031
2044,2062,2074,2054,2021,2024,2059,2040
2052,2064,2075,2050,2015,2040,2056,2032
2053,2064,2074,2053,2023,2045,2065,2034
2050,2060,2074,2049,2071,2045,2043,2033
2052,2054,2067,2051,2118,2055,2034,2027
2049,2053,2065,2046,2121,2067,2023,2023
2040,2035,2049,2035,2118,2084,2034,2018
2042,2036,2050,2039,2111,2104,2056,2025
2042,2049,2052,2044,2127,2110,2054,2018
2043,2052,2052,2045,2133,2080,2064,2019
2044,2052,2050,2042,2129,2043,2046,2020
2042,2051,2051,2038,2079,2028,2058,2023
2045,2052,2058,2044,2067,2046,2068,2018
2036,2049,2063,2046,2004,2053,2060,2012
2027,2048,2057,2036,1940,2036,2044,2011
2030,2050,2056,2032,1967,2032,2053,2007
2041,2054,2060,2040,2008,2038,2048,2008
2046,2055,2061,2052,2046,2054,2068,2006
2045,2053,2052,2049,2060,2056,2065,1995
2035,2047,2049,2047,2043,2051,2069,1982
2038,2045,2041,2037,2027,2040,2067,1973
2029,2038,2035,2032,2021,2036,2059,1976
2021,2024,2027,2029,2021,2029,2052,1970
2023,2026,2034,2028,2026,2033,2019,1986
2037,2042,2040,2033,2030,2041,2044,1985
2038,2045,2039,2040,2032,2041,2052,1986
2035,2043,2039,2042,2056,2047,2051,1991
2036,2044,2043,2045,2075,2050,2045,1998
2037,2048,2040,2041,2072,2048,2040,2004
2035,2044,2042,2039,2048,2042,2015,2009
2039,2038,2044,2036,2032,2039,2025,2014
2036,2038,2047,2034,2031,2047,2041,2018
2038,2034,2038,2037,2037,2049,2047,2014
2039,2035,2036,2035,2042,2047,2043,2017
2038,2028,2033,2030,2038,2044,2050,2020
2038,2028,2033,2041,2039,2040,2033,2027
2040,2031,2038,2041,2043,2040,2044,2027
2039,2040,2039,2046,2048,2031,2037,2026
2033,2023,2032,2037,2047,2004,2005,2022
2029,2028,2036,2041,2047,2012,2010,2021
2035,2039,2048,2048,2056,2033,2039,2020
2032,2034,2036,2045,2056,2055,2060,2012
2022,2035,2040,2041,2056,2067,2040,2011
2029,2036,2041,2036,2047,2078,2040,2003
2033,2039,2046,2036,2038,2081,2039,2007
2034,2040,2050,2044,2033,2078,2025,2003
2032,2049,2047,2041,2038,2042,2046,2011
2039,2057,2048,2045,2050,2032,2051,2004
2048,2056,2053,2046,2049,2045,2043,2006
2049,2058,2053,2043,2054,2054,2023,1993
2051,2051,2047,2041,2052,2050,2041,1983
2044,2044,2046,2037,2044,2053,2051,1984
2042,2046,2046,2036,2038,2054,2051,1975
2047,2049,2058,2040,2040,2055,2045,1975
2042,2047,2050,2037,2024,2047,2028,1964
2044,2040,2049,2034,2022,2042,2039,1972
2044,2045,2043,2030,2022,2046,2049,1975
2046,2040,2044,2029,2037,2041,2044,1975
2038,2043,2046,2032,2056,2042,2045,1986
2036,2041,2048,2043,2059,2044,2054,1997
2044,2041,2041,2040,2061,2044,2053,1998
2041,2044,2041,2036,2053,2043,2054,2003
2038,2041,2036,2038,2044,2046,2049,2002
2043,2038,2034,2039,2053,2042,2039,2010
2037,2040,2037,2038,2046,2040,2042,2008
2042,2038,2042,2037,2045,2042,2046,2007
2036,2039,2044,2037,2042,2040,2032,2006
2034,2037,2044,2037,2044,2039,2056,2010
2037,2054,2047,2043,2043,2041,2058,2022
2046,2054,2048,2049,2041,2049,2072,2026
2047,2056,2058,2050,2045,2050,2069,2017
2045,2040,2053,2045,2052,2060,2067,2016
2042,2036,2060,2054,2068,2082,2069,2017
2048,2050,2064,2054,2061,2090,2071,2009
2049,2052,2067,2052,2051,2097,2064,2011
2053,2046,2058,2052,2050,2098,2065,2012
2047,2051,2050,2052,2058,2072,2035,2011
2053,2052,2053,2047,2057,2023,2038,2013
2050,2045,2049,2052,2066,2008,2043,1999
2045,2050,2049,2049,2063,2018,2048,1990
2044,2046,2047,2047,2059,2033,2052,1990
2051,2050,2045,2034,2060,2038,2062,1991
2052,2050,2052,2033,2062,2035,2056,1981
2046,2052,2051,2035,2064,2036,2058,1984
2044,2045,2057,2037,2060,2035,2049,1970
2041,2044,2047,2033,2053,2044,2026,1966
2040,2037,2045,2035,2050,2048,2033,1959
2034,2031,2029,2026,2037,2040,2016,1950
2028,2026,2028,2031,2043,2038,2020,1952
2037,2038,2036,2045,2058,2043,2034,1960
2045,2042,2032,2043,2049,2043,2034,1970
2051,2041,2020,2038,2051,2044,2043,1979
2043,2039,2005,2040,2048,2043,2027,1983
2046,2037,1997,2038,2046,2047,2010,1985
2052,2041,1994,2048,2052,2044,2043,1990
2049,2032,1983,2047,2056,2042,2031,1992
2050,2029,1983,2049,2054,2044,2033,2005
2052,2031,1989,2049,2047,2038,2044,2011
2046,2028,1998,2053,2051,2039,2037,2008
2051,2033,2015,2053,2049,2036,2039,2009
2047,2033,2027,2049,2038,2026,2030,2011
2045,2030,2041,2048,2024,2021,2031,1998
2037,2031,2051,2039,1982,2015,2014,1995
2029,2027,2041,2016,1917,1987,2010,1990
2028,2016,2042,2003,1884,1972,1996,1992
2027,2020,2051,1994,1881,1973,1992,1989
2030,2022,2049,1992,1920,1968,2004,1992
2038,2029,2066,2025,2013,1963,2018,2020
2052,2047,2087,2053,2085,1995,2055,2024
2057,2049,2086,2039,2122,2056,2049,2018
2055,2051,2073,2034,2147,2112,2053,2013
2054,2052,2063,2035,2132,2110,2058,2008
2060,2054,2059,2023,2099,2091,2053,1999
2059,2046,2048,2017,2088,2092,2066,1986
2055,2052,2050,2023,2079,2090,2060,1980
2055,2053,2047,2029,2072,2087,2066,1979
2047,2055,2047,2027,2064,2083,2063,1975
2054,2050,2044,2030,2067,2066,2052,1971
2050,2054,2049,2030,2069,2063,2056,1974
2053,2049,2049,2037,2077,2059,2046,1966
2046,2040,2048,2031,2069,2052,2042,1967
2041,2043,2052,2028,2028,2058,2040,1976
2051,2056,2058,2031,2028,2048,2031,1974
2053,2060,2053,2028,2037,2036,2037,1978
2049,2054,2050,2024,2033,2039,2056,1982
2052,2053,2050,2029,2031,2048,2069,1988
2055,2063,2066,2033,2034,2050,2063,1993
2055,2065,2078,2037,2036,2050,2076,2004
2054,2061,2084,2039,2042,2051,2041,2000
2058,2064,2084,2041,2047,2061,2036,2012
2064,2065,2084,2045,2047,2062,2043,2012
2058,2062,2081,2042,2041,2050,2032,2011
2063,2058,2074,2038,2039,2039,2019,2014
2060,2051,2060,2034,2033,2044,2019,2009
2049,2047,2056,2035,2030,2052,2016,2011
2051,2049,2054,2034,2032,2036,2023,2007
2037,2029,2047,2021,2018,2032,2032,2008
2041,2026,2042,2021,2016,2043,2050,2007
2040,2038,2047,2027,2022,2063,2052,2010
2039,2041,2046,2026,2026,2076,2056,2006
2040,2035,2041,2025,2018,2082,2060,2008
2034,2035,2041,2027,2020,2077,2061,2005
2046,2037,2042,2020,2035,2045,2055,2009
2043,2038,2037,2030,2050,2018,2047,1998
2040,2035,2028,2031,2047,2023,2075,1992
2038,2031,2031,2042,2043,2038,2059,1990
2038,2038,2042,2051,2032,2043,2045,1984
2041,2050,2064,2064,2050,2047,2045,1977
2037,2039,2039,2075,2061,2041,2030,1972
2028,2022,2022,2066,2065,2039,2047,1965
2032,2014,2017,2057,2056,2057,2053,1961
2033,2014,2019,2053,2042,2061,2057,1953
2029,2002,2001,2037,2014,2055,2043,1948
2021,1996,1994,2029,1986,2052,2050,1955
2027,2017,2004,2045,1984,2045,2039,1960
2025,2020,2001,2051,2000,2028,2057,1974
2035,2022,1999,2044,2004,2024,2057,1985
2035,2022,2005,2020,1972,2021,2054,1986
2030,2022,2002,1984,1910,2002,2049,1994
2036,2030,2028,1974,1906,2012,2037,1996
2036,2047,2066,2005,1989,2024,2046,1997
2049,2061,2079,2029,2057,2040,2048,1999
2042,2057,2083,2037,2098,2031,2050,1999
2050,2062,2083,2054,2148,2033,2034,2002
2047,2060,2085,2061,2179,2029,2030,2008
2046,2053,2081,2066,2158,2029,2021,2008
2051,2056,2088,2070,2134,2038,2037,2012
2046,2056,2082,2070,2138,2049,2034,2007
2037,2046,2066,2062,2133,2040,2042,2010
2035,2044,2053,2052,2112,2052,2059,2021
2049,2056,2052,2050,2093,2059,2056,2023
2052,2054,2047,2043,2062,2057,2056,2017
2042,2050,2044,2027,1981,2052,2062,2012
2048,2043,2033,2012,1940,2037,2038,2014
2039,2040,2033,2009,1948,2031,2030,2013
2042,2057,2042,2014,1981,2044,2077,2016
2053,2063,2049,2013,2008,2051,2080,2002
2051,2064,2047,2012,2037,2053,2071,1995
2051,2061,2056,2020,2036,2046,2058,1984
2050,2061,2048,2019,2037,2038,2058,1978
2049,2068,2052,2020,2042,2025,2029,1970
2048,2058,2049,2025,2043,2024,2027,1968
2048,2054,2056,2034,2043,2031,2035,1972
2044,2055,2061,2029,2016,2018,2018,1962
2033,2041,2037,2011,1949,2001,2008,1950
2022,2027,2023,2004,1944,2011,2005,1952
2025,2039,2030,2022,2018,2040,2029,1966
2037,2046,2041,2061,2097,2070,2034,1973
2035,2047,2053,2069,2125,2091,2060,1982
2043,2051,2068,2072,2129,2101,2061,1994
2047,2062,2087,2092,2129,2109,2052,2012
2046,2062,2092,2099,2127,2114,2053,2005
2037,2057,2082,2100,2147,2103,2052,2008
2032,2051,2080,2105,2163,2096,2049,2013
2037,2052,2081,2098,2151,2095,2041,2022
2033,2042,2068,2083,2121,2095,2043,2018
2033,2034,2046,2068,2104,2074,2059,2014
2034,2021,2027,2054,2118,2044,2048,2013
2031,2015,2017,2038,2077,2024,2047,2024
2043,2026,2027,2039,2028,2025,2035,2026
2039,2028,2029,2042,2024,2034,2041,2029
2045,2042,2028,2033,2033,2048,2060,2023
2037,2040,2008,2000,1968,2038,2057,2019
2041,2033,2000,1976,1932,2030,2032,2020
2034,2032,1994,1978,1974,2037,2037,2018
2035,2032,1997,1979,1985,2043,2041,2013
2039,2037,2003,1991,2018,2044,2058,2008
2046,2045,2009,2004,2058,2055,2059,2011
2049,2041,2012,2019,2060,2051,2061,2009
2050,2042,2029,2016,2028,2033,2060,2001
2046,2049,2038,2024,1996,2022,2035,2005
2049,2056,2042,2030,2002,2020,2032,2000
2050,2062,2060,2034,2011,2026,2045,1986
2054,2073,2061,2032,2026,2053,2059,1986
2059,2069,2067,2049,2075,2095,2069,1995
2069,2070,2065,2048,2091,2105,2063,1989
2049,2045,2046,2035,2055,2090,2050,1982
2043,2036,2042,2018,1954,2081,2051,1977
2049,2052,2056,2012,1921,2071,2046,1977
2053,2053,2052,2013,1964,2062,2057,1981
2052,2047,2052,2015,2010,2062,2056,1988
2046,2040,2038,2022,2081,2038,2046,1989
2037,2036,2035,2020,2073,2011,2032,2000
2048,2045,2042,2022,2066,2016,2046,2017
2053,2049,2047,2023,2066,2020,2067,2021
2046,2050,2047,2015,2031,2014,2062,2023
2044,2049,2055,2012,1987,2019,2067,2037
2045,2059,2057,2032,2047,2025,2070,2033
2051,2058,2060,2042,2066,2025,2060,2041
2062,2062,2061,2026,2044,2027,2069,2047
2061,2063,2059,2036,2060,2055,2084,2056
2067,2061,2062,2045,2097,2073,2059,2037
2052,2052,2048,2029,2054,2068,2046,2026
2046,2039,2037,2030,2065,2051,2064,2023
2049,2052,2041,2032,2088,2036,2059,2016
2048,2040,2040,2038,2113,2037,2055,2008
2046,2046,2040,2046,2128,2004,2048,2020
2049,2054,2042,2037,2109,1988,2028,2023
2053,2052,2047,2036,2075,1989,2054,2009
2050,2043,2048,2033,2038,2010,2058,2001
2047,2040,2049,2033,2027,2021,2069,2001
2039,2039,2040,2023,1955,2020,2062,1995
2032,2027,2036,2015,1957,2015,2038,1966
2016,2018,2031,2023,2011,2028,2044,1974
2027,2029,2037,2039,2022,2031,2053,1973
2026,2024,2033,2040,2037,2028,2065,1972
2027,2013,2012,2030,2020,2013,2050,1976
2031,2004,1994,2019,1996,2004,2050,1966
2024,2009,1992,2033,2004,2007,2045,1967
2023,2009,2002,2035,2012,2012,2035,1973
2032,2024,2007,2039,2045,2038,2046,1979
2044,2029,2024,2061,2072,2066,2055,1978
2040,2032,2027,2061,2094,2087,2056,1993
2040,2035,2035,2067,2128,2112,2050,2002
2040,2041,2020,2067,2122,2102,2057,2008
2034,2034,2010,2048,2084,2051,2056,2012
2035,2028,2003,2043,2082,2007,2053,2024
2037,2023,2004,2040,2064,2019,2048,2023
2033,2017,2007,2034,2057,2043,2071,2026
2030,2023,2010,2041,2058,2063,2075,2025
2038,2031,2030,2040,2052,2066,2063,2034
2040,2041,2044,2040,2095,2081,2065,2040
2036,2038,2057,2050,2142,2096,2068,2033
2038,2047,2076,2058,2167,2099,2060,2019
2027,2043,2070,2060,2173,2112,2061,2036
2039,2049,2063,2056,2156,2108,2063,2039
2057,2058,2057,2021,2041,2071,2068,2045
2059,2052,2053,2017,1991,2045,2075,2050
2063,2063,2057,2026,2027,2056,2076,2038
2057,2055,2058,2017,1988,2051,2052,2033
2052,2053,2066,2003,1933,2030,2051,2023
2040,2038,2065,1985,1930,2009,2028,2025
2031,2037,2061,1991,1916,2006,2045,2014
2036,2045,2073,2006,1948,2010,2054,2021
2043,2055,2074,2015,2001,2005,2065,2018
2053,2056,2073,2028,2048,2012,2075,2010
2052,2058,2065,2035,2066,2012,2068,2010
2048,2047,2058,2040,2081,2014,2060,2002
2044,2039,2054,2040,2061,2017,2056,2004
2049,2039,2047,2030,2022,2018,2061,1995
2043,2029,2049,2023,2027,2030,2054,1989
2043,2038,2050,2022,2032,2043,2077,2002
2053,2053,2056,2030,2035,2063,2062,2007
2061,2059,2066,2032,2019,2068,2064,2017
2060,2059,2068,2060,2073,2077,2077,2022
2057,2060,2062,2065,2142,2079,2060,2017
2050,2052,2053,2060,2117,2068,2062,2029
2056,2052,2050,2052,2073,2071,2068,2029
2052,2053,2043,2041,2074,2084,2056,2034
2053,2051,2046,2036,2080,2089,2049,2032
2056,2041,2043,2027,2078,2072,2042,2031
2041,2033,2036,2029,2059,2042,2046,2021
2030,2029,2038,2033,2044,1991,2046,2037
2039,2040,2047,2053,2047,1977,2046,2047
2049,2042,2052,2050,2042,1997,2055,2051
2055,2045,2059,2052,2052,2017,2049,2046
2037,2033,2050,2045,2034,2030,2028,2040
2032,2025,2046,2033,1974,2030,2055,2047
2044,2035,2044,2015,1943,2021,2058,2053
2046,2041,2040,2012,1961,2029,2057,2056
2053,2039,2030,2016,1966,2041,2063,2051
2043,2032,2037,2012,1957,2046,2064,2048
2042,2050,2052,2031,1987,2059,2046,2051
2045,2059,2063,2033,1997,2058,2059,2033
2041,2052,2056,2018,1937,2053,2057,2019
2040,2048,2053,2018,1946,2052,2065,2007
2028,2048,2056,2029,1961,2053,2056,2012
2033,2043,2051,2044,2022,2063,2055,2010
2035,2034,2045,2056,2077,2034,2049,2014
2038,2032,2039,2059,2104,1998,2053,2020
2047,2039,2029,2052,2120,2025,2059,2019
2054,2042,2033,2057,2142,2048,2034,2023
2053,2038,2022,2045,2106,2061,2046,2016
2053,2022,2016,2037,2106,2065,2047,2006
2041,2014,2021,2047,2137,2039,2027,2013
2040,2017,2018,2070,2165,2030,2032,2018
2047,2018,2025,2089,2168,2035,2027,2027
2056,2020,2029,2092,2131,2047,2041,2033
2042,2014,2022,2084,2128,2043,2026,2037
2030,2018,2022,2059,2105,2022,2045,2040
2032,2029,2039,2066,2087,2015,2035,2054
2027,2031,2039,2054,2059,2011,2031,2049
2029,2032,2026,2042,2046,2029,2033,2049
2029,2032,2018,2043,2054,2048,2032,2049
2030,2039,2029,2043,2064,2068,2061,2060
2037,2044,2047,2044,2066,2069,2072,2067
2051,2050,2052,2035,2060,2068,2071,2086
2054,2051,2056,2027,2048,2050,2044,2076
2049,2037,2030,2015,2046,2035,2033,2072
2050,2035,2026,2002,2074,2035,2025,2074
2057,2054,2046,2012,2079,2034,2041,2058
2054,2052,2060,2028,2101,2043,2022,2059
2051,2050,2063,2030,2140,2053,2045,2059
2045,2055,2069,2042,2168,2059,2055,2064
2050,2062,2077,2064,2186,2059,2035,2058
2051,2055,2078,2080,2179,2060,2022,2056
2048,2054,2083,2079,2172,2056,2024,2055
2054,2047,2076,2078,2164,2065,2029,2062
2055,2046,2074,2073,2136,2072,2045,2061
2054,2046,2063,2047,2045,2051,2046,2051
2054,2042,2046,2035,2004,2027,2024,2043
2052,2043,2045,2033,1947,2017,2015,2024
2040,2037,2040,2036,1954,2033,2022,2019
2031,2034,2050,2038,2016,2060,2026,2017
2020,2026,2059,2046,2060,2083,2022,2016
2018,2025,2068,2061,2086,2093,2032,2022
2034,2049,2081,2072,2090,2084,2030,2022
2034,2054,2084,2074,2088,2080,2042,2027
2045,2056,2075,2077,2094,2076,2054,2036
2045,2053,2063,2066,2098,2076,2042,2048
2035,2050,2057,2059,2098,2075,2034,2056
2034,2052,2058,2067,2121,2071,2045,2067
2038,2060,2065,2074,2164,2074,2060,2073
2048,2057,2060,2079,2177,2085,2043,2082
2046,2061,2058,2062,2135,2089,2054,2081
2040,2047,2037,2031,2078,2094,2046,2083
2042,2046,2025,2003,2050,2082,2056,2081
2047,2045,2009,1990,2067,2086,2039,2079
2038,2038,2002,2017,2094,2100,2062,2084
2038,2025,1992,2012,1994,2071,2045,2076
2023,2002,1968,1978,1914,2021,2022,2060
2021,1996,1972,1982,1969,1983,2006,2067
2030,2019,1977,2000,1978,1966,2032,2068
2035,2023,1981,2010,1966,1981,2027,2068
2037,2029,1990,2028,1994,2004,2024,2070
2034,2027,1989,2044,2038,2024,2036,2066
2035,2027,2004,2046,2060,2034,2038,2071
2029,2038,2019,2053,2085,2051,2042,2072
2042,2048,2032,2045,2079,2051,2064,2068
2041,2043,2026,2000,1932,2030,2040,2066
2043,2040,2018,1977,1905,2031,2041,2064
2048,2036,2026,1980,1945,2031,2046,2054
2047,2033,2031,1972,1968,2034,2037,2037
2034,2030,2032,1961,1989,2032,2016,2042
2048,2038,2045,1956,1998,2035,2032,2053
2051,2048,2062,1974,2023,2032,2020,2042
2036,2041,2052,1997,2053,2024,2028,2032
2030,2036,2056,2031,2088,2036,2032,2041
2042,2067,2082,2061,2115,2052,2042,2040
2046,2069,2102,2057,2047,2051,2048,2060
2057,2069,2108,2039,2008,2058,2066,2067
2064,2061,2104,2029,1987,2060,2058,2067
2048,2054,2089,2027,1972,2066,2053,2064
2042,2055,2089,2032,1980,2070,2055,2083
2055,2055,2077,2039,2002,2080,2077,2099
2059,2057,2080,2058,2043,2088,2073,2101
2065,2061,2075,2064,2074,2097,2054,2097
2057,2056,2072,2044,2059,2079,2045,2088
2053,2051,2068,2032,2012,2049,2050,2089
2052,2046,2069,2018,1983,2002,2023,2091
2047,2025,2039,1984,1905,1958,1988,2083
2030,2019,2030,2010,1949,1944,2005,2077
2027,2010,2032,2022,2001,1947,2002,2080
2020,2009,2023,2033,2031,1977,2022,2074
2030,2027,2025,2037,2034,2029,2040,2070
2039,2044,2039,2071,2077,2077,2053,2097
2056,2059,2054,2097,2136,2111,2057,2116
2057,2052,2051,2088,2182,2118,2076,2106
2062,2055,2046,2070,2187,2113,2059,2111
2068,2051,2036,2051,2197,2099,2061,2095
2056,2044,2025,2040,2171,2095,2048,2082
2058,2047,2032,2051,2166,2112,2045,2075
2056,2042,2025,2064,2165,2120,2046,2059
2046,2031,2021,2067,2160,2108,2044,2063
2037,2016,2002,2063,2126,2090,2049,2051
2034,2012,1997,2070,2142,2085,2027,2053
2041,2016,2004,2074,2124,2057,2030,2058
2055,2037,2025,2060,1989,2007,2019,2058
2062,2041,2037,2046,1991,2026,2012,2057
2060,2051,2067,2077,2055,2046,2034,2061
2065,2070,2087,2092,2094,2058,2061,2071
2065,2077,2105,2108,2116,2057,2052,2076
2074,2095,2125,2109,2103,2068,2048,2077
2061,2086,2131,2112,2118,2074,2052,2075
2055,2081,2116,2098,2120,2065,2039,2085
2053,2072,2110,2095,2122,2059,2050,2088
2063,2069,2101,2094,2123,2057,2059,2103
2063,2072,2096,2092,2093,2059,2055,2108
2057,2063,2090,2079,2009,2056,2043,2108
2051,2062,2088,2074,1976,2070,2055,2101
2050,2055,2079,2057,2007,2086,2053,2095
2047,2053,2075,2048,2028,2084,2046,2083
2045,2044,2057,2035,2033,2076,2046,2095
2050,2042,2054,2035,2036,2083,2048,2104
2048,2043,2053,2035,2028,2037,2020,2105
2037,2036,2050,2046,2059,2037,2034,2112
2036,2040,2063,2074,2113,2066,2051,2110
2040,2064,2072,2088,2144,2088,2066,2116
2060,2080,2069,2079,2158,2097,2074,2117
2070,2072,2065,2068,2123,2094,2056,2124
2072,2054,2054,2059,2093,2085,2059,2117
2060,2045,2047,2048,2078,2078,2053,2103
2060,2037,2045,2047,2126,2061,2052,2093
2055,2029,2037,2027,2168,2040,2037,2062
2028,2024,2042,1995,2107,2028,2026,2077
2028,2030,2046,1974,2027,2028,2049,2083
2037,2036,2050,1958,2022,2035,2046,2070
2027,2040,2048,1963,1997,2041,2045,2052
2017,2031,2050,1978,1990,2050,2060,2064
2030,2036,2046,1994,2007,2040,2048,2071
2033,2027,2046,2004,2011,2020,2040,2076
2028,2028,2044,2008,1965,2021,2049,2075
2029,2044,2037,2002,1925,2031,2028,2079
2042,2056,2048,2006,1956,2060,2040,2079
2048,2066,2063,2019,1983,2064,2026,2075
2045,2058,2054,2018,2004,2051,2033,2080
2031,2043,2041,2028,2037,2034,2022,2089
2041,2058,2062,2059,2093,2058,2056,2097
2053,2073,2080,2072,2086,2064,2042,2097
2053,2062,2067,2052,2058,2049,2030,2092
2049,2058,2053,2039,2045,2039,2038,2112
2055,2058,2056,2044,2048,2041,2050,2116
2055,2057,2056,2045,2049,2046,2048,2121
2047,2052,2039,2046,2038,2057,2040,2125
2048,2051,2031,2039,2043,2057,2036,2128
2043,2056,2026,2041,2041,2064,2049,2135
2047,2056,2014,2037,2035,2064,2050,2130
2043,2037,1999,2022,2022,2050,2029,2113
2030,2020,1977,2001,2016,2049,2030,2109
2033,2036,1991,1999,2022,2063,2060,2111
2039,2050,1997,2012,2040,2070,2072,2121
2051,2062,2013,2022,2073,2079,2067,2126
2052,2053,2007,2023,2106,2077,2065,2118
2041,2045,2008,2027,2139,2086,2038,2117
2043,2046,2010,2033,2127,2075,2030,2112
2038,2045,2027,2040,2063,2057,2062,2103
2040,2054,2048,2052,2025,2069,2054,2101
2046,2055,2052,2068,2033,2082,2063,2094
2043,2060,2052,2072,2043,2070,2045,2084
2038,2048,2054,2072,2046,2065,2049,2070
2034,2038,2052,2059,2066,2047,2031,2071
2035,2029,2042,2035,2054,2030,2045,2065
2036,2035,2053,2025,2052,2042,2046,2066
2049,2055,2074,2035,2067,2060,2046,2075
2055,2064,2104,2056,2065,2068,2045,2077
2053,2074,2113,2065,2075,2073,2038,2085
2053,2068,2102,2043,2076,2074,2036,2088
2053,2056,2091,2033,2086,2082,2022,2092
2057,2058,2087,2040,2084,2076,2045,2104
2067,2061,2081,2032,2076,2063,2062,2105
2053,2055,2071,2018,2062,2060,2047,2109
2052,2053,2063,2011,2058,2065,2056,2112
2045,2052,2062,2008,2032,2058,2064,2120
2047,2052,2072,2024,2035,2054,2075,2123
2037,2055,2065,2044,2029,2056,2063,2125
2035,2047,2062,2047,2024,2041,2057,2132
2039,2049,2056,2035,2016,2034,2049,2129
2042,2052,2054,2036,2020,2057,2033,2134
2044,2048,2049,2039,2032,2076,2043,2125
2041,2043,2038,2028,2009,2075,2028,2104
2018,2034,2018,2020,1990,2077,2029,2097
2026,2039,2020,2025,1978,2086,2030,2113
2037,2055,2029,2035,1980,2084,2040,2118
2035,2045,2029,2049,1996,2025,2026,2118
2040,2043,2028,2059,2043,1967,2039,2122
2042,2037,2026,2056,2060,1972,2036,2123
2038,2041,2029,2058,2104,2021,2041,2118
2035,2038,2034,2072,2166,2062,2058,2107
2029,2042,2032,2072,2115,2070,2051,2085
2026,2042,2033,2065,2038,2081,2070,2086
2026,2049,2045,2093,2107,2092,2076,2084
2033,2057,2040,2090,2117,2095,2055,2085
2033,2049,2033,2074,2088,2084,2050,2084
2040,2048,2036,2068,2075,2076,2048,2082
2041,2054,2053,2073,2069,2062,2057,2084
2050,2058,2068,2068,2060,2045,2042,2080
2037,2049,2069,2058,2038,2029,2023,2069
2027,2048,2073,2053,2028,2024,2027,2073
2032,2054,2076,2054,2032,2027,2024,2084
2033,2059,2071,2044,2035,2032,2040,2096
2040,2063,2071,2044,2041,2042,2043,2096
2038,2061,2061,2028,2043,2048,2037,2101
2038,2056,2049,2026,2047,2049,2033,2109
2045,2054,2045,2027,2048,2049,2043,2113
2040,2049,2058,2033,2055,2049,2034,2121
2043,2051,2052,2038,2051,2050,2033,2120
2043,2049,2056,2056,2052,2058,2055,2116
2040,2051,2066,2057,2060,2062,2049,2128
2047,2054,2064,2056,2046,2054,2028,2129
2044,2047,2055,2051,2047,2051,2028,2129
2046,2056,2062,2059,2050,2054,2050,2139
2047,2061,2065,2062,2067,2053,2047,2142
2058,2064,2069,2064,2062,2045,2028,2142
2049,2045,2056,2057,2065,2039,2035,2134
2049,2045,2057,2061,2070,2044,2035,2138
2050,2054,2062,2059,2070,2054,2030,2130
2047,2045,2062,2056,2066,2056,2048,2121
2040,2045,2063,2052,2068,2060,2023,2113
2042,2052,2064,2052,2065,2066,2039,2117
2050,2052,2063,2056,2061,2058,2028,2122
2050,2054,2063,2052,2050,2054,2050,2122
2051,2050,2059,2049,2020,2051,2059,2115
2048,2046,2049,2042,2021,2051,2059,2104
2042,2040,2046,2048,2032,2054,2069,2107
2050,2046,2047,2052,2033,2052,2060,2104
2055,2040,2042,2052,2038,2056,2061,2096
2044,2036,2044,2056,2044,2061,2065,2089
2048,2038,2051,2070,2050,2056,2061,2085
2046,2039,2045,2071,2093,2064,2062,2076
2035,2036,2036,2070,2127,2075,2071,2071
2040,2024,2020,2059,2094,2064,2047,2081
2042,2036,2018,2073,2090,2064,2055,2098
2045,2035,2023,2076,2077,2070,2069,2094
2045,2032,2017,2070,2042,2068,2043,2101
2042,2028,2013,2051,2008,2056,2050,2102
2035,2018,2010,2048,1997,2051,2034,2103
2039,2016,2007,2052,2007,2054,2039,2106
2029,2013,2002,2055,2033,2053,2034,2109
2029,2013,2009,2068,2054,2056,2030,2114
2037,2025,2031,2090,2076,2064,2033,2116
2037,2035,2052,2100,2075,2071,2037,2119
2040,2043,2056,2096,2063,2064,2040,2124
2043,2034,2040,2092,2060,2062,2036,2127
2043,2025,2032,2091,2063,2059,2038,2121
2041,2026,2027,2083,2067,2054,2041,2127
2041,2026,2033,2083,2069,2049,2055,2124
2040,2021,2033,2077,2072,2048,2048,2128
2036,2021,2038,2071,2056,2055,2047,2128
2045,2048,2070,2078,2062,2061,2043,2132
2045,2067,2081,2076,2060,2056,2061,2132
2057,2070,2077,2066,2057,2062,2054,2134
2060,2068,2065,2035,2048,2068,2054,2126
2055,2059,2062,2016,2042,2066,2045,2131
2055,2061,2073,2007,2042,2059,2056,2130
2056,2064,2084,1999,2034,2058,2046,2131
2052,2060,2086,2001,2037,2062,2050,2125
2061,2065,2083,2010,2039,2062,2061,2117
2054,2059,2080,2030,2051,2066,2028,2115
2055,2058,2077,2038,2059,2066,2039,2105
2050,2060,2080,2040,2055,2064,2054,2102
2056,2063,2075,2035,2052,2072,2034,2101
2055,2063,2074,2032,2047,2065,2026,2094
2055,2055,2056,2029,2045,2059,2015,2085
2030,2042,2050,2030,2051,2047,2026,2078
2029,2038,2047,2048,2055,2056,2036,2080
2032,2052,2056,2059,2060,2067,2028,2084
2038,2054,2062,2063,2069,2072,2024,2092
2045,2049,2050,2062,2062,2064,2041,2105
2050,2050,2042,2066,2048,2057,2045,2111
2050,2047,2034,2060,2031,2051,2051,2110
2047,2046,2034,2057,2020,2055,2051,2121
2046,2045,2039,2063,2035,2052,2044,2122
2042,2041,2027,2062,2045,2034,2038,2128
2049,2033,2022,2060,2039,2039,2042,2129
2047,2040,2022,2061,2034,2049,2046,2129
2050,2045,2034,2065,2036,2044,2026,2126
2048,2048,2028,2056,2030,2050,2023,2130
2047,2046,2028,2055,2036,2051,2021,2127
2036,2045,2024,2061,2071,2065,2030,2128
2036,2034,2022,2059,2072,2071,2032,2123
2028,2026,2022,2054,2056,2070,2025,2133
2042,2046,2038,2054,2048,2073,2031,2138
2041,2047,2036,2061,2031,2062,2022,2125
2039,2048,2046,2060,2026,2058,2051,2130
2045,2049,2053,2062,2011,2059,2039,2127
2041,2042,2046,2056,2002,2076,2023,2118
2044,2035,2044,2051,2000,2085,2029,2124
2048,2034,2042,2044,1986,2080,2020,2119
2047,2040,2036,2042,1978,2074,2022,2109
2039,2042,2049,2040,1972,2048,2038,2105
2051,2054,2065,2049,1976,2013,2064,2114
2060,2064,2083,2059,1990,2017,2077,2110
2054,2064,2079,2056,1994,2024,2069,2089
2049,2056,2085,2058,2046,2057,2075,2091
2044,2064,2091,2083,2086,2072,2073,2088
2046,2068,2099,2087,2088,2074,2074,2083
2034,2054,2080,2080,2073,2068,2072,2077
2031,2054,2072,2072,2088,2074,2077,2083
2039,2058,2069,2060,2096,2072,2061,2085
2049,2054,2061,2045,2071,2064,2063,2091
2052,2058,2063,2030,2056,2064,2072,2101
2054,2057,2058,2029,2063,2068,2053,2101
2057,2057,2061,2028,2070,2067,2054,2107
2048,2056,2068,2037,2082,2074,2053,2122
2057,2066,2073,2049,2098,2089,2034,2133
2056,2071,2069,2051,2089,2081,2060,2140
2057,2060,2059,2060,2076,2067,2076,2136
2053,2056,2048,2052,2064,2059,2060,2137
2050,2041,2038,2046,2043,2046,2057,2140
2052,2033,2028,2042,2028,2042,2059,2134
2044,2034,2030,2042,2026,2048,2049,2130
2046,2040,2037,2045,2048,2055,2053,2128
2049,2051,2042,2056,2062,2057,2033,2124
2040,2033,2041,2061,2069,2062,2033,2124
2036,2025,2042,2066,2070,2067,2045,2126
2048,2033,2043,2064,2062,2067,2066,2125
2044,2033,2046,2062,2075,2069,2056,2123
2045,2043,2046,2065,2065,2062,2067,2128
2045,2034,2040,2057,2063,2062,2063,2117
2044,2036,2039,2064,2057,2052,2053,2110
2044,2045,2041,2064,2063,2051,2058,2111
2049,2049,2050,2062,2065,2053,2058,2112
2049,2042,2048,2063,2059,2041,2038,2108
2053,2046,2056,2064,2059,2034,2043,2104
2054,2048,2050,2064,2050,2034,2034,2094
2051,2056,2039,2049,2051,2036,2031,2092
2051,2050,2037,2041,2048,2040,2044,2094
2049,2048,2037,2043,2040,2042,2046,2090
2049,2053,2037,2038,2038,2045,2040,2089
2046,2038,2015,2023,2033,2045,2040,2079
2044,2033,2018,2026,2052,2062,2042,2081
2050,2045,2043,2030,2077,2080,2062,2082
2054,2052,2052,2039,2079,2092,2050,2089
2059,2055,2052,2051,2084,2101,2057,2093
2058,2052,2046,2046,2079,2099,2065,2092
2054,2052,2043,2045,2083,2075,2039,2101
2061,2057,2044,2053,2096,2052,2043,2121
2060,2058,2059,2066,2109,2060,2052,2124
2064,2067,2070,2085,2105,2059,2057,2126
2065,2069,2069,2078,2024,2035,2075,2139
2056,2055,2056,2056,1951,2038,2061,2123
2046,2041,2044,2058,1999,2074,2068,2132
2053,2059,2061,2091,2092,2107,2089,2138
2058,2075,2079,2121,2160,2113,2101,2130
2061,2065,2075,2127,2182,2108,2093,2122
2057,2060,2067,2121,2177,2103,2089,2124
2059,2061,2071,2120,2181,2086,2084,2129
2070,2066,2069,2089,2123,2070,2091,2140
2077,2072,2067,2077,2073,2066,2080,2147
2075,2076,2064,2062,1986,2051,2070,2144
2075,2074,2051,2038,1909,2054,2064,2135
2070,2072,2046,2027,1916,2048,2076,2115
2059,2062,2035,2029,1953,2034,2069,2109
2055,2050,2031,2032,1983,2043,2061,2093
2037,2051,2038,2033,2005,2066,2055,2100
2045,2060,2052,2034,2029,2075,2074,2098
2050,2064,2057,2041,2051,2079,2084,2088
2057,2061,2054,2040,2056,2074,2069,2083
2046,2054,2041,2058,2061,2061,2040,2075
2049,2051,2031,2053,2045,2042,2042,2073
2048,2044,2028,2033,2029,2033,2027,2077
2047,2040,2020,2037,2021,2036,2047,2069
2047,2036,2021,2036,2006,2019,2041,2050
2033,2028,2016,2030,2001,2018,2045,2055
2031,2028,2019,2031,2005,2030,2046,2075
2037,2052,2047,2047,2009,2046,2040,2082
2049,2060,2055,2053,2011,2050,2034,2090
2051,2062,2063,2059,2010,2053,2044,2090
2052,2068,2066,2060,2003,2081,2053,2093
2054,2053,2055,2052,1977,2080,2056,2095
2055,2053,2049,2041,1946,2076,2048,2102
2056,2057,2053,2034,1935,2083,2045,2108
2060,2051,2055,2027,1930,2091,2045,2111
2068,2062,2069,2044,1955,2080,2064,2123
2077,2090,2097,2085,2027,2078,2064,2124
2080,2087,2097,2107,2119,2103,2046,2125
2076,2078,2083,2108,2120,2104,2053,2111
2071,2065,2068,2090,2060,2112,2051,2114
2061,2062,2063,2078,2006,2096,2040,2107
2043,2059,2052,2068,1978,2064,2008,2099
2039,2051,2054,2070,1999,2030,2009,2099
2045,2063,2056,2092,2064,2002,2042,2113
2057,2067,2057,2112,2130,1981,2044,2117
2062,2067,2062,2106,2135,1992,2055,2110
2055,2061,2055,2087,2094,2015,2056,2110
2048,2064,2055,2073,2040,2035,2056,2110
2054,2072,2062,2081,2056,2044,2061,2109
2064,2073,2064,2088,2088,2042,2048,2103
2062,2065,2065,2096,2151,2038,2045,2099
2060,2062,2060,2094,2176,2020,2046,2091
2062,2067,2069,2107,2199,2023,2040,2095
2071,2076,2069,2099,2231,2028,2041,2093
2071,2076,2065,2080,2236,2022,2033,2089
2068,2065,2063,2082,2197,2031,2036,2087
2067,2064,2053,2067,2167,2044,2055,2077
2060,2054,2051,2044,2145,2051,2051,2067
2054,2040,2032,2013,2061,2034,2043,2055
2049,2035,2024,1993,1911,2020,2048,2064
2044,2040,2029,2010,1891,2021,2027,2055
2045,2041,2036,2026,1890,1989,2039,2063
2050,2040,2041,2029,1885,1968,2012,2066
2054,2043,2043,2055,1950,1985,2027,2068
2056,2049,2053,2087,1985,2026,2021,2084
2063,2061,2055,2095,2005,2056,2021,2078
2059,2052,2048,2093,2036,2065,2046,2087
2051,2052,2042,2088,2038,2059,2019,2085
2053,2053,2043,2087,2027,2054,2032,2084
2051,2053,2041,2083,2040,2054,2039,2094
2052,2054,2040,2084,2046,2063,2055,2097
2052,2058,2036,2079,2061,2062,2035,2097
2059,2059,2033,2062,2049,2047,2042,2101
2055,2053,2035,2063,2038,2043,2042,2098
2048,2051,2039,2068,2031,2035,2039,2092
2035,2037,2030,2050,2017,2029,2037,2084
2028,2028,2034,2047,2012,2042,2041,2095
2046,2042,2048,2045,2019,2069,2036,2094
2047,2049,2046,2040,2016,2076,2015,2086
2051,2047,2041,2037,2010,2073,2037,2098
2051,2052,2045,2049,2021,2068,2046,2090
2058,2051,2044,2061,2029,2033,2039,2098
2056,2049,2050,2066,2046,2021,2053,2100
2057,2052,2044,2075,2060,2030,2050,2086
2058,2055,2047,2069,2055,2047,2052,2082
2054,2051,2048,2059,2052,2056,2048,2075
2048,2045,2039,2050,2044,2058,2039,2065
2048,2040,2036,2041,2043,2058,2047,2061
2050,2040,2039,2033,2033,2060,2049,2057
2050,2045,2034,2018,2030,2055,2055,2048
2048,2054,2042,2019,2031,2056,2067,2053
2044,2052,2041,2015,2005,2034,2043,2042
2044,2043,2052,2017,1975,2025,2048,2052
2047,2051,2060,2023,1951,2027,2057,2057
2057,2060,2076,2030,1954,2020,2048,2058
2057,2059,2072,2029,1946,2013,2046,2051
2057,2053,2053,2026,1960,2030,2039,2061
2061,2058,2057,2047,2028,2076,2060,2069
2064,2057,2060,2061,2060,2086,2060,2073
2064,2057,2050,2051,2045,2078,2064,2081
2064,2051,2044,2050,2037,2065,2059,2081
2058,2042,2043,2052,2042,2058,2051,2090
2055,2050,2048,2053,2064,2061,2054,2085
2060,2047,2045,2055,2079,2062,2038,2084
2057,2056,2054,2057,2080,2059,2054,2098
2056,2058,2062,2068,2093,2060,2042,2088
2058,2062,2072,2063,2083,2045,2032,2087
2057,2066,2065,2066,2064,2039,2026,2090
2060,2051,2059,2060,2064,2032,2028,2082
2050,2041,2052,2044,2054,2030,2035,2082
2053,2036,2051,2053,2066,2041,2042,2088
2053,2047,2049,2052,2060,2035,2043,2090
2051,2047,2049,2053,2057,2034,2019,2090
2053,2051,2051,2061,2058,2038,2039,2083
2054,2048,2051,2062,2052,2039,2040,2087
2053,2052,2048,2060,2042,2036,2038,2084
2051,2051,2048,2050,2028,2031,2033,2069
2054,2044,2047,2047,2025,2036,2017,2069
2053,2040,2038,2043,2045,2042,2022,2068
2058,2045,2048,2052,2059,2047,2020,2060
2057,2050,2044,2056,2064,2055,2032,2056
2056,2042,2035,2054,2061,2052,2047,2046
2046,2040,2028,2045,2058,2053,2043,2034
2035,2024,2022,2044,2060,2053,2046,2031
2037,2029,2027,2042,2057,2050,2038,2027
2033,2022,2017,2037,2078,2047,2045,2024
2045,2029,2020,2043,2106,2052,2030,2038
2050,2048,2028,2054,2118,2060,2038,2046
2060,2056,2028,2057,2121,2068,2032,2063
2070,2058,2031,2052,2130,2084,2054,2065
2075,2061,2024,2057,2117,2086,2059,2069
2069,2058,2017,2043,2098,2073,2052,2065
2061,2051,2008,2043,2075,2077,2051,2075
2053,2044,2003,2043,2045,2079,2040,2084
2057,2055,2015,2048,1980,2089,2050,2087
2065,2061,2019,2046,1917,2090,2056,2086
2068,2060,2020,2047,1942,2092,2060,2087
2065,2055,2026,2058,1983,2106,2068,2085
2056,2047,2027,2064,1996,2114,2056,2079
2051,2042,2039,2065,2011,2109,2043,2082
2056,2043,2041,2068,2014,2101,2046,2075
2055,2041,2046,2068,2004,2081,2023,2074
2046,2036,2038,2058,2003,2045,2033,2082
2045,2038,2050,2076,2038,2034,2039,2098
2068,2065,2084,2101,2069,2046,2049,2103
2068,2067,2090,2108,2065,2045,2047,2102
2066,2064,2086,2106,2057,2037,2063,2095
2064,2059,2083,2092,2041,2014,2052,2082
2059,2060,2086,2082,2031,2011,2044,2074
2059,2055,2094,2084,2028,2004,2051,2069
2059,2059,2088,2081,2014,2006,2057,2069
2067,2058,2074,2064,1962,2015,2053,2066
2070,2049,2067,2044,1940,2020,2034,2057
2064,2057,2064,2035,1933,2033,2048,2047
2057,2063,2072,2036,1948,2048,2039,2043
2065,2071,2096,2062,2018,2060,2060,2056
2079,2089,2104,2094,2086,2033,2059,2063
2084,2089,2103,2097,2126,2031,2049,2056
2079,2073,2076,2077,2127,2055,2044,2043
2058,2045,2047,2042,2088,2069,2037,2032
2047,2045,2039,2022,2029,2071,2036,2035
2058,2056,2046,2029,2034,2072,2042,2043
2058,2054,2050,2029,2118,2078,2051,2044
2057,2053,2050,2041,2154,2089,2046,2055
2054,2062,2053,2059,2149,2103,2064,2062
2052,2066,2045,2060,2127,2089,2068,2068
2058,2063,2043,2051,2064,2070,2056,2066
2064,2055,2035,2042,2024,2060,2045,2071
2059,2052,2035,2036,2010,2047,2043,2075
2054,2055,2036,2019,1954,2021,2043,2067
2051,2052,2040,2006,1919,2008,2037,2064
2058,2052,2048,2028,1994,2024,2048,2082
2055,2057,2041,2044,2032,2027,2052,2083
2065,2058,2043,2046,2041,2034,2055,2084
2052,2045,2034,2042,2043,2039,2053,2075
2043,2034,2020,2034,2052,2054,2038,2072
2047,2037,2030,2058,2107,2070,2054,2081
2055,2056,2055,2082,2132,2091,2088,2085
2059,2060,2065,2084,2108,2095,2067,2081
2055,2055,2062,2084,2092,2090,2057,2079
2047,2055,2067,2078,2066,2073,2060,2071
2046,2051,2055,2068,2040,2069,2058,2068
2046,2053,2050,2056,1998,2066,2062,2074
2051,2050,2047,2050,2009,2067,2061,2064
2055,2051,2042,2047,2007,2071,2064,2052
2042,2046,2037,2038,1946,2056,2060,2044
2044,2048,2043,2019,1872,2045,2030,2042
2042,2053,2039,2019,1938,2049,2032,2040
2044,2053,2049,2032,2043,2059,2060,2039
2046,2062,2062,2050,2079,2056,2041,2037
2055,2068,2061,2059,2096,2049,2049,2034
2049,2064,2058,2064,2134,2051,2039,2028
2041,2053,2042,2076,2152,2053,2047,2033
2041,2053,2043,2066,2133,2051,2050,2027
2052,2058,2046,2051,2092,2064,2038,2033
2043,2052,2041,2035,2016,2050,2050,2039
2048,2048,2036,2032,1954,2049,2036,2047
2052,2058,2044,2034,1932,2050,2043,2052
2050,2057,2045,2044,1975,2033,2050,2056
2055,2065,2056,2073,2071,2002,2055,2067
2055,2072,2074,2089,2130,2013,2059,2068
2050,2071,2078,2092,2147,2037,2059,2072
2061,2067,2074,2086,2135,2068,2045,2083
2053,2057,2061,2075,2090,2073,2052,2084
2057,2058,2061,2073,2085,2085,2051,2083
2056,2058,2053,2079,2132,2096,2072,2086
2059,2052,2048,2075,2139,2093,2061,2092
2067,2059,2050,2070,2120,2076,2068,2091
2065,2061,2035,2043,1993,2054,2054,2082
2052,2043,2024,2014,1885,2037,2043,2068
2052,2042,2021,2025,1910,2036,2062,2077
2060,2049,2031,2039,1933,2020,2057,2075
2052,2041,2027,2048,1988,2028,2056,2067
2038,2038,2025,2050,2062,2034,2051,2068
2044,2042,2023,2051,2105,2042,2045,2059
2039,2039,2025,2053,2100,2064,2060,2053
2036,2031,2026,2053,2084,2074,2034,2056
2038,2035,2023,2045,2039,2073,2045,2051
2040,2036,2029,2034,2015,2061,2040,2039
2042,2045,2044,2031,2018,2055,2050,2040
2051,2057,2067,2045,2032,2042,2060,2052
2057,2064,2069,2046,2035,2056,2070,2042
2059,2062,2083,2051,2044,2079,2064,2041
2059,2062,2072,2053,2057,2081,2058,2033
2063,2057,2056,2058,2060,2049,2073,2043
2064,2062,2054,2061,2068,1998,2040,2042
2057,2055,2056,2061,2086,2010,2046,2037
2058,2058,2063,2069,2114,2038,2052,2042
2062,2063,2064,2077,2108,2056,2063,2051
2066,2064,2065,2076,2080,2055,2050,2046
2066,2069,2068,2072,2068,2056,2059,2051
2062,2067,2067,2072,2077,2051,2045,2062
2058,2061,2057,2065,2090,2049,2061,2060
2057,2055,2049,2058,2083,2045,2060,2059
2058,2065,2054,2057,2041,2043,2068,2066
2056,2059,2059,2052,2020,2037,2064,2065
2043,2054,2052,2038,1978,2040,2052,2058
2042,2044,2050,2024,1985,2053,2057,2066
2049,2055,2060,2042,2080,2072,2068,2076
2060,2053,2065,2056,2128,2076,2070,2083
2063,2058,2065,2067,2133,2078,2066,2087
2072,2064,2064,2084,2149,2085,2050,2088
2056,2054,2047,2078,2137,2075,2050,2077
2049,2051,2053,2071,2102,2069,2058,2077
2059,2067,2064,2077,2074,2069,2086,2077
2056,2076,2063,2072,2050,2045,2066,2068
2063,2070,2060,2058,1996,2019,2044,2069
2058,2063,2057,2038,1926,2005,2036,2057
2051,2059,2055,2048,1946,2004,2034,2059
2053,2065,2052,2070,2028,2022,2031,2059
2057,2056,2044,2070,2057,2043,2042,2053
2045,2046,2027,2057,2042,2051,2035,2048
2047,2034,2021,2048,2049,2051,2050,2037
2047,2025,2015,2055,2044,2062,2059,2030
2038,2012,2013,2059,2042,2073,2065,2024
2035,2016,2023,2060,2046,2080,2067,2019
2044,2021,2033,2069,2056,2078,2065,2016
2041,2024,2036,2068,2061,2038,2067,2017
2044,2032,2032,2056,2037,2002,2044,2004
2036,2019,2031,2062,2031,2016,2071,2007
2032,2014,2038,2063,2043,2033,2072,2004
2038,2023,2052,2075,2045,2049,2071,2010
2039,2028,2058,2075,2036,2046,2062,2021
2043,2036,2071,2072,2039,2042,2042,2026
2055,2047,2083,2066,2028,2039,2045,2032
2052,2042,2084,2059,2033,2039,2044,2042
2052,2043,2078,2056,2029,2049,2059,2049
2049,2040,2073,2048,2027,2057,2057,2059
2049,2044,2069,2043,2035,2043,2056,2063
2057,2055,2071,2045,2046,2035,2052,2066
2059,2065,2070,2044,2051,2021,2037,2069
2064,2065,2072,2043,2049,2005,2031,2061
2054,2056,2065,2039,2052,2004,2037,2065
2044,2062,2074,2040,2054,2003,2020,2062
2050,2059,2071,2040,2040,2009,2029,2074
2055,2056,2058,2026,2030,2019,2027,2078
2052,2041,2040,2014,2013,2026,2029,2076
2061,2044,2040,2008,1997,2036,2074,2082
2068,2050,2042,2011,1982,2043,2058,2070
2053,2032,2034,2013,1932,2036,2055,2057
2049,2032,2040,2015,1937,2032,2059,2054
2050,2035,2046,2017,1949,2012,2042,2053
2041,2033,2041,2015,1940,1992,2038,2049
2042,2044,2058,2043,1986,1994,2056,2057
2056,2060,2076,2073,2038,2030,2081,2073
2058,2058,2072,2082,2071,2061,2076,2053
2049,2053,2072,2076,2124,2091,2076,2028
2047,2050,2060,2058,2133,2086,2086,2018
2045,2043,2054,2046,2118,2077,2082,2022
2049,2037,2055,2051,2134,2084,2075,2018
2048,2031,2047,2057,2120,2073,2069,2014
2047,2039,2042,2052,2092,2060,2043,2008
2042,2038,2040,2044,2070,2052,2029,2007
2035,2034,2043,2045,2057,2056,2061,2003
2047,2046,2048,2046,2046,2068,2064,2012
2054,2049,2054,2042,2041,2076,2053,2023
2054,2046,2050,2044,2041,2082,2069,2027
2055,2042,2045,2051,2046,2043,2052,2040
2053,2051,2052,2054,2034,2012,2056,2048
2056,2055,2052,2054,2015,2007,2040,2061
2061,2052,2052,2047,2018,2015,2052,2056
2061,2043,2044,2041,2035,2034,2047,2054
2052,2042,2036,2050,2066,2069,2062,2062
2055,2037,2031,2052,2078,2080,2063,2061
2048,2038,2039,2052,2083,2082,2064,2062
2052,2042,2044,2059,2078,2071,2045,2060
2052,2046,2045,2064,2103,2064,2050,2059
2054,2035,2031,2075,2138,2072,2054,2064
2052,2039,2028,2080,2133,2069,2049,2061
2048,2031,2028,2080,2104,2061,2038,2058
2044,2038,2047,2084,2079,2057,2038,2062
2065,2056,2068,2098,2085,2060,2073,2052
2059,2054,2066,2089,2080,2068,2037,2047
2059,2048,2060,2085,2073,2069,2049,2036
2055,2037,2050,2081,2064,2065,2058,2042
2053,2037,2044,2070,2050,2046,2043,2039
2058,2044,2054,2075,2043,2026,2063,2042
2050,2045,2059,2081,2056,2015,2066,2043
2053,2050,2061,2087,2055,2042,2067,2040
2052,2049,2059,2073,2037,2045,2061,2034
2046,2052,2052,2062,2018,2037,2032,2023
2047,2056,2056,2065,2017,2013,2043,2031
2055,2064,2068,2072,2034,1994,2026,2031
2052,2066,2070,2068,2036,2000,2049,2027
2059,2064,2068,2050,2049,2015,2044,2028
2054,2054,2048,2026,2068,2025,2050,2016
2047,2025,2025,2001,2083,2029,2039,2014
2036,2018,2012,2001,2060,2030,2050,2019
2049,2038,2009,2016,2072,2047,2065,2017
2039,2042,2018,2031,2082,2059,2070,2033
2044,2041,2036,2051,2103,2067,2069,2047
2054,2051,2051,2063,2113,2072,2066,2045
2056,2044,2048,2061,2102,2053,2061,2042
2050,2043,2041,2058,2069,2048,2067,2051
2057,2037,2044,2068,2082,2061,2057,2062
2058,2044,2046,2062,2057,2056,2052,2064
2059,2047,2043,2038,1932,2025,2035,2067
2056,2046,2039,2001,1815,2006,2048,2064
2050,2047,2037,1992,1830,2003,2034,2066
2057,2040,2049,2004,1913,1986,2019,2066
2051,2034,2048,2014,1942,1961,2027,2064
2047,2029,2042,2019,1979,1963,2009,2052
2036,2020,2035,2014,1988,1961,2004,2040
2028,2012,2020,2008,2004,1986,2014,2042
2041,2024,2033,2038,2052,2030,2070,2056
2049,2033,2046,2063,2130,2073,2058,2068
2046,2037,2054,2078,2164,2088,2056,2058
2045,2038,2056,2072,2156,2072,2068,2064
2046,2049,2062,2070,2130,2020,2064,2062
2050,2044,2066,2064,2100,2007,2056,2048
2046,2043,2064,2063,2100,2008,2041,2039
2045,2037,2055,2066,2130,2027,2035,2030
2044,2034,2043,2062,2123,2035,2026,2025
2038,2034,2052,2061,2095,2033,2021,2016
2044,2042,2059,2064,2068,2032,2040,2017
2049,2050,2065,2070,2063,2052,2064,2013
2053,2048,2053,2069,2053,2068,2052,2010
2051,2047,2046,2077,2052,2081,2061,2021
2055,2043,2048,2082,2090,2075,2067,2015
2046,2028,2030,2063,2062,2056,2048,2010
2035,2016,2019,2046,2010,2058,2045,2006
2039,2025,2032,2041,1971,2058,2033,2007
2033,2027,2033,2041,1987,2054,2056,2004
2036,2030,2049,2061,2019,2050,2051,2012
2045,2028,2055,2082,2008,1998,2040,2017
2044,2021,2052,2092,2025,1945,2034,2024
2042,2022,2050,2124,2077,1972,2028,2026
2044,2018,2047,2122,2022,2008,2034,2044
2051,2019,2033,2095,1903,2037,2046,2044
2050,2023,2027,2081,1876,2045,2071,2048
2050,2026,2016,2069,1920,2031,2061,2057
2059,2030,2022,2051,1943,2019,2057,2063
2046,2021,2004,2047,1988,2026,2036,2055
2036,2018,2000,2052,2080,2043,2029,2050
2033,2022,2014,2066,2135,2051,2049,2050
2043,2037,2023,2041,2130,2050,2046,2047
2027,2018,1991,1989,2086,2037,2046,2051
2026,2008,1996,1970,2046,2034,2031,2052
2036,2035,2047,1979,2020,2042,2049,2056
2045,2052,2088,2001,2044,2056,2065,2061
2061,2081,2121,2030,2069,2064,2070,2066
2069,2103,2143,2061,2099,2064,2064,2061
2066,2096,2118,2069,2097,2063,2064,2063
2057,2076,2100,2064,2080,2064,2081,2054
2056,2059,2079,2064,2080,2078,2086,2047
2060,2056,2080,2069,2078,2079,2076,2048
2056,2054,2081,2068,2096,2083,2087,2041
2053,2048,2074,2064,2097,2076,2090,2034
2056,2040,2068,2056,2091,2069,2096,2037
2056,2046,2063,2045,2086,2070,2077,2032
2056,2038,2058,2036,2024,2067,2073,2027
2053,2037,2052,2015,1970,2049,2055,2034
2052,2043,2054,2011,2025,2037,2040,2017
2036,2036,2045,2024,2072,2046,2039,1996
2026,2034,2050,2038,2083,2053,2041,2005
2031,2052,2061,2035,2023,2034,2041,2022
2045,2060,2063,2036,2024,2017,2038,2034
2057,2057,2058,2037,2030,2029,2052,2043
2062,2055,2055,2045,2033,2063,2053,2049
2069,2063,2061,2064,2040,2098,2082,2044
2065,2063,2068,2085,2066,2130,2073,2056
2066,2066,2069,2102,2090,2154,2091,2062
2063,2072,2076,2101,2076,2156,2080,2078
2059,2072,2073,2100,2044,2143,2091,2077
2058,2077,2074,2077,1951,2094,2068,2068
2051,2068,2065,2037,1856,1995,2030,2081
2050,2058,2046,1987,1764,1920,2033,2075
2050,2056,2041,1972,1805,1918,2027,2068
2048,2042,2023,1957,1852,1938,2021,2055
2035,2019,2008,1983,2065,1986,2036,2049
2029,2021,2025,2072,2337,2057,2040,2054
2042,2043,2055,2139,2466,2099,2054,2051
2048,2049,2057,2139,2398,2070,2043,2041
2032,2037,2044,2095,2256,2046,2035,2046
2033,2036,2042,2070,2198,2046,2044,2049
2034,2036,2043,2067,2165,2054,2047,2043
2037,2037,2039,2051,2035,2049,2051,2042
2032,2037,2033,2029,1909,2031,2062,2032
2027,2040,2036,2044,2003,2020,2060,2035
2039,2042,2043,2050,2065,2025,2079,2034
2055,2048,2042,2062,2112,2022,2055,2042
2062,2049,2037,2059,2114,2032,2053,2036
2064,2046,2051,2064,2108,2036,2043,2029
2059,2057,2056,2066,2080,2033,2074,2023
2065,2054,2048,2054,2048,2038,2061,2023
2067,2042,2041,2054,2040,2043,2064,2023
2059,2022,2030,2041,2014,2043,2044,2018
2057,2028,2031,2027,1902,2027,2042,2017
2063,2045,2047,2022,1866,2025,2047,2020
2062,2055,2050,2025,1889,2033,2045,2025
2066,2054,2046,2046,2004,2056,2061,2027
2058,2054,2049,2064,2074,2078,2069,2037
2046,2062,2061,2061,2054,2084,2078,2055
2043,2064,2057,2055,2040,2077,2078,2055
2038,2061,2052,2065,2073,2084,2064,2059
2041,2056,2047,2082,2125,2082,2058,2058
2046,2050,2038,2083,2136,2065,2062,2065
2047,2054,2037,2092,2164,2066,2058,2072
2053,2046,2039,2089,2158,2053,2052,2062
2044,2035,2037,2080,2137,2043,2050,2065
2046,2041,2033,2077,2118,2039,2043,2060
2039,2038,2035,2070,2119,2050,2040,2064
2044,2034,2030,2054,2061,2027,2029,2071
2036,2014,2012,2018,1960,1988,2019,2080
2037,2015,2013,2017,1975,1983,2014,2079
2052,2039,2047,2041,2004,1993,2031,2060
2048,2037,2041,2048,2012,2003,2033,2051
2041,2038,2033,2045,2029,2013,2023,2057
2044,2033,2032,2045,2029,2025,2027,2052
2035,2027,2032,2048,2034,2039,2051,2050
2032,2033,2028,2047,2049,2051,2059,2051
2038,2027,2023,2043,2088,2060,2056,2056
2039,2023,2013,2050,2104,2092,2058,2047
2044,2038,2022,2055,2108,2109,2066,2039
2056,2060,2048,2063,2097,2118,2069,2039
2056,2067,2055,2064,2093,2134,2059,2033
2053,2056,2052,2047,2065,2120,2048,2011
2037,2046,2040,2043,2040,2062,2030,2009
2039,2054,2055,2042,2013,2016,2022,2009
2047,2059,2065,2040,1979,2005,2013,2013
2049,2062,2063,2038,1928,1968,2034,2034
2067,2064,2073,2062,1981,2018,2049,2042
2066,2070,2080,2070,2032,2068,2050,2045
2071,2062,2070,2075,2049,2095,2049,2046
2059,2053,2057,2062,2059,2115,2050,2044
2052,2042,2049,2071,2105,2126,2070,2050
2056,2041,2051,2067,2098,2104,2073,2063
2062,2035,2036,2045,2071,2071,2050,2068
2060,2035,2035,2054,2088,2071,2059,2065
2060,2047,2042,2062,2067,2063,2039,2044
2049,2051,2041,2046,2029,2039,2049,2050
2058,2059,2038,2043,2032,2032,2041,2064
2068,2045,2036,2046,2051,2039,2058,2070
2060,2048,2037,2063,2068,2036,2061,2064
2056,2045,2041,2054,2059,2012,2050,2070
2050,2049,2038,2046,2019,1987,2040,2070
2052,2049,2043,2035,1997,1972,2009,2061
2050,2046,2034,2033,2005,1984,2031,2058
2051,2053,2040,2041,2043,2008,2060,2058
2055,2063,2047,2045,2052,2031,2059,2051
2060,2055,2041,2065,2062,2047,2065,2051
2053,2057,2039,2078,2064,2059,2061,2050
2046,2058,2048,2077,2095,2061,2058,2045
2044,2059,2054,2071,2103,2055,2058,2056
2054,2059,2054,2068,2097,2054,2063,2045
2046,2055,2051,2062,2057,2046,2046,2039
2048,2049,2050,2067,2055,2042,2047,2031
2049,2056,2057,2072,2061,2049,2041,2027
2056,2053,2055,2066,2056,2064,2049,2030
2057,2056,2048,2064,2070,2095,2070,2023
2056,2054,2041,2070,2076,2111,2068,2015
2047,2050,2044,2074,2103,2121,2070,2010
2048,2053,2053,2072,2117,2116,2053,2010
2042,2054,2049,2059,2092,2054,2041,2013
2046,2053,2047,2070,2074,2014,2061,2024
2051,2068,2059,2082,2078,2022,2069,2020
2055,2064,2051,2081,2033,2014,2064,2017
2048,2048,2036,2042,1975,1980,2054,2008
2033,2038,2016,2013,1938,1959,2048,2016
2033,2037,2021,2008,1990,1985,2044,2027
2038,2041,2024,2026,2008,2002,2046,2024
2048,2034,2023,2025,2026,2018,2034,2036
2035,2026,2011,2016,2021,2027,2038,2044
2031,2032,2016,2014,1942,2042,2057,2054
2048,2052,2037,2035,1914,2070,2076,2057
2056,2069,2057,2061,1992,2074,2063,2054
2062,2065,2051,2051,2003,2037,2056,2049
2051,2055,2051,2038,1998,2005,2034,2045
2036,2053,2049,2037,2008,1992,2043,2051
2033,2051,2038,2035,1986,1982,2033,2051
2029,2032,2026,2029,1991,1996,2040,2053
2036,2031,2022,2033,2032,2012,2035,2065
2047,2043,2035,2050,2080,2035,2050,2063
2046,2037,2029,2054,2105,2044,2055,2059
2035,2040,2036,2063,2125,2049,2063,2056
2032,2047,2045,2067,2116,2052,2058,2061
2041,2046,2044,2049,2079,2049,2074,2065
2048,2044,2038,2043,2039,2045,2055,2058
2042,2042,2037,2038,2023,2044,2061,2046
2045,2042,2038,2045,2040,2052,2064,2044
2055,2049,2037,2053,2046,2049,2054,2040
2052,2051,2043,2051,2049,2048,2058,2034
2051,2048,2040,2050,2054,2044,2035,2026
2051,2055,2041,2053,2053,2029,2013,2026
2056,2056,2040,2053,2058,2017,2006,2027
2060,2058,2037,2053,2082,2022,2026,2022
2042,2052,2042,2047,2072,2018,2016,2009
2036,2050,2036,2044,2054,2011,2028,2013
2037,2049,2034,2043,2037,2006,2031,2017
2051,2043,2032,2035,2020,2009,2029,2015
2047,2026,2021,2021,2008,2006,2022,2011
2042,2028,2014,2030,2014,2029,2029,2028
2046,2043,2024,2063,2055,2055,2047,2046
2054,2058,2049,2091,2073,2060,2056,2067
2056,2060,2050,2087,2037,2044,2038,2061
2047,2050,2039,2082,2051,2054,2062,2065
2038,2046,2034,2081,2072,2052,2074,2064
2030,2044,2025,2067,2063,2048,2029,2067
2030,2046,2025,2069,2052,2046,2020,2059
2024,2045,2019,2058,2040,2053,2044,2055
2030,2040,2011,2048,2038,2054,2034,2056
2041,2043,2011,2050,2037,2059,2042,2054
2030,2037,2010,2060,2050,2059,2025,2059
2020,2019,2001,2056,2053,2037,2032,2062
2017,2012,2001,2058,2043,2015,2024,2071
2033,2026,2011,2063,2032,2034,2018,2066
2032,2037,2006,2059,2034,2049,2025,2062
2042,2035,2005,2057,2043,2068,2025,2061
2039,2028,2008,2056,2054,2072,2046,2067
2031,2028,2004,2058,2058,2084,2073,2069
2039,2023,2002,2047,2038,2076,2057,2063
2039,2021,1995,2036,2003,2065,2049,2053
2036,2020,1992,2041,2036,2069,2050,2048
2027,2022,2008,2051,2094,2068,2056,2044
2022,2030,2028,2052,2119,2061,2050,2042
2025,2037,2041,2054,2103,2050,2047,2041
2035,2045,2045,2042,2074,2046,2058,2039
2046,2051,2051,2029,2056,2045,2054,2037
2048,2058,2066,2020,2039,2037,2044,2035
2051,2070,2085,2016,2030,2027,2027,2025
2043,2060,2090,2027,2051,2033,2032,2026
2045,2064,2103,2038,2063,2045,2036,2032
2045,2066,2100,2043,2051,2033,2026,2033
2041,2058,2091,2040,2046,2033,2024,2039
2044,2052,2076,2040,2041,2038,2034,2044
2038,2051,2071,2048,2038,2041,2048,2057
2039,2052,2071,2050,2042,2043,2052,2063
2045,2057,2059,2051,2044,2048,2048,2068
2049,2056,2057,2050,2056,2046,2060,2067
2043,2053,2058,2053,2061,2052,2053,2074
2037,2054,2057,2054,2057,2054,2046,2081
2038,2054,2063,2058,2059,2056,2040,2079
2040,2052,2059,2058,2050,2060,2061,2075
2042,2051,2057,2053,2053,2059,2048,2078
2043,2050,2057,2058,2047,2068,2051,2080
2049,2049,2056,2055,2054,2061,2044,2082
2047,2050,2045,2049,2048,2042,2034,2072
2034,2035,2041,2053,2057,2032,2045,2073
2035,2044,2049,2058,2066,2042,2024,2076
2043,2049,2053,2059,2063,2044,2042,2078
2040,2048,2047,2057,2052,2031,2034,2070
2035,2050,2047,2055,2052,2022,2046,2064
2030,2041,2044,2055,2052,2028,2050,2063
2040,2042,2038,2053,2052,2036,2054,2061
2040,2036,2033,2048,2051,2036,2043,2054
2035,2031,2030,2047,2057,2038,2034,2055
2035,2034,2029,2056,2061,2040,2037,2055
2032,2032,2029,2047,2060,2053,2017,2048
2033,2037,2027,2048,2069,2058,2027,2040
2034,2034,2033,2051,2060,2065,2052,2040
2035,2039,2035,2055,2061,2069,2065,2030
2040,2036,2036,2048,2053,2058,2038,2029
2041,2029,2033,2042,2044,2036,2045,2028
2030,2020,2025,2036,2032,2017,2026,2029
2025,2033,2037,2040,2038,2013,2010,2031
2037,2051,2052,2051,2046,2004,2024,2037
2040,2051,2047,2053,2042,1996,2021,2039
2048,2051,2035,2057,2048,2003,2031,2038
2041,2048,2040,2054,2049,2012,2023,2044
2041,2050,2043,2054,2047,2018,2038,2050
2042,2049,2045,2053,2050,2020,2044,2058
2045,2046,2049,2056,2047,2029,2043,2059
2036,2039,2049,2049,2050,2033,2042,2066
2034,2042,2047,2058,2064,2043,2052,2072
2043,2045,2047,2057,2068,2054,2060,2073
2043,2053,2050,2060,2066,2070,2064,2080
2042,2058,2051,2067,2063,2074,2053,2074
2050,2052,2038,2056,2048,2088,2074,2082
2046,2049,2041,2046,2029,2104,2087,2089
2054,2058,2039,2055,2024,2105,2092,2088
2043,2044,2028,2039,1999,2084,2073,2087
2041,2035,2016,2034,1981,2061,2072,2093
2046,2046,2027,2040,1972,2047,2047,2093
2050,2047,2034,2048,2006,2049,2060,2086
2050,2054,2053,2058,2032,2057,2057,2078
2053,2064,2058,2058,2051,2046,2043,2072
2052,2070,2076,2060,2052,2042,2047,2070
2054,2069,2069,2054,2040,2022,2025,2065
2050,2063,2063,2042,2041,2007,2018,2052
2040,2050,2052,2040,2071,2023,2041,2048
2038,2044,2050,2042,2112,2046,2044,2041
2041,2049,2063,2043,2084,2027,2035,2048
2040,2048,2056,2035,1993,2004,2052,2040
2043,2052,2060,2045,2005,2024,2058,2048
2046,2056,2072,2069,2065,2047,2074,2037
2045,2055,2070,2081,2118,2066,2080,2039
2038,2052,2059,2077,2127,2065,2061,2022
2025,2038,2053,2064,2108,2060,2027,2020
2024,2033,2050,2060,2084,2069,2040,2023
2038,2039,2055,2061,2071,2081,2067,2030
2035,2039,2054,2056,2071,2091,2065,2040
2035,2036,2051,2058,2065,2096,2038,2042
2030,2036,2046,2059,2065,2085,2041,2049
2032,2038,2049,2062,2063,2038,2048,2057
2038,2038,2046,2063,2054,2002,2039,2059
2040,2039,2046,2063,2058,2011,2047,2065
2042,2039,2045,2061,2060,2024,2049,2070
2039,2040,2045,2062,2066,2042,2043,2073
2044,2039,2040,2063,2064,2045,2064,2072
2046,2038,2047,2060,2069,2044,2047,2081
2038,2038,2044,2054,2064,2039,2052,2083
2042,2038,2042,2052,2053,2033,2049,2084
2045,2034,2042,2049,2058,2031,2042,2076
2034,2025,2036,2041,2053,2019,2033,2064
2027,2015,2033,2042,2052,2018,2036,2070
2031,2031,2047,2051,2068,2042,2027,2083
2047,2043,2056,2057,2069,2046,2046,2089
2048,2047,2055,2057,2068,2050,2054,2080
2043,2047,2054,2052,2074,2050,2068,2081
2044,2052,2060,2052,2071,2045,2068,2077
2045,2047,2058,2055,2066,2042,2058,2072
2043,2042,2052,2054,2063,2038,2068,2070
2053,2041,2047,2048,2062,2029,2081,2064
2054,2041,2051,2040,2066,2037,2056,2061
2048,2041,2046,2035,2061,2040,2062,2050
2052,2045,2045,2036,2057,2049,2064,2058
2049,2040,2051,2040,2056,2056,2067,2053
2050,2040,2041,2043,2060,2066,2066,2045
2049,2034,2039,2040,2064,2075,2067,2032
2036,2031,2033,2045,2058,2077,2040,2026
2024,2022,2031,2037,2047,2064,2068,2026
2030,2024,2028,2038,2046,2062,2074,2026
2037,2039,2036,2042,2061,2077,2062,2038
2036,2036,2034,2037,2052,2082,2068,2036
2034,2041,2033,2038,2052,2077,2048,2041
2036,2038,2030,2036,2048,2071,2050,2050
2042,2034,2023,2042,2050,2065,2039,2052
2037,2038,2016,2035,2044,2041,2021,2062
2042,2038,2018,2035,2042,2017,2039,2064
2045,2038,2013,2031,2035,2027,2021,2074
2046,2037,2009,2036,2047,2039,2029,2073
2040,2035,2009,2042,2059,2045,2034,2076
2044,2038,2013,2042,2048,2031,2035,2075
2049,2037,2015,2052,2044,2029,2027,2085
2053,2034,2016,2058,2056,2025,2030,2082
2050,2032,2019,2054,2056,2020,2042,2073
2040,2037,2029,2060,2047,2020,2019,2059
2026,2024,2024,2054,2043,2020,2013,2065
2028,2022,2018,2056,2047,2029,2029,2072
2040,2039,2029,2062,2052,2038,2016,2067
2038,2040,2025,2056,2056,2031,2018,2069
2041,2035,2027,2055,2057,2026,2010,2069
2039,2042,2030,2059,2054,2044,2019,2073
2043,2041,2036,2054,2051,2046,1992,2070
2038,2037,2028,2045,2049,2052,1994,2057
2038,2025,2029,2037,2037,2062,1997,2053
2028,2023,2032,2028,2036,2064,2001,2046
2027,2030,2035,2026,2039,2056,2015,2053
2030,2043,2069,2035,2050,2050,2021,2054
2035,2066,2089,2054,2066,2056,2038,2054
2040,2066,2098,2059,2071,2046,2041,2039
2032,2062,2084,2053,2064,2039,2037,2044
2037,2058,2073,2047,2067,2036,2041,2040
2037,2053,2060,2041,2052,2015,2040,2032
2033,2039,2052,2037,2056,1996,2042,2033
2036,2044,2050,2046,2054,1978,2032,2043
2040,2062,2055,2050,2056,1988,2021,2039
2040,2063,2050,2050,2054,2012,2022,2050
2040,2055,2049,2054,2056,2041,2035,2052
2036,2053,2058,2053,2052,2077,2043,2051
2037,2049,2061,2045,2046,2113,2030,2059
2034,2046,2062,2045,2042,2135,2027,2075
2040,2046,2064,2044,2050,2134,2034,2081
2030,2052,2067,2047,2058,2129,2034,2079
2027,2053,2071,2058,2060,2104,2041,2091
2029,2053,2063,2053,2052,2090,2021,2089
2037,2050,2056,2048,2040,2090,2010,2084
2032,2046,2049,2043,2039,2086,2019,2092
2033,2048,2057,2046,2049,2088,2041,2093
2038,2047,2061,2048,2054,2086,2024,2090
2040,2037,2050,2041,2045,2058,2031,2088
2038,2042,2051,2044,2050,2082,2031,2089
2044,2055,2055,2043,2051,2107,2031,2090
2045,2053,2056,2040,2035,2096,2026,2084
2046,2051,2046,2042,2038,2062,2029,2086
2042,2054,2047,2046,2033,2006,2033,2076
2044,2053,2041,2045,2032,1995,2046,2065
2039,2040,2041,2039,2031,1989,2002,2062
2032,2036,2036,2035,2030,1993,2027,2056
2030,2033,2033,2037,2036,2014,2027,2055
2033,2036,2037,2040,2039,2032,2010,2047
2038,2034,2045,2047,2045,2043,2010,2034
2029,2030,2043,2049,2053,2043,2030,2026
2019,2024,2042,2049,2043,2044,2034,2025
2022,2024,2045,2048,2053,2037,2030,2021
2022,2027,2040,2045,2046,2033,2024,2031
2028,2025,2045,2047,2043,2023,2020,2030
2024,2014,2033,2042,2036,2020,2012,2036
2028,2020,2026,2042,2033,2024,2019,2034
2030,2037,2037,2037,2043,2034,2023,2038
2039,2039,2037,2045,2046,2039,2019,2049
2038,2046,2041,2048,2056,2054,2040,2051
2037,2049,2040,2052,2056,2044,2037,2057
2039,2045,2046,2057,2050,2044,2037,2062
2043,2046,2047,2053,2046,2038,2036,2075
2035,2042,2043,2052,2049,2040,2034,2074
2038,2041,2040,2044,2052,2044,2052,2075
2035,2043,2052,2036,2052,2060,2040,2080
2036,2049,2051,2038,2054,2074,2033,2089
2042,2050,2057,2042,2058,2077,2041,2093
2044,2054,2057,2041,2059,2071,2040,2088
2050,2051,2059,2050,2061,2060,2028,2097
2043,2043,2056,2039,2052,2028,2037,2097
2043,2037,2044,2034,2044,2013,2034,2088
2028,2024,2035,2030,2033,2008,2023,2084
2029,2025,2031,2029,2016,2040,2030,2090
2042,2036,2033,2041,2034,2103,2041,2092
2044,2036,2036,2042,2043,2128,2034,2088
2042,2035,2036,2043,2048,2128,2039,2090
2039,2034,2042,2040,2044,2073,2040,2071
2044,2033,2039,2039,2042,1964,2016,2061
2032,2038,2035,2040,2046,1923,2022,2053
2031,2037,2032,2045,2055,1966,2023,2042
2026,2030,2029,2043,2046,2030,2037,2036
2025,2031,2035,2036,2041,2073,2017,2032
2027,2030,2038,2040,2038,2063,2044,2024
2026,2033,2038,2035,2039,2045,2026,2017
2021,2032,2042,2041,2040,2037,2029,2010
2021,2036,2042,2039,2041,2035,2041,2012
2026,2035,2047,2040,2041,2047,2062,2024
2027,2030,2042,2029,2032,2043,2042,2016
2018,2022,2039,2032,2031,2038,2041,2011
2027,2032,2050,2042,2037,2045,2037,2020
2030,2043,2059,2041,2040,2053,2036,2030
2038,2047,2050,2043,2044,2069,2020,2039
2033,2048,2045,2037,2042,2077,2065,2046
2036,2044,2049,2042,2030,2058,2042,2046
2035,2045,2046,2030,2031,2046,2049,2049
2032,2047,2049,2035,2032,2038,2032,2056
2042,2045,2058,2045,2043,2036,2037,2065
2041,2054,2069,2052,2041,2043,2026,2070
2044,2054,2063,2053,2053,2051,2064,2077
2042,2057,2070,2053,2054,2060,2063,2072
2045,2056,2080,2056,2053,2066,2061,2072
2047,2056,2078,2057,2049,2060,2062,2074
2046,2059,2069,2047,2046,2062,2062,2076
2043,2050,2063,2047,2046,2067,2051,2072
2040,2039,2052,2038,2044,2061,2062,2074
2031,2034,2051,2039,2041,2063,2061,2076
2035,2044,2058,2049,2051,2066,2070,2071
2038,2048,2056,2047,2051,2072,2063,2077
2043,2054,2060,2046,2054,2068,2065,2079
2039,2056,2060,2050,2055,2060,2058,2060
2044,2054,2064,2048,2042,2044,2042,2071
2048,2050,2063,2052,2046,2026,2056,2062
2047,2053,2063,2051,2043,2021,2057,2057
2042,2047,2055,2045,2044,2032,2055,2055
2040,2049,2049,2041,2045,2050,2051,2043
2040,2041,2035,2038,2047,2071,2040,2034
2038,2039,2029,2037,2050,2074,2059,2034
2035,2035,2034,2042,2049,2074,2061,2026
2036,2038,2030,2042,2054,2072,2062,2019
2035,2038,2038,2046,2056,2067,2060,2011
2033,2039,2035,2045,2045,2053,2042,2006
2029,2026,2018,2037,2035,2016,2024,2007
2022,2018,2019,2035,2026,2002,2024,2006
2026,2033,2029,2030,2013,2001,2024,2017
2036,2037,2035,2033,2005,2016,2039,2018
2038,2043,2037,2028,2009,2032,2052,2026
2038,2039,2024,2015,2003,2052,2058,2025
2036,2031,2027,2014,2020,2059,2070,2048
2044,2042,2041,2033,2032,2074,2079,2055
2050,2050,2051,2042,2046,2051,2078,2066
2062,2051,2056,2056,2064,2026,2078,2074
2056,2054,2047,2062,2078,2035,2078,2062
2047,2054,2052,2062,2057,2039,2082,2060
2044,2047,2058,2063,2042,2028,2061,2062
2040,2039,2048,2057,2037,2022,2053,2055
2040,2034,2038,2057,2039,2022,2052,2059
2035,2039,2047,2070,2050,2029,2065,2060
2043,2042,2045,2065,2056,2027,2058,2054
2035,2039,2040,2070,2062,2031,2054,2056
2033,2052,2053,2085,2077,2040,2057,2053
2042,2065,2051,2082,2074,2032,2046,2056
2032,2057,2043,2078,2067,2039,2057,2050
2031,2047,2034,2080,2081,2058,2057,2046
2034,2042,2032,2078,2074,2076,2074,2039
2027,2036,2029,2060,2059,2086,2072,2030
2026,2034,2032,2044,2037,2070,2065,2034
2027,2044,2045,2033,2026,2034,2073,2040
2032,2054,2062,2028,2017,2032,2063,2034
2032,2060,2077,2005,2007,2032,2060,2016
2031,2057,2084,1994,1994,2038,2063,2010
2032,2061,2090,2000,2023,2057,2064,2009
2040,2065,2089,2010,2049,2066,2064,2002
2040,2060,2089,2013,2052,2061,2081,2000
2043,2062,2091,2018,2048,2050,2068,2000
2037,2052,2083,2011,2030,2041,2051,1997
2031,2043,2065,2006,2012,2041,2046,1996
2034,2051,2068,2018,2015,2056,2045,2004
2044,2053,2060,2026,2030,2056,2055,2005
2041,2059,2058,2028,2029,2055,2033,2016
2033,2061,2060,2028,2027,2050,2052,2012
2033,2059,2058,2026,2036,2044,2048,2019
2032,2054,2052,2028,2040,2045,2050,2030
2032,2057,2058,2032,2051,2051,2042,2035
2040,2058,2058,2038,2051,2053,2033,2037
2038,2056,2061,2037,2055,2060,2062,2036
2033,2051,2054,2041,2046,2062,2067,2043
2032,2055,2056,2038,2049,2071,2068,2043
2035,2053,2053,2034,2048,2068,2060,2051
2042,2055,2055,2038,2056,2065,2066,2047
2040,2048,2056,2033,2046,2059,2047,2041
2041,2046,2054,2038,2041,2050,2031,2046
2030,2036,2042,2027,2040,2045,2032,2042
2032,2036,2038,2030,2044,2053,2019,2051
2037,2046,2052,2045,2049,2061,2010,2043
2036,2050,2055,2039,2050,2055,2043,2046
2036,2051,2060,2037,2052,2042,2053,2039
2037,2055,2056,2039,2047,2035,2056,2037
2038,2058,2061,2044,2057,2042,2054,2029
2045,2058,2066,2049,2050,2044,2056,2031
2046,2069,2060,2046,2034,2037,2058,2030
2048,2062,2065,2035,2026,2027,2062,2025
2051,2057,2067,2037,2018,2022,2068,2020
2045,2058,2062,2033,2014,2015,2064,2017
2050,2060,2065,2036,2011,2022,2049,2006
2044,2059,2063,2031,2015,2025,2050,2001
2042,2052,2058,2039,2016,2026,2060,1994
2039,2049,2058,2037,2022,2017,2060,1994
2042,2052,2059,2035,2024,2019,2042,1992
2040,2042,2046,2030,2028,2040,2035,1986
2031,2045,2050,2031,2039,2058,2034,2001
2037,2048,2053,2035,2049,2075,2030,1998
2041,2052,2054,2043,2053,2074,2048,2000
2038,2058,2052,2040,2043,2062,2055,1994
2039,2054,2055,2036,2038,2057,2053,2005
2035,2054,2048,2039,2035,2061,2052,2012
2047,2048,2042,2039,2034,2058,2046,2025
2047,2052,2047,2036,2026,2053,2046,2028
2049,2049,2047,2035,2002,2045,2042,2027
2042,2048,2043,2041,2024,2046,2038,2027
2037,2042,2041,2041,2048,2055,2038,2027
2041,2040,2040,2046,2051,2060,2048,2029
2041,2046,2044,2045,2058,2060,2044,2033
2045,2039,2047,2047,2057,2068,2061,2036
2043,2038,2043,2042,2042,2082,2056,2041
2039,2030,2043,2039,2042,2079,2058,2029
2037,2025,2045,2045,2042,2078,2056,2035
2038,2034,2054,2039,2037,2060,2042,2035
2032,2040,2054,2032,2029,2037,2038,2018
2036,2034,2069,2040,2063,2035,2035,2015
2035,2036,2062,2045,2074,2014,2041,2009
2033,2035,2052,2049,2068,2025,2052,2012
2035,2030,2051,2044,2060,2050,2065,2005
2036,2031,2050,2038,2022,2053,2057,1997
2033,2033,2050,2025,2004,2046,2057,1982
2034,2026,2051,2025,1983,2031,2049,1977
2032,2026,2047,2024,1972,2014,2044,1980
2039,2030,2043,2022,1971,1979,2042,1987
2041,2034,2050,2030,1996,1974,2047,1979
2052,2033,2041,2035,2021,1996,2049,1967
2033,2021,2030,2023,2032,2031,2040,1955
2024,2021,2021,2021,2045,2061,2054,1953
2015,2020,2028,2031,2061,2062,2052,1966
2032,2024,2028,2034,2087,2056,2077,1989
2039,2046,2037,2044,2113,2081,2081,1999
2045,2057,2044,2047,2101,2090,2074,2007
2052,2057,2050,2049,2082,2090,2086,2007
2055,2062,2051,2051,2073,2079,2082,2012
2057,2064,2059,2050,2053,2074,2072,2009
2055,2058,2053,2046,2045,2072,2045,2005
2052,2049,2055,2049,2052,2080,2035,2006
2037,2040,2046,2039,2042,2100,2032,2015
2033,2041,2040,2032,2037,2099,2045,2027
2038,2037,2042,2038,2039,2079,2047,2023
2043,2039,2037,2033,2044,2073,2060,2022
2046,2040,2039,2035,2034,2024,2052,2016
2030,2036,2040,2041,2032,1972,2036,2020
2033,2043,2044,2043,2035,1961,2047,2022
2029,2047,2046,2042,2023,1975,2050,2016
2025,2033,2047,2041,2028,2010,2041,2011
2022,2027,2045,2043,2013,2056,2052,2012
2037,2036,2047,2042,2001,2074,2056,2016
2032,2029,2040,2043,1994,2081,2045,2023
2037,2032,2040,2041,1999,2070,2052,2019
2038,2036,2043,2044,1996,2043,2046,2021
2048,2039,2054,2053,2026,2019,2059,2019
2050,2051,2065,2064,2067,2023,2055,2025
2055,2052,2071,2070,2075,2018,2052,2017
2050,2049,2067,2072,2072,2033,2062,2018
2053,2052,2064,2062,2060,2034,2055,2003
2046,2049,2060,2061,2059,2033,2038,1997
2040,2049,2064,2065,2052,2025,2036,1991
2037,2047,2062,2057,2055,2036,2054,1982
2040,2050,2068,2056,2047,2038,2057,1974
2042,2046,2064,2050,2044,2036,2035,1974
2042,2045,2057,2042,2028,2033,2039,1969
2032,2037,2046,2031,2017,2042,2041,1969
2039,2045,2058,2045,2023,2084,2037,1980
2044,2060,2074,2058,2025,2140,2055,1974
2049,2063,2082,2062,2027,2171,2042,1975
2054,2054,2080,2070,2027,2141,2026,1989
2050,2059,2081,2068,2029,2041,2030,1992
2047,2053,2079,2061,2024,1991,2048,1997
2044,2052,2075,2053,2024,2018,2052,2007
2049,2051,2070,2055,2025,2041,2058,2005
2055,2051,2052,2056,2024,2052,2046,2015
2049,2048,2045,2054,2027,2053,2041,2013
2047,2040,2038,2050,2018,2052,2047,2020
2045,2038,2029,2046,2024,2035,2031,2024
2043,2031,2026,2046,2024,2020,2036,2024
2040,2030,2023,2053,2028,2026,2049,2026
2047,2035,2022,2056,2038,2035,2039,2028
2051,2024,2013,2045,2024,2040,2052,2025
2050,2016,2010,2049,2019,2043,2064,2031
2053,2033,2013,2048,2023,2040,2052,2028
2049,2032,2016,2045,2020,2031,2062,2019
2046,2036,2022,2052,2019,2023,2065,2009
2051,2044,2038,2056,2017,2014,2066,2008
2049,2042,2038,2049,2014,2021,2064,1998
2041,2042,2028,2039,2018,2037,2049,1995
2046,2039,2028,2036,2017,2042,2037,1992
2043,2041,2038,2034,2019,2041,2034,1985
2038,2043,2038,2030,2020,2040,2025,1983
2043,2055,2049,2024,2025,2032,2023,1983
2050,2058,2050,2022,2030,2025,2022,1977
2052,2058,2049,2017,2032,2010,2013,1962
2047,2045,2029,2010,2024,1996,1986,1951
2037,2042,2014,2001,2014,2004,1989,1953
2038,2043,2028,2001,2011,2021,1995,1953
2040,2038,2044,2012,2016,2047,2012,1946
2039,2039,2054,2013,2017,2049,2030,1955
2050,2047,2062,2030,2014,2049,2030,1964
2053,2049,2061,2033,2013,2034,2018,1976
2055,2051,2064,2029,2012,2024,2019,1980
2050,2058,2069,2036,2016,2032,2034,1990
2053,2058,2072,2046,2020,2049,2035,2000
2049,2057,2064,2046,2013,2052,2033,1998
2044,2044,2050,2039,2015,2046,2025,1990
2033,2031,2041,2032,2007,2041,2019,1987
2028,2023,2043,2028,2016,2033,2017,1988
2033,2029,2045,2040,2023,2038,2021,1992
2035,2041,2058,2043,2021,2045,2022,1999
2041,2053,2076,2051,2026,2053,2031,2008
2043,2060,2077,2057,2024,2050,2029,1999
