CH1,CH2,CH3,CH4,CH5,CH6,CH7,CH8
2056,2052,2057,2044,2113,2045,2067,2067
2064,2067,2068,2067,2131,2038,2068,2059
2072,2066,2066,2055,2121,2021,2038,2048
2068,2061,2052,2040,2095,2012,2033,2039
2061,2056,2042,2038,2122,2039,2046,2036
2054,2048,2028,2043,2170,2075,2045,2021
2043,2041,2022,2034,2163,2092,2037,2025
2046,2032,2012,2028,2122,2112,2038,2022
2040,2014,1995,2008,2032,2097,2038,2022
2045,2018,1993,2008,2002,2088,2030,2019
2053,2020,1996,2012,2012,2074,2025,2010
2048,2025,2008,2023,2006,2074,2024,2012
2052,2035,2035,2055,2021,2092,2058,2025
2046,2035,2045,2058,2046,2089,2060,2031
2041,2031,2043,2050,2032,2073,2060,2032
2048,2024,2034,2037,1993,2034,2049,2036
2038,2021,2025,2032,1994,2017,2050,2034
2039,2019,2018,2049,2045,2050,2057,2042
2044,2033,2027,2063,2112,2077,2055,2041
2049,2032,2039,2070,2141,2094,2060,2044
2048,2033,2042,2067,2161,2098,2050,2059
2056,2037,2030,2062,2124,2095,2054,2063
2059,2047,2028,2061,2100,2088,2063,2061
2057,2036,2035,2054,2089,2080,2066,2054
2033,2025,2019,2050,2067,2050,2053,2052
2026,2016,2007,2032,1995,2024,2051,2058
2030,2013,2007,2020,1980,2022,2041,2068
2040,2032,2034,2033,1993,2030,2043,2074
2049,2051,2049,2038,1995,2024,2056,2075
2050,2043,2048,2044,2051,2022,2041,2070
2041,2040,2041,2033,2097,2035,2034,2053
2039,2028,2034,2020,2012,2041,2041,2052
2037,2037,2049,2021,2004,2049,2053,2054
2049,2060,2092,2048,2028,2068,2061,2049
2064,2075,2120,2073,2023,2065,2068,2043
2065,2072,2119,2078,2020,2056,2060,2035
2067,2072,2110,2069,2010,2050,2044,2037
2071,2075,2099,2065,2013,2052,2059,2039
2057,2069,2084,2066,2028,2056,2061,2032
2048,2059,2076,2062,2042,2054,2040,2026
2049,2061,2068,2060,2049,2049,2052,2027
2045,2055,2062,2050,2052,2050,2056,2024
2046,2053,2050,2034,2041,2040,2040,2018
2042,2043,2039,2022,2045,2031,2043,2018
2050,2051,2050,2035,2034,2031,2055,2030
2062,2061,2062,2032,2021,2033,2048,2033
2054,2060,2053,2023,2020,2051,2054,2031
2048,2059,2052,2032,2048,2062,2059,2036
2060,2065,2057,2047,2063,2064,2054,2043
2069,2060,2058,2050,2060,2057,2046,2043
2060,2055,2055,2042,2039,2077,2033,2041
2053,2048,2056,2032,2018,2085,2032,2040
2052,2043,2053,2032,2010,2090,2052,2045
2053,2046,2057,2036,2017,2088,2040,2050
2048,2045,2052,2032,2012,2056,2047,2065
2059,2048,2053,2044,2057,1998,2056,2084
2066,2046,2047,2059,2098,2017,2050,2090
2062,2042,2044,2059,2081,2021,2044,2085
2059,2044,2057,2055,2045,2023,2035,2077
2049,2041,2050,2055,2026,2036,2039,2065
2038,2036,2050,2072,2076,2063,2062,2058
2054,2033,2035,2076,2107,2072,2039,2066
2041,2028,2024,2069,2077,2061,2042,2065
2036,2021,2037,2068,2058,2056,2019,2060
2030,2029,2042,2080,2045,2057,2046,2054
2034,2033,2034,2081,2040,2072,2052,2055
2043,2037,2040,2066,2043,2074,2029,2045
2041,2039,2028,2076,2047,2076,2064,2045
2049,2040,2014,2088,2058,2055,2043,2034
2037,2037,1993,2091,2066,2023,2031,2035
2050,2030,1976,2083,2059,2024,2023,2040
2057,2033,1968,2068,2050,2034,2043,2029
2040,2032,1971,2068,2059,2053,2044,2020
2034,2018,1964,2044,2048,2076,2044,2014
2029,2004,1958,2017,2027,2088,2029,2006
2026,1996,1971,2008,1991,2089,2039,2002
2031,2020,2010,2017,1953,2090,2033,2020
2042,2038,2029,2009,1940,2067,2027,2021
2042,2039,2034,1999,1925,2021,2037,2023
2044,2044,2060,2014,1972,1978,2038,2036
2050,2056,2080,2034,2020,1982,2041,2042
2054,2056,2087,2046,2062,2019,2055,2038
2055,2057,2106,2070,2103,2049,2057,2054
2051,2073,2117,2079,2113,2064,2058,2050
2052,2082,2139,2089,2163,2090,2079,2064
2054,2093,2151,2110,2182,2093,2078,2071
2066,2102,2153,2116,2176,2097,2088,2081
2072,2100,2144,2100,2132,2095,2077,2092
2074,2095,2139,2077,2090,2081,2071,2092
2065,2080,2124,2089,2077,2086,2058,2080
2061,2080,2113,2081,2074,2099,2047,2079
2042,2059,2082,2076,2092,2099,2061,2075
2039,2045,2057,2072,2096,2094,2073,2078
2048,2047,2055,2066,2014,2065,2064,2083
2055,2048,2056,2062,1949,2012,2051,2086
2058,2053,2055,2056,2013,1995,2053,2081
2061,2056,2052,2064,2054,2026,2058,2069
2055,2056,2053,2060,2051,2065,2065,2042
2056,2046,2053,2054,2039,2083,2055,2023
2047,2034,2037,2031,2000,2064,2039,2020
2037,2031,2015,1997,1922,2048,2045,2019
2039,2049,2039,2002,1927,2040,2051,2031
2052,2068,2060,2014,1951,1990,2042,2041
2049,2067,2076,2004,1967,1997,2040,2034
2054,2063,2061,1991,1969,2039,2034,2019
2047,2053,2056,1988,1961,2064,2031,2021
2053,2060,2065,2015,1955,2077,2039,2020
2045,2039,2056,2006,1953,2066,2034,2013
2037,2029,2043,1993,1997,2064,2039,2026
2042,2039,2053,2015,2065,2049,2032,2022
2052,2047,2064,2011,2076,2055,2056,2019
2049,2050,2051,1996,2067,2034,2031,2019
2040,2034,2043,2000,2014,1988,2031,2029
2048,2036,2044,2027,2019,1989,2050,2044
2047,2049,2053,2063,2071,2014,2070,2060
2056,2062,2057,2074,2101,2045,2064,2064
2058,2055,2036,2066,2109,2058,2061,2057
2051,2046,2006,2059,2080,2062,2067,2052
2058,2038,1974,2045,2062,2043,2057,2061
2044,2025,1963,2032,2052,2036,2054,2073
2046,2022,1956,2031,2052,2022,2045,2078
2041,2018,1968,2048,2074,2022,2044,2076
2046,2031,1972,2062,2100,2034,2034,2080
2038,2024,1966,2046,2092,2048,2016,2073
2035,2029,1966,2034,2094,2057,2036,2067
2054,2036,1975,2031,2076,2062,2045,2054
2047,2036,1982,2035,2065,2063,2032,2042
2035,2038,2003,2037,2054,2058,2029,2038
2039,2054,2031,2038,2042,2041,2025,2051
2036,2054,2047,2034,2033,2016,2027,2042
2039,2059,2071,2044,2051,2008,2021,2043
2050,2066,2091,2052,2082,2020,2022,2046
2057,2083,2102,2055,2091,2040,2030,2042
2057,2072,2094,2044,2084,2051,2041,2046
2053,2061,2088,2035,2079,2060,2040,2035
2049,2054,2092,2024,2057,2056,2043,2032
2048,2061,2092,2025,2047,2048,2019,2031
2056,2070,2101,2032,2043,2039,2046,2039
2063,2072,2106,2038,2029,2030,2050,2034
2051,2056,2090,2028,2023,2026,2031,2019
2032,2037,2065,2023,2017,2018,2005,2019
2031,2046,2071,2041,2020,2013,2024,2022
2037,2047,2069,2052,2017,2011,2015,2029
2046,2045,2068,2051,2017,2012,2044,2036
2049,2044,2061,2042,2024,2030,2041,2033
2040,2046,2060,2061,2068,2052,2044,2042
2047,2050,2075,2091,2108,2071,2060,2046
2049,2055,2082,2115,2115,2062,2061,2054
2044,2061,2089,2116,2111,2073,2055,2065
2041,2056,2078,2098,2103,2066,2057,2068
2042,2054,2052,2080,2076,2053,2060,2060
2044,2043,2038,2060,2080,2049,2048,2070
2048,2052,2030,2062,2111,2047,2050,2073
2048,2054,2037,2056,2125,2058,2050,2078
2053,2060,2033,2059,2122,2056,2061,2073
2046,2053,2018,2054,2103,2041,2037,2077
2044,2054,2018,2048,2093,2043,2044,2084
2057,2068,2035,2056,2084,2045,2043,2088
2058,2065,2037,2041,2077,2043,2046,2082
2053,2061,2026,2008,1951,2029,2032,2069
2047,2049,2010,1970,1836,2030,2037,2059
2051,2040,2009,1964,1922,2035,2021,2049
2042,2042,2014,1971,1973,2035,2018,2045
2039,2047,2042,1990,2008,2036,2030,2040
2042,2049,2049,2004,2021,2037,2046,2034
2053,2059,2061,2021,2012,2036,2047,2033
2049,2051,2051,2043,2015,2033,2037,2028
2037,2035,2045,2064,2017,2033,2022,2028
2038,2042,2050,2086,2043,2043,2020,2023
2043,2050,2051,2097,2081,2050,2039,2029
2060,2064,2063,2079,2099,2051,2032,2030
2057,2052,2050,2042,2093,2053,2026,2019
2049,2037,2041,2034,2097,2062,2028,2016
2058,2053,2052,2051,2080,2066,2068,2035
2071,2057,2059,2066,2073,2065,2071,2039
2064,2056,2057,2065,2062,2062,2056,2046
2059,2047,2036,2065,2052,2057,2049,2047
2053,2042,2028,2072,2101,2053,2052,2037
2046,2038,2036,2078,2145,2059,2062,2028
2055,2047,2043,2070,2146,2067,2059,2046
2063,2060,2061,2058,2143,2072,2056,2049
2062,2059,2070,2052,2122,2062,2061,2046
2057,2064,2074,2038,2108,2057,2057,2043
2046,2058,2065,2033,2097,2066,2055,2044
2042,2043,2054,2029,2052,2070,2048,2042
2033,2032,2027,2012,1931,2045,2047,2046
2041,2034,2020,1983,1865,2054,2040,2058
2042,2034,2003,1969,1873,2077,2039,2061
2035,2022,1995,1978,1880,2038,2022,2065
2034,2024,1994,1981,1871,2019,2009,2065
2051,2027,2000,1989,1899,1984,2013,2048
2058,2041,2031,2036,1973,1938,2018,2053
2065,2056,2068,2081,2092,1986,2038,2049
2060,2063,2083,2106,2155,2042,2059,2044
2054,2061,2085,2097,2144,2065,2068,2038
2054,2060,2091,2088,2131,2068,2063,2045
2041,2058,2090,2089,2110,2071,2060,2036
2038,2061,2078,2070,2087,2079,2057,2025
2035,2049,2068,2047,2054,2076,2056,2019
2039,2047,2056,2040,2032,2076,2047,2017
2036,2044,2050,2029,2029,2069,2052,2010
2037,2031,2047,2042,2057,2036,2060,2012
2041,2031,2058,2053,2082,2021,2034,2013
2037,2033,2077,2057,2071,2018,2028,2010
2034,2043,2084,2051,2065,2036,2027,2002
2050,2052,2096,2060,2061,2051,2046,2011
2054,2068,2093,2061,2014,2042,2040,2019
2054,2061,2082,2062,2005,2020,2051,2019
2053,2063,2078,2066,2032,2030,2043,2024
2056,2071,2086,2080,2047,2038,2061,2039
2056,2075,2076,2082,2055,2045,2059,2038
2046,2063,2056,2073,2056,2046,2062,2050
2053,2066,2055,2073,2067,2054,2064,2054
2066,2066,2048,2061,2071,2064,2067,2064
2064,2050,2032,2029,2058,2049,2066,2055
2061,2045,2037,2032,2112,2047,2061,2058
2058,2030,2038,2034,2099,2035,2061,2061
2042,2024,2046,2035,2076,2038,2045,2057
2046,2039,2050,2038,2045,2038,2041,2064
2053,2041,2051,2045,2038,2037,2040,2066
2050,2035,2057,2063,2040,2035,2030,2068
2037,2040,2058,2067,2036,2040,2046,2067
2030,2046,2054,2069,2044,2057,2047,2067
2034,2045,2048,2057,2048,2071,2057,2064
2046,2043,2036,2055,2054,2086,2083,2063
2050,2037,2023,2050,2055,2084,2069,2048
2039,2035,2010,2046,2061,2073,2066,2031
2031,2033,2000,2044,2063,2078,2039,2026
2036,2034,1995,2027,2062,2056,2042,2019
2044,2040,1992,2008,2048,2020,2036,2020
2048,2046,1998,2002,2042,2013,2030,2021
2056,2045,2003,2007,2037,2028,2037,2015
2037,2044,2024,2018,2051,2044,2043,2015
2042,2052,2039,2028,2057,2056,2068,2031
2050,2054,2050,2027,2048,2058,2067,2033
2052,2056,2051,2032,2040,2048,2047,2022
2043,2046,2059,2027,2040,2044,2055,2019
2044,2050,2071,2042,2044,2046,2049,2025
2058,2065,2077,2053,2048,2053,2058,2030
2057,2067,2077,2058,2058,2054,2053,2036
2059,2065,2064,2052,2057,2058,2065,2043
2058,2061,2051,2050,2061,2053,2060,2043
2052,2054,2036,2046,2054,2052,2047,2043
2045,2052,2023,2052,2057,2044,2057,2046
2044,2046,2021,2052,2052,2043,2052,2042
2046,2046,2024,2040,2052,2041,2043,2049
2047,2058,2039,2043,2056,2043,2047,2060
2052,2060,2050,2051,2069,2046,2058,2063
2049,2056,2051,2050,2073,2050,2068,2071
2047,2044,2040,2041,2066,2048,2052,2073
2049,2041,2038,2040,2059,2048,2047,2075
2047,2039,2039,2042,2061,2038,2031,2072
2036,2032,2040,2040,2041,2038,2019,2065
2040,2036,2047,2046,2050,2042,2022,2073
2049,2050,2057,2057,2049,2043,2028,2072
2055,2046,2056,2073,2055,2045,2023,2067
2059,2041,2042,2086,2058,2048,2051,2059
2057,2038,2034,2094,2054,2045,2062,2059
2057,2038,2028,2088,2051,2046,2067,2047
2043,2031,2027,2066,2037,2041,2067,2044
2054,2032,2026,2051,2032,2042,2055,2032
2058,2030,2031,2039,2030,2046,2049,2045
2072,2038,2059,2047,2040,2047,2050,2038
2081,2058,2076,2058,2048,2049,2044,2041
2084,2062,2074,2065,2050,2045,2056,2031
2066,2053,2067,2058,2052,2043,2049,2014
2061,2053,2055,2053,2065,2050,2048,2006
2050,2056,2052,2045,2058,2046,2041,1998
2032,2037,2030,2031,2052,2034,2044,1998
2019,2034,2002,2011,2043,2042,2032,2016
2034,2042,2005,2002,2042,2043,2041,2018
2038,2053,2029,2014,2043,2038,2054,2024
2045,2053,2037,2030,2039,2038,2045,2029
2048,2056,2051,2042,2042,2040,2044,2033
2047,2062,2060,2056,2048,2040,2051,2030
2056,2059,2054,2052,2046,2035,2048,2033
2044,2052,2053,2060,2042,2025,2038,2041
2045,2049,2052,2059,2045,2036,2053,2049
2048,2043,2053,2046,2043,2041,2053,2067
2050,2040,2064,2058,2053,2043,2055,2066
2043,2052,2092,2069,2061,2052,2055,2079
2049,2056,2099,2067,2065,2047,2034,2074
2047,2057,2102,2067,2063,2048,2030,2076
2057,2071,2098,2054,2062,2047,2043,2077
2052,2060,2090,2037,2042,2037,2030,2079
2050,2059,2082,2011,2037,2040,2055,2084
2070,2071,2096,2010,2041,2044,2057,2087
2075,2074,2090,2012,2043,2043,2054,2085
2069,2069,2078,2007,2041,2046,2055,2070
2065,2066,2063,2007,2045,2045,2053,2054
2059,2058,2061,2039,2051,2052,2049,2038
2044,2059,2061,2073,2053,2049,2048,2041
2050,2065,2057,2087,2064,2056,2045,2043
2054,2065,2061,2096,2070,2056,2050,2046
2053,2056,2057,2091,2068,2059,2063,2038
2052,2054,2043,2077,2067,2051,2041,2039
2047,2048,2044,2065,2056,2048,2042,2035
2054,2053,2049,2059,2058,2049,2049,2034
2059,2059,2061,2055,2063,2054,2053,2030
2061,2063,2061,2042,2065,2052,2059,2026
2048,2047,2053,2032,2058,2046,2043,2025
2053,2044,2056,2022,2052,2045,2056,2030
2065,2057,2069,2029,2057,2055,2069,2025
2058,2059,2066,2024,2060,2049,2093,2031
2061,2056,2075,2028,2059,2053,2078,2036
2057,2060,2075,2034,2055,2055,2063,2033
2051,2057,2069,2036,2055,2056,2068,2036
2054,2061,2064,2033,2057,2055,2044,2046
2053,2058,2064,2035,2049,2055,2069,2040
2056,2049,2056,2028,2059,2057,2077,2045
2052,2045,2051,2029,2063,2062,2057,2054
2057,2049,2050,2028,2066,2059,2060,2064
2056,2040,2046,2030,2060,2056,2056,2069
2058,2037,2042,2028,2056,2054,2065,2069
2050,2030,2042,2037,2052,2050,2045,2077
2044,2034,2040,2044,2047,2051,2055,2074
2047,2029,2028,2040,2042,2041,2023,2063
2035,2024,2015,2046,2031,2030,2024,2058
2033,2020,2016,2062,2031,2035,2042,2058
2036,2021,2017,2069,2037,2040,2055,2063
2036,2024,2019,2067,2042,2041,2029,2066
2032,2027,2018,2061,2047,2036,2037,2059
2035,2040,2032,2066,2047,2025,2031,2059
2042,2038,2027,2068,2046,2025,2055,2058
2045,2025,2001,2059,2039,2030,2041,2046
2045,2013,1988,2041,2033,2026,2039,2029
2052,2016,2010,2050,2045,2033,2027,2032
2058,2031,2031,2058,2053,2037,2048,2031
2049,2039,2045,2045,2052,2040,2034,2024
2052,2044,2051,2034,2050,2040,2056,2031
2055,2046,2057,2029,2051,2041,2026,2030
2058,2053,2054,2035,2046,2040,2052,2025
2046,2045,2045,2029,2040,2042,2067,2022
2031,2022,2019,2021,2030,2037,2062,2030
2038,2035,2021,2031,2047,2037,2053,2030
2053,2050,2043,2046,2049,2042,2058,2033
2057,2062,2060,2051,2052,2049,2068,2036
2057,2062,2060,2050,2052,2047,2068,2037
2057,2055,2072,2058,2047,2051,2076,2039
2053,2057,2079,2071,2050,2052,2053,2044
2054,2064,2088,2080,2060,2055,2061,2047
2062,2064,2094,2092,2064,2058,2058,2060
2061,2059,2085,2101,2063,2055,2061,2061
2065,2062,2072,2095,2070,2056,2061,2064
2058,2062,2075,2108,2077,2065,2058,2056
2053,2055,2071,2101,2081,2070,2059,2068
2053,2058,2066,2096,2092,2067,2060,2072
2046,2052,2066,2090,2082,2064,2056,2075
2047,2052,2058,2081,2072,2042,2048,2063
2038,2030,2046,2070,2059,2025,2034,2064
2039,2026,2042,2059,2047,2023,2039,2068
2046,2041,2052,2061,2049,2020,2037,2071
2047,2039,2048,2052,2044,2019,2029,2062
2048,2036,2048,2042,2039,2023,2018,2054
2045,2044,2049,2037,2036,2019,2017,2041
2044,2049,2052,2034,2031,2015,2013,2037
2055,2054,2057,2035,2033,2023,2022,2042
2049,2054,2049,2037,2043,2037,2039,2036
2050,2054,2036,2033,2032,2060,2038,2030
2045,2047,2035,2036,2028,2067,2030,2025
2043,2046,2041,2029,2021,2069,2039,2017
2046,2040,2034,2021,2021,2061,2033,2013
2040,2045,2042,2042,2030,2030,2041,2031
2051,2067,2054,2060,2062,1991,2037,2039
2062,2069,2063,2069,2064,2005,2047,2036
2058,2065,2057,2059,2047,2021,2052,2036
2051,2062,2052,2056,2031,2026,2049,2037
2055,2064,2056,2067,2027,2033,2058,2039
2059,2052,2048,2058,2024,2042,2046,2030
2046,2047,2040,2057,2047,2057,2051,2033
2056,2058,2049,2085,2070,2072,2083,2046
2061,2059,2050,2094,2091,2077,2083,2044
2056,2058,2052,2090,2083,2084,2076,2050
2045,2045,2039,2083,2064,2082,2063,2042
2048,2042,2042,2081,2028,2063,2032,2041
2039,2038,2033,2076,2005,2054,2051,2038
2038,2031,2033,2067,1993,2043,2045,2041
2035,2028,2037,2062,2003,2020,2049,2053
2034,2029,2046,2069,2038,1996,2052,2064
2045,2038,2042,2076,2085,2009,2043,2075
2048,2045,2040,2077,2097,2039,2046,2072
2050,2057,2033,2071,2095,2055,2050,2070
2041,2046,2031,2058,2076,2049,2051,2069
2040,2042,2043,2050,2069,2052,2046,2067
2048,2050,2033,2040,2047,2042,2046,2067
2044,2043,2023,2017,2034,2036,2046,2070
2049,2041,2036,2022,2040,2038,2056,2071
2060,2057,2055,2022,2043,2040,2058,2066
2062,2068,2061,2025,2050,2044,2058,2054
2056,2059,2049,2018,2041,2045,2065,2052
2056,2057,2038,2014,2037,2049,2069,2052
2058,2047,2029,2010,2025,2061,2057,2040
2057,2051,2033,2016,2010,2065,2053,2030
2047,2051,2046,2022,2004,2065,2060,2026
2044,2050,2054,2019,2001,2060,2056,2031
2045,2052,2056,2024,2003,2043,2054,2037
2063,2061,2060,2037,2033,2041,2060,2051
2067,2067,2052,2052,2076,2045,2056,2048
2062,2056,2045,2054,2071,2052,2049,2050
2062,2057,2047,2060,2082,2078,2065,2054
2058,2061,2049,2056,2092,2100,2066,2045
2054,2052,2047,2049,2081,2110,2047,2035
2045,2050,2045,2051,2077,2122,2086,2034
2049,2048,2044,2047,2077,2125,2077,2041
2053,2060,2048,2049,2082,2129,2078,2044
2055,2056,2043,2047,2082,2130,2075,2054
2053,2062,2050,2057,2067,2123,2056,2057
2056,2056,2052,2054,2062,2094,2052,2059
2057,2056,2051,2053,2060,2051,2061,2066
2061,2060,2064,2060,2058,1959,2045,2081
2059,2058,2060,2063,2064,1934,2051,2082
2060,2058,2060,2064,2058,1972,2057,2082
2054,2056,2062,2063,2054,2009,2053,2088
2057,2055,2062,2057,2049,2036,2054,2090
2046,2057,2061,2052,2037,2031,2042,2088
2039,2050,2058,2049,2031,2028,2037,2082
2053,2054,2059,2056,2030,2038,2043,2084
2047,2059,2056,2060,2030,2040,2025,2073
2052,2055,2056,2055,2030,2040,2041,2070
2048,2056,2054,2056,2026,2050,2047,2072
2045,2055,2060,2052,2034,2060,2049,2061
2050,2056,2062,2057,2034,2031,2040,2061
2050,2062,2065,2057,2034,2006,2030,2060
2053,2056,2061,2057,2040,2007,2039,2051
2048,2052,2063,2057,2039,2015,2056,2046
2049,2053,2055,2062,2047,2029,2044,2041
2041,2049,2050,2053,2044,2028,2037,2039
2041,2046,2050,2055,2032,2024,2028,2029
2044,2044,2054,2050,2026,2024,2041,2020
2037,2040,2050,2044,2030,2049,2057,2021
2035,2039,2053,2054,2047,2075,2069,2028
2042,2036,2053,2052,2055,2079,2073,2018
2041,2036,2045,2047,2032,2064,2073,2025
2048,2044,2047,2046,2011,2045,2066,2027
2042,2045,2045,2037,1994,2020,2055,2026
2042,2046,2041,2036,1989,2012,2055,2028
2043,2048,2043,2035,2009,2011,2053,2033
2051,2053,2055,2053,2040,2020,2062,2040
2051,2061,2061,2065,2076,2031,2074,2045
2058,2060,2067,2068,2088,2059,2060,2049
2053,2053,2047,2052,2052,2079,2056,2048
2049,2047,2047,2031,2002,2066,2051,2045
2049,2045,2046,2026,1969,2058,2038,2048
2043,2044,2041,2019,1967,2049,2041,2061
2041,2043,2043,2031,2010,2027,2050,2078
2056,2047,2051,2055,2078,2038,2092,2099
2055,2047,2051,2063,2107,2072,2076,2089
2051,2040,2041,2054,2104,2100,2068,2089
2046,2036,2038,2047,2092,2110,2071,2081
2044,2041,2045,2053,2068,2103,2071,2079
2052,2044,2048,2050,2049,2090,2080,2074
2050,2041,2046,2043,2018,2056,2070,2068
2046,2042,2047,2040,2016,2011,2048,2071
2043,2039,2042,2034,2009,1990,2025,2064
2027,2026,2033,2025,2019,1996,2045,2049
2030,2031,2038,2041,2055,2034,2059,2052
2051,2045,2055,2065,2086,2048,2054,2055
2061,2052,2061,2065,2076,2062,2046,2057
2054,2052,2056,2057,2074,2067,2069,2058
2056,2049,2053,2052,2068,2060,2054,2040
2054,2045,2053,2047,2061,2060,2063,2026
2044,2052,2050,2051,2051,2057,2053,2027
2050,2055,2052,2049,2041,2030,2033,2023
2052,2058,2051,2049,2029,2010,2042,2027
2045,2052,2049,2041,2014,2021,2031,2032
2045,2048,2048,2046,2018,2034,2034,2037
2052,2051,2048,2046,2040,2060,2045,2038
2050,2042,2037,2042,2040,2081,2077,2033
2044,2033,2032,2038,2048,2096,2090,2037
2038,2043,2033,2037,2052,2101,2085,2036
2040,2048,2043,2046,2055,2101,2087,2044
2056,2060,2052,2053,2064,2095,2085,2058
2063,2065,2055,2056,2067,2101,2082,2051
2066,2065,2055,2065,2066,2089,2076,2060
2071,2064,2052,2061,2056,2070,2053,2060
2061,2055,2044,2051,2044,2053,2052,2066
2050,2050,2037,2046,2047,2055,2038,2071
2044,2052,2043,2052,2050,2048,2025,2075
2040,2047,2040,2056,2055,2063,2034,2080
2036,2046,2041,2054,2057,2074,2054,2081
2042,2045,2041,2057,2059,2081,2040,2080
2036,2038,2040,2051,2054,2078,2034,2076
2030,2037,2036,2053,2048,2066,2034,2080
2041,2052,2052,2053,2049,2039,2040,2067
2043,2050,2046,2045,2053,2029,2037,2062
2037,2042,2037,2038,2048,2028,2030,2060
2038,2041,2035,2045,2045,2034,2040,2057
2041,2045,2036,2039,2029,2030,2043,2052
2043,2044,2039,2028,2018,2025,2050,2047
2044,2044,2033,2032,2015,2022,2041,2046
2049,2042,2033,2028,2009,2030,2044,2042
2046,2038,2030,2034,2015,2034,2037,2039
2050,2038,2028,2037,2021,2036,2048,2038
2046,2042,2032,2038,2022,2049,2062,2042
2044,2037,2032,2036,2041,2059,2072,2035
2042,2044,2038,2047,2053,2066,2069,2039
2057,2057,2052,2057,2050,2055,2079,2049
2051,2042,2031,2048,2040,2033,2063,2040
2043,2038,2030,2039,2043,2031,2039,2035
2053,2058,2038,2043,2057,2037,2065,2035
2055,2053,2034,2038,2044,2022,2050,2031
2051,2037,2018,2022,2033,2015,2037,2022
2040,2028,2010,2023,2026,2009,2041,2024
2049,2035,2026,2031,2035,2020,2039,2023
2050,2046,2033,2035,2035,2024,2051,2036
2047,2053,2033,2036,2042,2018,2042,2053
2038,2047,2024,2026,2032,2002,2041,2056
2038,2041,2019,2023,2024,2001,2028,2064
2047,2042,2028,2024,2030,2014,2033,2067
2058,2058,2036,2039,2041,2020,2048,2069
2062,2049,2033,2032,2030,2029,2036,2064
2047,2057,2035,2034,2029,2035,2042,2064
2036,2056,2047,2031,2029,2039,2053,2075
2021,2060,2052,2046,2033,2049,2048,2074
2016,2052,2047,2043,2041,2049,2053,2071
2022,2045,2052,2037,2038,2051,2060,2075
2033,2060,2060,2044,2028,2043,2050,2072
2040,2064,2064,2041,2014,2026,2062,2075
2047,2069,2062,2042,2007,2020,2057,2079
2054,2071,2068,2034,2013,2017,2048,2069
2048,2066,2066,2027,2017,2024,2052,2053
2047,2061,2055,2032,2039,2041,2042,2047
2049,2069,2068,2049,2059,2062,2057,2053
2047,2067,2070,2053,2068,2071,2053,2048
2049,2066,2066,2050,2065,2064,2059,2037
2042,2067,2060,2049,2065,2072,2056,2034
2044,2068,2062,2046,2063,2066,2064,2036
2042,2064,2058,2041,2050,2065,2068,2033
2047,2063,2050,2044,2047,2068,2062,2025
2050,2063,2053,2042,2054,2073,2059,2027
2049,2067,2050,2043,2048,2076,2061,2030
2042,2058,2042,2034,2044,2073,2055,2035
2040,2051,2045,2032,2037,2067,2066,2028
2049,2059,2050,2038,2042,2072,2073,2035
2044,2054,2044,2036,2040,2074,2047,2041
2050,2054,2050,2037,2041,2073,2046,2044
2051,2054,2051,2036,2048,2073,2060,2039
2052,2057,2050,2038,2051,2069,2052,2042
2052,2060,2052,2040,2052,2055,2053,2049
2048,2058,2050,2040,2045,2038,2042,2054
2056,2059,2046,2042,2045,2044,2061,2071
2058,2057,2042,2039,2054,2071,2067,2065
2052,2049,2036,2030,2045,2084,2054,2051
2042,2047,2030,2017,2031,2081,2049,2061
2041,2042,2018,2015,2028,2082,2053,2064
2033,2040,2017,2024,2032,2073,2054,2062
2039,2041,2020,2039,2043,2030,2061,2078
2043,2044,2025,2054,2058,1994,2059,2080
2047,2032,2017,2051,2055,2010,2046,2082
2046,2024,2011,2042,2024,2064,2057,2081
2051,2030,2001,2025,1970,2101,2052,2051
2035,2029,1999,2014,1924,2102,2047,2042
2040,2031,1998,2009,1900,2099,2045,2038
2029,2029,1990,1995,1883,2050,2033,2036
2036,2031,1995,2005,1928,1969,2048,2058
2052,2038,2011,2047,2044,1959,2065,2067
2048,2049,2023,2069,2127,2008,2080,2065
2050,2059,2030,2074,2141,2060,2088,2058
2051,2064,2033,2070,2129,2075,2089,2054
2045,2058,2035,2060,2109,2035,2049,2056
2047,2066,2049,2049,2084,2013,2042,2053
2046,2064,2060,2032,2043,2001,2040,2049
2049,2066,2069,2009,2011,2015,2039,2034
2045,2064,2069,1985,2000,2049,2046,2018
2039,2051,2050,1963,1985,2057,2035,2009
2027,2036,2042,1973,2009,2061,2048,2016
2036,2043,2069,2010,2050,2046,2057,2042
2056,2062,2089,2038,2091,2025,2062,2054
2063,2070,2092,2052,2114,2017,2071,2053
2065,2081,2092,2055,2120,2025,2065,2056
2069,2072,2078,2046,2094,2029,2059,2053
2057,2066,2071,2041,2076,2052,2056,2051
2052,2058,2065,2036,2064,2066,2060,2051
2038,2046,2061,2035,2075,2078,2053,2050
2033,2057,2065,2042,2087,2089,2063,2055
2038,2066,2071,2044,2081,2084,2056,2072
2042,2065,2069,2041,2072,2080,2049,2071
2038,2063,2061,2041,2073,2080,2054,2077
2043,2061,2060,2034,2070,2090,2054,2086
2047,2064,2052,2033,2066,2104,2061,2094
2054,2063,2052,2029,2070,2105,2054,2100
2057,2056,2053,2024,2059,2096,2031,2088
2046,2053,2046,2029,2062,2083,2027,2090
2043,2058,2053,2038,2046,2063,2046,2091
2043,2063,2057,2042,2069,2017,2052,2086
2044,2058,2066,2052,2093,1990,2048,2077
2050,2061,2054,2046,2066,2023,2051,2070
2045,2057,2058,2034,2031,2057,2035,2066
2038,2050,2047,2026,1991,2079,2026,2048
2036,2052,2044,2026,1957,2080,2019,2048
2042,2046,2054,2036,1983,2035,2022,2050
2054,2057,2070,2068,2085,2021,2060,2060
2064,2062,2080,2088,2167,2008,2052,2061
2066,2063,2083,2091,2184,1999,2048,2062
2062,2072,2082,2104,2208,2014,2039,2056
2066,2072,2078,2102,2179,2016,2032,2046
2060,2066,2078,2080,2131,2007,2030,2028
2045,2057,2059,2067,2068,2002,2000,2017
2045,2045,2038,2049,2058,2003,2006,2018
2044,2039,2030,2039,2067,2015,2008,2035
2043,2046,2030,2041,2065,2043,2048,2038
2054,2049,2033,2040,1997,2048,2056,2034
2049,2047,2032,2015,1946,2044,2036,2035
2048,2053,2027,2019,1981,2046,2045,2042
2051,2050,2027,2020,2002,2057,2050,2044
2047,2047,2023,2011,1995,2046,2043,2048
2044,2043,2012,2002,1996,2043,2044,2053
2037,2039,2008,1998,1986,2035,2038,2057
2050,2041,2014,1994,1982,2043,2041,2069
2044,2043,2007,1997,1996,2057,2073,2072
2042,2039,2012,2006,1985,2057,2066,2077
2036,2032,2014,1993,1952,2045,2054,2072
2032,2037,2025,2000,1946,2032,2049,2074
2038,2043,2030,2005,1959,2038,2053,2066
2037,2036,2023,2000,1980,2048,2045,2065
2033,2031,2017,2009,2016,2051,2043,2075
2030,2027,2021,2015,2040,2051,2054,2074
2039,2036,2029,2024,2034,2040,2049,2065
2034,2035,2030,2020,2003,2021,2050,2061
2034,2034,2024,2014,1988,2019,2034,2050
2026,2031,2021,2014,1985,2040,2049,2045
2031,2034,2026,2043,2033,2065,2033,2057
2051,2050,2039,2080,2083,2076,2067,2064
2050,2051,2038,2081,2094,2073,2070,2057
2058,2045,2031,2065,2091,2064,2062,2053
2053,2043,2026,2060,2071,2060,2055,2051
2054,2042,2019,2052,2050,2051,2051,2053
2045,2041,2007,2042,2022,2052,2051,2034
2036,2038,2017,2031,1997,2049,2054,2037
2039,2035,2025,2034,1998,2041,2055,2030
2043,2040,2029,2043,2007,2035,2062,2033
2043,2048,2034,2038,1998,2021,2042,2029
2040,2039,2032,2035,2014,2016,2023,2013
2040,2044,2034,2035,2013,2010,2042,2012
2034,2050,2038,2027,2011,1999,2038,2020
2030,2037,2040,2013,2001,2002,2036,2028
2040,2043,2064,2023,2036,2017,2039,2043
2052,2059,2079,2032,2079,2020,2049,2047
2065,2067,2078,2025,2097,2024,2029,2048
2046,2057,2069,2024,2100,2025,2032,2038
2050,2053,2064,2026,2087,2028,2025,2042
2045,2056,2072,2041,2065,2027,2029,2053
2048,2064,2082,2035,1980,2018,2034,2061
2047,2066,2086,2027,1962,2032,2055,2057
2044,2070,2097,2025,2032,2082,2069,2059
2032,2064,2088,2036,2080,2100,2074,2070
2034,2057,2085,2044,2105,2105,2070,2074
2042,2057,2080,2059,2095,2087,2078,2079
2044,2056,2065,2047,2069,2056,2073,2085
2040,2037,2050,2037,2056,2048,2066,2082
2037,2042,2048,2030,2052,2045,2058,2080
2044,2045,2034,2016,2048,2042,2054,2075
2048,2048,2023,2015,2046,2044,2030,2077
2043,2042,2024,2012,2041,2042,2025,2077
2057,2049,2032,2026,2050,2048,2028,2060
2064,2062,2046,2043,2079,2061,2036,2046
2059,2054,2059,2054,2085,2073,2039,2032
2048,2048,2056,2049,2075,2081,2038,2023
2038,2039,2058,2049,2064,2068,2036,2015
2029,2034,2046,2045,2042,2061,2023,2007
2027,2031,2036,2028,2007,2051,2014,1998
2022,2025,2030,2029,2002,2049,2015,2003
2034,2031,2029,2026,2016,2053,2015,2006
2046,2030,2031,2035,2005,2021,2021,2015
2056,2039,2034,2042,2032,1984,2036,2029
2058,2041,2044,2065,2080,1987,2029,2029
2061,2041,2032,2072,2104,2028,2027,2034
2065,2052,2033,2082,2109,2068,2044,2033
2067,2056,2026,2074,2108,2093,2056,2025
2067,2049,2023,2056,2093,2104,2064,2034
2060,2038,2010,2037,2078,2107,2070,2041
2053,2039,2016,2033,2069,2104,2065,2044
2055,2044,2028,2023,2056,2097,2047,2043
2037,2035,2010,1988,2037,2081,2066,2042
2029,2035,2008,1994,2045,2083,2059,2039
2029,2034,2015,2004,2035,2064,2052,2035
2024,2030,2021,2010,2002,2035,2040,2043
2018,2023,2022,2012,2023,2019,2039,2044
2019,2016,2018,2011,2039,1993,2027,2044
2025,2028,2033,2021,2044,1995,2026,2044
2038,2043,2058,2031,2018,2007,2032,2053
2037,2049,2056,2023,2029,2008,2020,2055
2029,2032,2037,1994,2006,2016,2020,2048
2026,2024,2036,1979,1999,2047,2021,2065
2040,2039,2051,1996,2021,2075,2024,2070
2046,2045,2054,2012,2058,2087,2036,2069
2042,2046,2077,2024,2085,2079,2050,2082
2059,2068,2095,2042,2038,2061,2057,2078
2072,2076,2099,2043,2006,2052,2052,2073
2073,2065,2087,2038,2002,2042,2051,2056
2068,2058,2073,2030,2007,2028,2048,2037
2058,2052,2074,2025,1985,2014,2041,2033
2051,2056,2089,2023,1978,2016,2045,2032
2045,2055,2083,2029,1989,2022,2047,2039
2026,2049,2073,2038,2011,2030,2053,2032
2034,2056,2068,2041,2022,2033,2048,2026
2047,2054,2068,2039,2036,2055,2038,2025
2046,2056,2065,2046,2047,2065,2041,2027
2053,2055,2061,2040,2070,2068,2049,2020
2053,2049,2054,2046,2088,2043,2050,2038
2067,2063,2068,2056,2086,2022,2054,2043
2080,2075,2077,2054,2076,2018,2045,2036
2062,2062,2065,2044,2061,2024,2046,2029
2048,2057,2065,2036,2057,2045,2053,2024
2034,2057,2055,2036,2060,2062,2054,2024
2035,2054,2047,2036,2069,2069,2060,2020
2037,2044,2039,2046,2077,2084,2061,2026
2031,2043,2041,2064,2092,2106,2059,2036
2037,2051,2052,2088,2117,2117,2064,2054
2047,2048,2054,2092,2132,2120,2074,2057
2047,2040,2044,2082,2142,2105,2067,2067
2044,2035,2043,2081,2153,2065,2070,2076
2040,2032,2037,2066,2087,2026,2062,2084
2039,2028,2032,2048,1983,2021,2067,2078
2040,2037,2042,2053,1939,2025,2055,2091
2055,2044,2052,2061,1937,2021,2058,2096
2058,2034,2036,2043,1944,2042,2036,2085
2054,2026,2026,2043,1994,2072,2041,2067
2045,2025,2018,2026,1978,2083,2026,2050
2040,2023,2014,2013,1956,2079,2048,2038
2025,2015,2007,2009,1946,2038,2036,2045
2019,2017,2013,2018,1987,1991,2036,2042
2032,2023,2027,2029,2048,1967,2044,2038
2040,2040,2038,2043,2102,1970,2030,2042
2060,2058,2053,2049,2143,2017,2041,2050
2055,2066,2043,2062,2175,2045,2072,2056
2049,2066,2038,2058,2161,2076,2068,2045
2048,2058,2029,2038,2034,2060,2059,2031
2040,2055,2016,2014,1953,2036,2059,2026
2038,2042,2011,2014,1969,2029,2048,2021
2037,2047,2023,2025,2001,2030,2038,2026
2049,2061,2037,2040,2028,2039,2037,2028
2042,2062,2047,2029,2028,2078,2038,2010
2039,2058,2041,2023,2026,2091,2017,2017
2045,2062,2043,2025,2014,2088,2032,2024
2047,2052,2048,2019,1986,2063,2022,2028
2050,2057,2063,2026,2014,2013,2047,2036
2056,2069,2078,2052,2112,1985,2046,2058
2067,2074,2073,2048,2138,2016,2062,2052
2057,2064,2066,2054,2152,2051,2068,2051
2045,2059,2061,2063,2161,2072,2073,2056
2052,2060,2056,2077,2162,2080,2057,2053
2056,2058,2057,2077,2173,2090,2056,2061
2054,2061,2064,2086,2164,2085,2061,2075
2062,2067,2074,2078,2125,2068,2058,2081
2056,2067,2073,2063,2083,2043,2067,2088
2054,2065,2074,2045,2007,2012,2054,2083
2049,2063,2068,2018,1930,1998,2043,2077
2041,2056,2066,2011,1975,2003,2052,2075
2037,2052,2053,2006,2054,2028,2039,2078
2045,2052,2048,1997,2055,2035,2027,2085
2052,2058,2049,2004,2048,2058,2064,2087
2053,2055,2049,2005,2058,2070,2057,2078
2046,2059,2054,2012,2097,2070,2059,2069
2049,2063,2057,2008,2079,2056,2061,2064
2045,2056,2047,2001,2044,2037,2062,2055
2044,2043,2039,1992,2026,2039,2053,2044
2032,2042,2032,2000,2033,2066,2070,2035
2037,2041,2035,2017,2051,2075,2062,2036
2044,2048,2036,2023,2025,2056,2070,2031
2051,2053,2033,2025,1996,2041,2042,2031
2047,2048,2024,2014,1981,2039,2055,2032
2055,2048,2025,2012,1991,2050,2053,2036
2059,2047,2016,2010,1971,2048,2054,2033
2060,2053,2031,2003,1970,2042,2044,2025
2044,2055,2038,2020,1983,2033,2048,2016
2029,2035,2042,2045,2050,2035,2044,2004
2033,2039,2047,2059,2091,2041,2050,2008
2040,2043,2056,2059,2115,2043,2047,2013
2037,2039,2057,2067,2121,2031,2045,2020
2046,2046,2048,2068,2090,2023,2046,2018
2052,2037,2048,2068,2046,2008,2034,2028
2049,2039,2047,2080,2039,2008,2023,2026
2041,2029,2053,2101,2054,2022,2031,2027
2042,2021,2041,2092,2053,2029,2028,2025
2037,2011,2030,2087,2076,2054,2027,2033
2023,1999,2022,2094,2057,2072,2028,2034
2009,1992,2029,2077,2038,2074,2033,2037
2016,2000,2028,2061,2044,2071,2058,2046
2025,2001,2018,2051,2042,2067,2053,2065
2044,2012,2017,2044,2043,2070,2060,2069
2045,2030,2017,2037,2008,2074,2050,2074
2044,2020,2004,2000,1914,2055,2028,2068
2039,2017,2008,1997,1931,2046,2029,2073
2046,2034,2023,2016,1979,2050,2041,2070
2049,2034,2028,2013,1986,2067,2035,2060
2039,2037,2019,2013,1989,2068,2042,2057
2040,2035,2019,2015,1994,2076,2059,2065
2051,2053,2040,2037,2031,2101,2062,2075
2067,2070,2098,2080,2086,2119,2075,2083
2090,2088,2120,2091,2102,2107,2068,2077
2092,2071,2101,2076,2090,2060,2066,2066
2077,2046,2074,2062,2079,2051,2058,2040
2050,2023,2041,2037,2046,2033,2033,2011
2024,2015,2025,2024,1985,2036,2035,2012
2029,2025,2023,2024,1976,2036,2046,2014
2022,2017,2017,2010,1969,2034,2040,2007
2008,2016,2011,2003,1977,2024,2054,1999
2008,2032,2017,2000,2016,2037,2046,2019
2029,2052,2031,2012,2040,2049,2053,2033
2052,2068,2057,2053,2106,2079,2064,2030
2062,2085,2074,2069,2149,2091,2054,2040
2061,2071,2074,2068,2167,2088,2048,2031
2055,2065,2071,2051,2205,2083,2053,2032
2050,2059,2067,2048,2173,2081,2046,2039
2038,2064,2076,2045,2128,2081,2057,2030
2041,2077,2086,2038,2055,2073,2058,2040
2041,2080,2069,2017,2032,2051,2056,2052
2046,2067,2047,2012,1956,2034,2061,2059
2037,2066,2048,2033,1929,2035,2044,2062
2045,2062,2043,2053,1965,2041,2034,2049
2036,2055,2032,2062,1955,2044,2030,2042
2041,2038,2014,2059,1946,2039,2010,2050
2034,2018,2017,2046,1926,1992,2012,2058
2031,2024,2022,2039,1980,1993,2016,2067
2036,2052,2049,2070,2083,2037,2049,2071
2040,2070,2066,2091,2138,2073,2071,2084
2053,2069,2068,2092,2189,2094,2076,2089
2056,2063,2056,2079,2252,2114,2072,2073
2050,2043,2033,2051,2246,2100,2065,2071
2051,2034,2031,2037,2236,2096,2052,2063
2054,2048,2043,2048,2245,2110,2060,2058
2045,2061,2060,2041,2192,2095,2070,2047
2050,2075,2069,2042,2121,2064,2052,2044
2048,2073,2064,2069,2100,2047,2040,2046
2055,2079,2066,2085,2075,2035,2033,2051
2063,2075,2047,2064,1964,2002,2040,2036
2057,2072,2027,2033,1848,1982,2023,2032
2035,2072,2027,2029,1845,1993,2031,2029
2034,2071,2031,2042,1913,2003,2028,2031
2046,2070,2033,2046,1972,2018,2026,2029
2050,2066,2031,2046,1996,2027,2047,2020
2054,2052,2026,2031,2014,2030,2036,2018
2048,2036,2017,2031,2022,2022,2025,2022
2041,2037,2032,2031,2043,2021,2024,2022
2049,2053,2050,2041,2089,2031,2031,2023
2042,2056,2064,2051,2106,2034,2024,2029
2043,2065,2068,2044,2072,2032,2042,2033
2043,2065,2063,2021,2063,2027,2044,2034
2045,2065,2058,2027,2106,2044,2044,2034
2044,2049,2057,2030,2118,2055,2044,2035
2036,2044,2056,2026,2096,2059,2029,2050
2034,2035,2050,2011,2040,2067,2044,2047
2033,2034,2044,2013,1996,2070,2039,2041
2024,2032,2044,2022,2010,2074,2034,2044
2020,2022,2045,2028,2030,2075,2041,2052
2017,2017,2039,2014,2015,2041,2025,2058
2024,2009,2036,2019,2058,2019,2042,2073
2037,2018,2037,2057,2141,2052,2054,2087
2057,2027,2040,2068,2160,2081,2040,2079
2058,2031,2037,2071,2193,2111,2044,2066
2064,2035,2033,2064,2190,2121,2045,2064
2064,2040,2028,2045,2144,2112,2038,2069
2072,2051,2022,2023,2092,2082,2024,2060
2059,2052,2014,1996,2068,2062,2009,2040
2028,2051,2004,1991,2068,2051,1998,2041
2019,2053,1993,1981,2007,2028,2009,2041
2030,2055,1996,1961,1988,2032,2019,2038
2045,2059,2018,1963,2020,2020,2028,2049
2059,2068,2037,1982,2037,2014,2030,2051
2067,2058,2034,1976,2016,2016,1999,2028
2053,2052,2024,1948,1957,2053,2005,2001
2031,2036,2004,1933,1953,2093,2010,1991
2029,2028,2009,1947,1976,2119,2009,1980
2030,2031,2020,1956,1950,2088,2016,1986
2039,2032,2038,1971,1991,1986,2014,2021
2056,2040,2062,2021,2088,1927,2034,2040
2053,2064,2081,2034,2184,2006,2057,2044
2057,2085,2092,2046,2231,2081,2041,2039
2054,2074,2072,2028,2218,2107,2052,2039
2052,2060,2060,2029,2194,2099,2040,2040
2047,2066,2076,2059,2203,2080,2079,2053
2063,2081,2098,2104,2221,2085,2067,2054
2061,2077,2100,2118,2190,2085,2052,2053
2053,2074,2098,2110,2073,2076,2042,2049
2054,2067,2090,2095,1991,2074,2048,2051
2044,2061,2082,2109,2024,2076,2037,2054
2049,2049,2079,2120,2070,2062,2032,2062
2039,2029,2069,2126,2063,2034,2047,2070
2035,2034,2082,2132,2008,2020,2056,2080
2046,2048,2082,2126,1916,2041,2076,2090
2055,2043,2078,2103,1822,2048,2062,2094
2054,2030,2041,2109,1856,2028,2040,2083
2035,1994,1996,2138,1914,2005,2023,2068
2015,1982,1983,2152,1950,1999,2019,2053
2021,2018,2000,2171,1979,2013,2028,2047
2055,2053,2014,2212,2017,2027,2037,2037
2060,2059,1986,2197,2025,2025,2032,2047
2059,2041,1951,2167,2077,2027,2028,2056
2050,2040,1936,2145,2166,2042,2012,2052
2034,2036,1927,2116,2264,2083,2022,2030
2023,2036,1923,2085,2299,2093,2030,2030
2037,2040,1924,2026,2240,2068,2018,2029
2043,2046,1941,1968,2100,2053,2009,2021
2042,2044,1972,1920,1956,2013,2019,2025
2049,2051,1995,1919,2049,1978,2034,2047
2063,2058,2039,1933,2131,2018,2040,2043
2069,2065,2070,1917,2126,2049,2042,2053
2075,2068,2104,1919,2082,2063,2043,2044
2068,2072,2125,1915,1933,2028,2028,2032
2052,2061,2127,1918,1848,2022,2022,2021
2059,2064,2152,1949,1902,2031,2044,2030
2058,2072,2173,1973,1953,2048,2036,2016
2043,2075,2168,1952,1937,2039,2033,2016
2029,2069,2135,1913,1872,2016,2027,2021
2023,2059,2099,1898,1794,1983,2020,2036
2030,2049,2072,1909,1849,1971,2024,2040
2028,2042,2070,1961,1968,1990,2005,2038
2029,2055,2084,2009,2052,2021,1990,2041
2039,2072,2111,2050,2121,2035,2005,2053
2056,2090,2137,2089,2159,2056,2038,2074
2067,2094,2128,2095,2156,2060,2042,2069
2065,2082,2111,2085,2156,2068,2042,2070
2048,2068,2093,2090,2131,2074,2041,2069
2039,2057,2064,2080,2094,2061,2029,2077
2038,2040,2058,2065,2066,2054,2040,2079
2029,2020,2031,2038,2025,2042,2028,2083
2028,2016,2017,2022,2032,2051,2040,2081
2043,2019,2012,2027,2070,2055,2041,2072
2037,2021,2001,2019,2060,2047,2035,2070
2028,2005,1998,2014,2010,2030,2032,2048
2014,2011,2011,2004,1888,2005,2016,2045
2021,2026,2031,2005,1832,1991,2009,2022
2033,2042,2056,2010,1868,2008,2000,2025
2054,2074,2092,2033,1938,2040,2028,2040
2062,2083,2088,2038,1971,2045,2029,2047
2062,2088,2099,2049,2013,2071,2057,2055
2062,2089,2099,2061,2073,2103,2059,2049
2063,2081,2089,2054,2054,2105,2066,2043
2054,2068,2073,2031,2060,2096,2062,2035
2048,2059,2057,2019,2115,2062,2037,2021
2045,2045,2039,1989,2125,2036,2027,2009
2050,2044,2042,1999,2136,2040,2016,2013
2046,2035,2041,2011,2121,2048,2034,2020
2045,2040,2047,2018,2102,2067,2043,2028
2045,2051,2059,2031,2098,2088,2052,2028
2052,2059,2069,2051,2104,2096,2034,2030
2051,2051,2064,2066,2106,2093,2034,2034
2050,2053,2062,2075,2088,2077,2037,2041
2068,2052,2074,2080,2043,2026,2031,2046
2070,2054,2078,2079,2044,1996,2019,2043
2061,2049,2075,2093,2105,2006,2028,2040
2054,2056,2087,2120,2171,2054,2046,2049
2064,2057,2079,2128,2202,2076,2036,2053
2051,2052,2084,2141,2236,2093,2038,2068
2047,2056,2082,2140,2247,2105,2040,2077
2042,2055,2077,2136,2223,2099,2032,2074
2040,2056,2068,2128,2231,2097,2040,2074
2042,2061,2069,2136,2234,2106,2057,2088
2049,2049,2056,2124,2225,2111,2036,2082
2034,2030,2041,2100,2205,2090,2044,2073
2031,2022,2032,2064,2164,2065,2036,2062
2035,2031,2025,2006,2011,2022,2039,2058
2028,2030,2027,1978,1928,2004,2024,2059
2035,2039,2043,1980,2001,2012,2038,2062
2034,2038,2046,1978,2036,2009,2017,2050
2039,2041,2034,1951,1993,1993,2019,2047
2037,2040,2037,1967,2044,2024,2049,2042
2056,2047,2050,2008,2062,2050,2044,2052
2073,2059,2063,2035,2074,2065,2063,2053
2087,2069,2060,2049,2079,2070,2064,2050
2078,2055,2042,2059,2058,2055,2028,2034
2081,2038,2023,2034,1945,2036,2006,2016
2062,2018,2008,2030,1925,2052,2004,2004
2037,2019,2019,2050,1948,2088,2036,2019
2031,2031,2029,2060,1972,2103,2040,2016
2020,2035,2031,2060,1997,2101,2051,2016
2016,2031,2025,2052,2015,2079,2027,2016
2044,2045,2027,2056,2049,2053,2051,2040
2064,2044,2027,2063,2116,2065,2070,2042
2077,2046,2036,2060,2136,2050,2040,2037
2071,2032,2021,2038,2098,2018,2024,2032
2056,2023,2013,2015,2010,1981,1990,2019
2043,2024,2023,2009,1928,1966,1977,2023
2020,2028,2035,2028,1954,1986,2029,2022
2006,2039,2048,2038,1988,1989,2040,2043
2026,2052,2061,2050,2025,1978,2047,2067
2044,2057,2074,2081,2051,1979,2041,2075
2053,2062,2072,2092,2045,2027,2034,2068
2048,2056,2071,2088,2037,2082,2040,2072
2052,2065,2072,2078,2001,2146,2049,2070
2065,2068,2064,2050,1950,2141,2069,2072
2060,2062,2059,2022,1934,2074,2037,2071
2043,2031,2031,1980,1959,2031,2000,2047
2021,2029,2034,1980,2011,1972,2022,2059
2045,2071,2071,2042,2168,1983,2059,2084
2066,2086,2084,2064,2232,2042,2054,2084
2070,2075,2076,2040,2209,2066,2056,2083
2066,2076,2072,2026,2163,2066,2054,2084
2069,2072,2067,2010,2054,2014,2035,2063
2056,2058,2051,1984,1977,1979,2034,2039
2044,2044,2039,1973,1953,2011,2057,2029
2057,2052,2049,2005,1958,2044,2050,2029
2061,2060,2053,2020,1939,2034,2052,2029
2055,2054,2040,2044,2011,2038,2059,2046
2059,2045,2039,2050,2038,2049,2055,2046
2061,2035,2031,2033,1990,2047,2029,2050
2052,2029,2020,2021,1953,2039,2031,2037
2043,2035,2025,2033,1988,2040,2000,2026
2046,2048,2044,2065,2067,2034,2010,2015
2045,2037,2042,2074,2089,2029,2034,2004
2030,2022,2034,2084,2076,2027,2022,2002
2025,2030,2044,2097,2089,2032,2042,2006
2022,2036,2042,2089,2133,2058,2019,2024
2034,2023,2033,2070,2126,2056,2032,2029
2033,2024,2025,2053,2104,2050,2044,2030
2033,2022,2021,2047,2088,2031,2044,2026
2035,2020,2028,2046,2094,2027,2050,2022
2032,2023,2046,2062,2122,2032,2063,2036
2039,2046,2061,2069,2129,2052,2048,2046
2037,2059,2077,2071,2122,2064,2068,2060
2050,2067,2077,2066,2089,2069,2055,2064
2062,2056,2061,2061,2100,2066,2038,2061
2063,2043,2047,2049,2098,2047,2041,2059
2052,2040,2040,2048,2086,2067,2027,2051
2052,2055,2050,2044,2037,2051,2028,2039
2039,2051,2034,2007,1914,2017,2010,2043
2019,2013,2006,1966,1825,1994,2003,2049
2012,2015,2020,2012,1979,2045,2041,2065
2033,2054,2052,2056,2068,2085,2070,2075
2046,2066,2060,2069,2087,2088,2067,2086
2063,2078,2051,2051,2059,2058,2048,2080
2059,2073,2050,2040,2099,2025,2055,2071
2060,2072,2061,2060,2161,2044,2063,2064
2067,2087,2083,2078,2229,2089,2071,2060
2072,2088,2086,2103,2214,2106,2057,2057
2073,2077,2072,2107,2196,2107,2062,2051
2066,2060,2066,2104,2179,2106,2084,2045
2071,2056,2063,2103,2122,2093,2070,2024
2046,2044,2050,2078,2067,2077,2026,1993
2038,2036,2055,2079,2080,2066,2031,1993
2042,2026,2057,2105,2148,2065,2040,1999
2039,2022,2061,2125,2141,2064,2043,1999
2037,2017,2054,2086,2004,2041,2041,1988
2025,2026,2051,2040,1827,2005,2015,1996
2025,2047,2057,2028,1793,1971,2026,2002
2029,2056,2065,2081,1963,1986,2031,2013
2038,2065,2065,2122,2071,2016,2063,2015
2042,2060,2070,2132,2096,2032,2067,2023
2038,2059,2056,2129,2083,2036,2066,2020
2034,2040,2054,2107,2080,2050,2075,2028
2031,2031,2046,2096,2103,2062,2070,2035
2033,2029,2042,2070,2067,2052,2051,2039
2033,2020,2021,2044,2025,2025,2023,2028
2024,2011,2013,2036,2039,2023,2019,2021
2035,2032,2026,2041,2064,2039,2041,2043
2068,2040,2032,2032,2086,2054,2051,2054
2068,2035,2034,2033,2097,2061,2025,2058
2050,2039,2040,2036,2097,2064,2056,2062
2034,2047,2036,2035,2093,2056,2057,2058
2016,2043,2012,2014,2070,2042,2059,2057
2017,2038,2009,2009,2058,2031,2071,2063
2036,2050,2006,2005,2054,2014,2045,2056
2033,2041,1997,2011,2042,2015,2034,2037
2028,2033,1997,2020,2039,2017,2045,2027
2019,2032,2002,2021,2042,2008,2020,2032
2036,2040,2011,2006,2034,2007,2018,2038
2044,2042,2008,2002,2038,2014,2033,2040
2040,2032,2006,2010,2036,2011,2043,2028
2030,2024,2010,2011,2024,2017,2031,2017
2019,2022,2015,2018,2025,2019,2037,2019
2024,2030,2036,2035,2039,2028,2037,2014
2028,2036,2044,2044,2046,2044,2062,2016
2026,2034,2043,2049,2047,2054,2037,2023
2036,2033,2045,2057,2060,2056,2044,2018
2047,2036,2050,2060,2060,2044,2045,2022
2046,2043,2060,2070,2057,2032,2033,2026
2054,2050,2058,2065,2062,2037,2029,2029
2055,2046,2050,2069,2067,2051,2040,2026
2062,2059,2065,2075,2066,2051,2036,2015
2046,2056,2070,2074,2068,2049,2023,2008
2041,2048,2072,2067,2070,2062,2025,2016
2027,2046,2069,2065,2072,2070,2042,2020
2036,2056,2068,2060,2077,2074,2066,2032
2046,2064,2062,2064,2082,2074,2063,2046
2059,2055,2064,2066,2082,2064,2058,2059
2066,2046,2059,2061,2080,2054,2063,2067
2065,2034,2052,2055,2075,2054,2054,2073
2056,2025,2042,2057,2078,2045,2058,2061
2035,2028,2052,2058,2066,2063,2046,2038
2038,2029,2050,2047,2062,2059,2040,2056
2051,2035,2038,2028,2050,2058,2044,2076
2051,2028,2024,2028,2040,2067,2064,2068
2037,2024,2019,2036,2041,2047,2056,2064
2044,2045,2044,2058,2061,2029,2050,2072
2061,2068,2071,2071,2069,2002,2050,2085
2066,2070,2064,2079,2066,1979,2020,2079
2055,2066,2058,2084,2061,2011,2024,2064
2056,2069,2068,2089,2066,2053,2050,2041
2040,2082,2071,2091,2085,2092,2063,2037
2034,2075,2061,2084,2085,2098,2072,2038
2040,2068,2064,2076,2091,2090,2073,2039
2043,2072,2056,2065,2087,2078,2076,2034
2051,2066,2035,2056,2065,2064,2068,2038
2050,2051,2018,2047,2056,2044,2058,2031
2046,2049,2004,2044,2060,2044,2060,2029
2042,2040,2007,2040,2073,2037,2052,2019
2034,2036,2012,2040,2081,2030,2052,2016
2041,2044,2018,2041,2068,2029,2044,2012
2033,2036,2034,2047,2043,2033,2043,2004
2030,2026,2027,2037,2020,2032,2038,1995
2023,2016,2020,2037,1998,2050,2031,1994
2021,2027,2034,2036,2003,2056,2039,2002
2023,2037,2052,2050,2039,2034,2044,2018
2044,2064,2066,2079,2138,2053,2038,2022
2046,2057,2070,2070,2091,2033,2046,2019
2045,2055,2064,2057,2020,2021,2051,2035
2042,2051,2061,2070,2012,2030,2047,2040
2043,2055,2069,2077,2043,2047,2058,2043
2053,2057,2075,2073,2056,2049,2070,2048
2056,2064,2082,2104,2065,2055,2076,2059
2059,2069,2083,2124,2073,2056,2068,2054
2055,2059,2062,2118,2066,2056,2064,2071
2056,2059,2044,2116,2084,2055,2065,2080
2068,2057,2036,2109,2084,2050,2045,2086
2082,2057,2040,2088,2082,2035,2037,2080
2064,2041,2036,2071,2090,2030,2041,2068
2063,2036,2034,2059,2064,2031,2040,2045
2047,2035,2032,2047,2053,2039,2046,2043
2028,2054,2037,2041,2059,2047,2046,2061
2020,2051,2034,2037,2067,2059,2061,2068
2016,2044,2037,2030,2073,2062,2067,2066
2029,2056,2050,2040,2072,2064,2054,2068
2050,2070,2058,2049,2066,2063,2053,2066
2063,2081,2065,2056,2058,2064,2055,2055
2062,2072,2062,2052,2045,2073,2041,2031
2047,2059,2045,2037,2001,2082,2036,2010
2036,2047,2041,2023,1956,2067,2034,2008
2030,2034,2038,2006,1910,2042,2020,2007
2029,2036,2037,1996,1887,1995,2010,2008
2029,2049,2044,2008,1933,1917,2008,2028
2037,2049,2036,2026,2012,1929,2019,2033
2053,2051,2041,2069,2092,2011,2044,2038
2062,2061,2042,2080,2133,2056,2049,2039
2053,2040,2037,2076,2143,2073,2069,2040
2041,2037,2039,2073,2142,2087,2076,2030
2052,2045,2050,2064,2113,2077,2069,2021
2046,2042,2060,2046,2081,2062,2071,2024
2041,2048,2068,2049,2076,2061,2074,2029
2039,2054,2081,2052,2081,2066,2065,2029
2038,2060,2092,2059,2066,2087,2054,2033
2039,2060,2087,2047,2027,2086,2045,2032
2042,2055,2083,2045,2010,2083,2057,2036
2042,2057,2075,2045,2001,2081,2072,2038
2040,2055,2070,2048,2018,2034,2061,2050
2048,2057,2068,2068,2077,2010,2064,2064
2044,2051,2067,2076,2129,2033,2054,2069
2042,2047,2065,2080,2127,2052,2047,2076
2043,2049,2074,2079,2115,2066,2055,2073
2042,2059,2083,2086,2101,2063,2056,2074
2040,2043,2067,2073,2076,2037,2035,2070
2038,2035,2058,2064,2056,2009,2041,2063
2040,2040,2053,2056,2046,2006,2040,2054
2040,2036,2048,2053,2043,2020,2043,2052
2036,2026,2045,2056,2040,2024,2045,2051
2026,2025,2046,2057,2049,2029,2055,2043
2027,2025,2046,2046,2069,2037,2046,2036
2012,2019,2038,2047,2079,2044,2056,2042
2031,2032,2051,2064,2089,2059,2065,2049
2049,2053,2065,2072,2085,2075,2081,2050
2060,2060,2073,2061,2038,2076,2078,2046
2057,2056,2056,2029,1953,2073,2044,2045
2060,2051,2053,2021,1943,2087,2065,2043
2064,2054,2051,2026,1926,2078,2060,2032
2056,2049,2044,2020,1893,2068,2066,2018
2046,2058,2062,2061,1993,2070,2056,2028
2059,2077,2089,2101,2035,2037,2063,2033
2060,2068,2078,2101,2028,2031,2059,2030
2052,2050,2065,2098,2045,2053,2069,2027
2049,2040,2052,2087,2113,2065,2042,2017
2039,2038,2045,2076,2145,2058,2032,2017
2035,2046,2047,2064,2144,2052,2045,2015
2039,2046,2050,2061,2079,2024,2033,2012
2038,2041,2044,2067,2056,2012,2016,2007
2031,2033,2045,2048,2045,1992,2030,2006
2028,2032,2039,2057,2087,1989,2027,2031
2032,2040,2040,2079,2136,2014,2031,2036
2027,2032,2037,2067,2125,2030,2052,2040
2021,2027,2039,2055,2103,2046,2064,2046
2024,2028,2033,2058,2097,2051,2067,2058
2029,2035,2048,2064,2099,2054,2061,2068
2035,2048,2053,2069,2104,2055,2071,2069
2039,2046,2061,2073,2087,2052,2070,2069
2040,2040,2059,2074,2050,2043,2064,2072
2041,2028,2050,2072,2068,2035,2048,2067
2046,2023,2040,2094,2117,2045,2050,2080
2036,2022,2038,2104,2127,2041,2052,2058
2024,2020,2026,2113,2135,2043,2053,2062
2028,2025,2026,2118,2147,2051,2051,2061
2031,2028,2028,2121,2134,2058,2062,2061
2040,2026,2028,2110,2121,2059,2083,2057
2045,2025,2018,2096,2089,2051,2071,2045
2049,2025,2015,2085,2011,2035,2055,2041
2041,2022,2013,2069,1947,2020,2065,2033
2033,2021,2015,2073,1979,2026,2073,2035
2035,2026,2021,2074,2014,2032,2073,2037
2041,2028,2028,2072,2024,2025,2056,2031
2042,2037,2035,2071,2033,2014,2051,2024
2046,2051,2047,2067,2040,2019,2059,2036
2057,2063,2056,2057,2037,2018,2051,2043
2077,2066,2058,2047,2024,2027,2040,2034
2075,2078,2072,2024,2016,2029,2036,2019
2080,2080,2089,2019,2002,2024,2043,2006
2084,2078,2093,2011,1983,1995,2038,2002
2063,2053,2076,2016,1973,2011,2041,2013
2047,2043,2062,2035,1990,2065,2061,2028
2024,2041,2064,2048,1991,2091,2058,2031
2005,2052,2069,2059,2008,2107,2075,2031
2017,2058,2058,2063,2049,2126,2075,2038
2029,2057,2052,2061,2105,2130,2050,2047
2035,2035,2043,2057,2120,2136,2060,2053
2031,2032,2038,2050,2165,2113,2065,2064
2036,2049,2051,2051,2171,2078,2062,2074
2043,2067,2058,2059,2165,2078,2052,2080
2063,2076,2076,2071,2178,2087,2075,2087
2062,2079,2082,2079,2161,2062,2075,2099
2062,2077,2077,2057,2087,2044,2069,2088
2056,2063,2065,2005,1893,2010,2049,2063
2034,2059,2064,2011,1906,1992,2030,2060
2042,2051,2072,2059,2058,2007,2040,2079
2043,2046,2069,2067,2046,2008,2046,2073
2041,2059,2061,2070,2044,2037,2066,2075
2045,2056,2060,2070,2072,2055,2072,2067
2049,2056,2051,2063,2069,2066,2054,2052
2041,2045,2037,2057,2051,2063,2027,2023
2032,2031,2030,2045,2035,2053,2050,2010
2035,2053,2047,2060,2049,2059,2040,2005
2045,2056,2060,2070,2065,2034,2024,2018
2052,2059,2062,2076,2039,1996,2034,2010
2054,2060,2064,2065,2009,2001,2041,2020
2047,2056,2059,2052,1997,2018,2020,2016
2047,2051,2050,2040,2012,2024,2042,2019
2047,2053,2048,2063,2060,2050,2046,2019
2051,2058,2059,2077,2102,2065,2064,2027
2048,2053,2053,2085,2123,2072,2054,2020
2037,2043,2045,2078,2122,2072,2064,2022
2024,2036,2039,2072,2104,2072,2067,2015
2026,2034,2044,2066,2081,2073,2053,2012
2026,2038,2044,2066,2058,2060,2060,2018
2044,2038,2031,2047,2013,2047,2047,2022
2044,2039,2033,2042,1990,2055,2052,2034
2054,2036,2030,2040,2043,2062,2054,2029
2046,2032,2028,2034,2045,2079,2055,2027
2052,2035,2045,2048,2045,2087,2061,2026
2044,2038,2051,2051,2045,2090,2063,2042
2036,2036,2049,2054,2044,2089,2066,2049
2028,2041,2054,2058,2060,2066,2066,2064
2045,2067,2070,2071,2068,2040,2072,2079
2053,2076,2076,2072,2072,2041,2067,2083
2056,2067,2072,2073,2064,2043,2050,2083
2052,2053,2059,2057,2059,2053,2035,2080
2040,2038,2041,2053,2049,2055,2046,2084
2056,2043,2051,2058,2053,2074,2073,2081
2059,2058,2061,2058,2022,2096,2040,2068
2046,2052,2056,2044,1946,2101,2005,2041
2027,2031,2030,2016,1879,2091,2018,2026
2026,2029,2030,2007,1863,2066,2010,2027
2034,2040,2039,2016,1895,2021,2013,2030
2050,2061,2061,2047,2009,1970,2044,2062
2088,2086,2078,2094,2127,1956,2069,2082
2091,2080,2062,2093,2158,2034,2082,2058
2078,2056,2036,2068,2131,2103,2075,2039
2070,2052,2027,2047,2103,2113,2047,2026
2054,2044,2022,2038,2064,2090,2040,2013
2041,2036,2022,2032,2018,2021,2039,2023
2036,2045,2028,2050,2046,1968,2044,2028
2043,2053,2025,2056,2074,1993,2055,2033
2045,2053,2018,2036,2041,2027,2048,2025
2042,2050,2007,2037,2060,2058,2047,2028
2044,2055,2020,2038,2079,2075,2051,2035
2054,2058,2036,2034,2073,2072,2060,2035
2056,2057,2048,2023,2084,2075,2076,2038
2061,2052,2049,2018,2090,2066,2065,2033
2055,2050,2053,2020,2089,2047,2056,2040
2061,2067,2073,2037,2091,2041,2040,2052
2058,2070,2078,2038,2042,2029,2051,2060
2055,2076,2086,2044,2024,2043,2050,2058
2052,2070,2070,2045,2066,2052,2038,2054
2056,2064,2073,2051,2097,2057,2052,2061
2054,2060,2078,2073,2082,2056,2054,2071
2058,2066,2092,2081,2058,2042,2061,2074
2052,2064,2095,2079,2042,2031,2045,2077
2047,2059,2083,2082,2057,2035,2046,2075
2044,2054,2083,2086,2066,2050,2033,2069
2035,2045,2071,2075,2045,2052,2054,2064
2036,2043,2068,2066,2014,2062,2051,2066
2042,2049,2071,2057,2006,2062,2038,2064
2036,2045,2060,2048,2007,2040,2045,2065
2037,2041,2054,2047,2025,2020,2039,2073
2044,2048,2060,2059,2100,2042,2053,2065
2048,2053,2060,2068,2128,2052,2044,2055
2047,2044,2046,2051,2100,2059,2066,2051
2044,2037,2037,2036,2080,2072,2060,2049
2043,2031,2025,2026,2062,2074,2057,2040
2037,2022,2015,2014,2046,2078,2061,2028
2041,2016,2012,2025,2058,2096,2067,2037
2052,2029,2026,2053,2088,2105,2080,2037
2058,2040,2038,2060,2103,2094,2068,2039
2057,2037,2031,2051,2094,2061,2071,2031
2056,2031,2022,2036,2061,2031,2053,2023
2040,2019,2026,2043,2043,2024,2037,2024
2039,2012,2019,2046,2041,2039,2030,2021
2033,2013,2016,2056,2044,2037,2041,2021
2026,2012,2019,2054,2044,2028,2047,2023
2019,2014,2022,2050,2039,2040,2051,2036
2045,2041,2040,2055,2044,2052,2045,2045
2055,2050,2038,2057,2058,2050,2054,2051
2059,2050,2037,2055,2083,2049,2054,2050
2061,2045,2032,2060,2093,2037,2057,2050
2061,2043,2030,2059,2090,2039,2062,2047
2043,2032,2034,2055,2076,2047,2060,2056
2045,2040,2045,2059,2054,2059,2068,2058
2039,2039,2047,2060,2035,2062,2060,2052
2034,2042,2050,2067,2057,2058,2053,2066
2041,2061,2067,2084,2042,2043,2065,2083
2057,2065,2089,2095,2002,2040,2055,2092
2059,2071,2096,2085,2011,2059,2056,2093
2045,2055,2082,2076,2033,2081,2060,2081
2039,2051,2079,2072,2094,2085,2062,2070
2038,2053,2078,2079,2132,2076,2060,2075
2043,2057,2087,2081,2124,2065,2058,2080
2054,2066,2078,2066,2051,2033,2046,2066
2041,2058,2066,2026,1938,2012,2048,2060
2041,2060,2063,2018,1868,2008,2043,2059
2050,2061,2055,2016,1913,2022,2043,2054
2062,2056,2044,1999,1955,2047,2045,2052
2055,2046,2040,2001,1967,2072,2042,2041
2039,2041,2043,2010,1990,2108,2049,2047
2058,2064,2069,2034,2038,2134,2068,2052
2072,2076,2077,2034,2068,2113,2072,2047
2065,2071,2076,2031,2093,2081,2067,2040
2068,2073,2081,2053,2090,2050,2063,2037
2058,2076,2077,2055,2048,2021,2064,2028
2056,2064,2071,2059,2066,2021,2048,2034
2060,2041,2051,2070,2091,2012,2042,2036
2058,2044,2048,2056,2057,1987,2041,2028
2050,2046,2048,2039,2036,1986,2045,2036
2046,2049,2056,2055,2048,2005,2052,2036
2055,2049,2057,2075,2095,2040,2055,2032
2050,2037,2050,2086,2120,2060,2052,2034
2048,2040,2049,2082,2117,2080,2047,2038
2052,2042,2050,2077,2094,2085,2051,2031
2045,2035,2042,2072,2068,2070,2057,2047
2053,2039,2045,2072,2051,2022,2040,2070
2050,2042,2056,2075,2079,2014,2049,2088
2051,2050,2056,2084,2101,2023,2055,2081
2042,2048,2045,2062,2088,2042,2052,2075
2043,2039,2040,2048,2094,2058,2058,2080
2046,2049,2043,2048,2081,2052,2063,2084
2051,2049,2042,2046,2067,2057,2058,2094
2047,2044,2042,2047,2055,2057,2049,2082
2046,2026,2040,2045,2044,2037,2040,2073
2028,2018,2042,2052,2051,2037,2033,2072
2032,2013,2049,2056,2061,2043,2025,2076
2040,2012,2054,2068,2086,2057,2034,2089
2047,2018,2058,2078,2091,2074,2045,2088
2053,2022,2056,2080,2092,2070,2032,2067
2040,2024,2046,2067,2081,2058,2043,2047
2023,2017,2038,2055,2069,2050,2013,2032
2016,2023,2037,2054,2037,2064,2034,2035
2045,2053,2056,2050,2001,2046,2033,2028
2051,2068,2062,2050,1968,2037,2033,2035
2065,2074,2058,2053,2000,2022,2041,2037
2069,2071,2059,2048,2006,1995,2054,2037
2053,2066,2063,2050,2039,1997,2039,2042
2048,2066,2054,2043,2078,2002,2061,2041
2042,2057,2036,2035,2065,2001,2064,2040
2045,2047,2023,2027,2016,2012,2057,2040
2038,2045,2025,2024,1992,2030,2049,2038
2048,2045,2024,2024,2012,2043,2060,2046
2063,2052,2033,2016,2027,2068,2058,2040
2060,2049,2030,2018,2055,2092,2055,2030
2049,2033,2023,2019,2036,2103,2051,2030
2040,2025,2013,1993,1839,2091,2042,2025
2033,2013,2002,1969,1777,2093,2015,2011
2023,2009,2008,1952,1782,2051,2005,2008
2018,2026,2023,1977,1855,1942,2025,2048
2040,2042,2045,2038,2030,1917,2059,2078
2048,2043,2052,2068,2100,1973,2069,2083
2044,2042,2053,2078,2115,2066,2087,2083
2047,2044,2056,2101,2184,2130,2096,2077
2040,2037,2056,2082,2122,2102,2067,2065
2027,2038,2044,2054,2071,2063,2034,2078
2041,2042,2045,2042,2105,2050,2049,2085
2047,2037,2048,2046,2130,2033,2021,2083
2047,2033,2042,2052,2144,2024,2016,2083
2054,2052,2057,2074,2140,2034,2043,2098
2086,2076,2067,2071,2099,2021,2038,2094
2097,2066,2060,2074,2098,2022,2026,2081
2085,2055,2051,2092,2130,2026,2033,2074
2078,2050,2049,2094,2163,2038,2030,2063
2049,2042,2052,2091,2156,2022,2025,2043
2020,2038,2060,2075,2096,2006,2025,2041
2033,2058,2064,2054,1977,2007,2026,2050
2040,2060,2061,2036,1983,2020,2028,2052
2040,2050,2057,2043,2059,2021,2038,2045
2051,2048,2053,2038,2049,2007,2016,2038
2055,2045,2049,2040,2019,2016,2010,2029
2044,2032,2044,2029,2005,2028,2029,2012
2031,2024,2040,2020,1989,2041,2031,2012
2033,2021,2037,2026,2027,2068,2039,2024
2047,2014,2037,2047,2086,2052,2036,2011
2045,2015,2048,2057,2107,2039,2045,2013
2046,2033,2058,2078,2149,2056,2034,2023
2046,2041,2071,2076,2176,2086,2047,2039
2062,2066,2073,2052,2120,2086,2048,2035
2066,2057,2066,2030,2086,2097,2048,2030
2067,2050,2054,2013,2039,2088,2050,2031
2053,2036,2040,2012,2004,2070,2024,2042
2051,2030,2038,2003,1911,2045,2019,2039
2047,2041,2038,1991,1924,2025,2027,2030
2039,2043,2041,2018,2003,2027,2025,2048
2043,2062,2064,2059,2105,2037,2045,2066
2046,2064,2064,2077,2134,2065,2050,2066
2045,2061,2061,2068,2138,2096,2047,2078
2056,2058,2055,2060,2137,2113,2059,2079
2055,2048,2042,2055,2127,2122,2056,2080
2061,2049,2040,2050,2123,2140,2060,2088
2067,2042,2030,2039,2118,2093,2067,2097
2065,2036,2024,2020,2116,2083,2060,2084
2053,2030,2017,2025,2084,2088,2053,2070
2049,2029,2032,2035,2052,2096,2075,2068
2054,2029,2019,2016,1974,2087,2075,2063
2046,2027,2022,2007,1894,2067,2072,2068
2052,2027,2021,1992,1839,2027,2064,2053
2047,2033,2018,2004,1927,2020,2064,2039
2049,2037,2030,2041,2052,2018,2054,2030
2041,2047,2044,2062,2082,2025,2060,2031
2046,2061,2062,2068,2080,2045,2064,2031
2056,2061,2062,2069,2057,2043,2050,2024
2048,2052,2056,2063,2045,2040,2042,2002
2038,2044,2053,2056,2032,2033,2019,2000
2028,2027,2041,2039,2019,2040,2016,2006
2022,2017,2041,2036,2015,2056,2041,2026
2048,2042,2068,2048,2025,2048,2051,2038
2072,2051,2069,2055,2021,2026,2038,2025
2071,2055,2073,2069,2023,2038,2055,2025
2072,2069,2084,2077,2029,2063,2052,2027
2062,2063,2082,2070,2031,2063,2058,2023
2050,2055,2068,2063,2029,2057,2047,2028
2050,2050,2064,2067,2023,2054,2051,2030
2052,2055,2065,2069,2025,2057,2048,2028
2043,2056,2065,2072,2024,2052,2052,2031
2046,2061,2059,2059,2019,2047,2045,2036
2049,2060,2057,2048,2008,2036,2059,2053
2054,2057,2065,2047,2017,2025,2055,2059
2045,2059,2052,2037,2026,2017,2030,2058
2039,2038,2037,2021,2023,2021,2031,2064
2045,2027,2027,2011,2032,2017,2024,2072
2058,2022,2023,2021,2026,2027,2054,2069
2065,2033,2032,2024,2048,2029,2047,2076
2065,2018,2021,2025,2092,2028,2033,2070
2055,2015,2019,2040,2129,2027,2031,2064
2064,2035,2038,2051,2154,2029,2036,2049
2050,2041,2042,2038,2069,2009,2026,2031
2028,2045,2046,2033,1980,2005,2025,2037
2027,2057,2056,2040,1975,2017,2034,2050
2040,2062,2055,2040,1988,2029,2036,2043
2041,2055,2049,2038,2005,2037,2049,2032
2044,2053,2043,2041,2018,2051,2031,2032
2054,2055,2044,2048,2025,2059,2060,2041
2063,2056,2044,2045,2042,2078,2055,2041
2052,2047,2042,2047,2049,2086,2075,2042
2056,2052,2037,2042,2047,2091,2074,2024
2059,2053,2032,2035,2043,2076,2076,2034
2066,2048,2034,2039,2034,2061,2066,2033
2068,2042,2036,2038,2006,2038,2059,2021
2075,2027,2030,2032,1988,2024,2038,2004
2063,2021,2036,2033,1985,2016,2039,1990
2063,2028,2048,2039,1980,2029,2028,2004
2058,2041,2067,2048,1991,2030,2039,2013
2048,2047,2068,2049,2004,2031,2050,2016
2039,2045,2066,2052,2045,2040,2050,2012
2026,2051,2062,2057,2074,2040,2060,2012
2048,2062,2059,2058,2085,2058,2064,2036
2056,2071,2067,2069,2150,2084,2066,2054
2065,2066,2063,2068,2186,2102,2054,2047
2061,2053,2052,2060,2180,2100,2063,2053
2058,2057,2055,2059,2151,2114,2078,2059
2063,2056,2056,2042,2083,2124,2075,2064
2060,2056,2046,2026,2034,2120,2079,2067
2056,2048,2039,2016,1987,2096,2079,2068
2057,2051,2036,2003,1925,2042,2061,2072
2056,2053,2043,2013,1982,1993,2055,2091
2064,2053,2056,2053,2092,1995,2061,2095
2071,2054,2050,2068,2105,2001,2051,2097
2069,2059,2050,2072,2130,2009,2048,2086
2061,2056,2056,2068,2085,2000,2030,2066
2045,2045,2050,2060,2086,2031,2042,2055
2051,2047,2048,2053,2162,2056,2051,2059
2055,2051,2045,2025,2101,2053,2057,2062
2060,2051,2046,2022,2015,2068,2044,2061
2061,2048,2052,2042,2017,2078,2054,2056
2057,2044,2051,2037,2079,2047,2048,2037
2049,2035,2040,2009,2046,2004,2037,2019
2038,2016,2020,1984,1983,1988,2015,2005
2029,2006,2003,1966,1893,2007,2022,2001
2031,2007,2012,1985,1888,2028,2023,2008
2037,2031,2040,2043,2004,2064,2032,2006
2037,2054,2058,2063,2049,2063,2037,2010
2046,2065,2065,2063,2061,2050,2045,2019
2056,2059,2068,2054,2043,2035,2043,2016
2047,2050,2057,2054,2057,2057,2047,2010
2043,2052,2049,2051,2050,2094,2057,2012
2052,2042,2051,2042,2049,2077,2055,2024
2056,2042,2055,2051,2054,2040,2057,2029
2060,2046,2054,2060,2055,2036,2050,2036
2057,2041,2047,2057,2065,2059,2055,2039
2056,2051,2058,2059,2079,2093,2061,2039
2051,2050,2051,2041,2029,2133,2058,2029
2044,2044,2045,2022,1961,2131,2062,2027
2039,2036,2034,2011,1918,2113,2046,2023
2036,2037,2031,1998,1894,2066,2038,2033
2027,2038,2034,2016,1948,1963,2039,2056
2042,2053,2052,2064,2085,1933,2080,2083
2058,2059,2060,2090,2163,1988,2092,2097
2069,2062,2064,2080,2169,2046,2091,2096
2054,2050,2057,2064,2147,2080,2085,2086
2055,2037,2036,2037,2054,2060,2063,2082
2049,2038,2033,2016,1945,2016,2027,2091
2057,2049,2043,2003,1878,1975,2026,2085
2062,2042,2038,1995,1871,1944,2014,2066
2050,2041,2044,2015,1957,1979,2032,2056
2053,2058,2056,2067,2072,2042,2047,2058
2058,2057,2069,2082,2117,2058,2046,2067
2066,2053,2071,2080,2107,2070,2052,2064
2060,2047,2051,2062,2079,2084,2057,2056
2054,2045,2041,2060,2074,2092,2061,2036
2054,2040,2031,2068,2130,2103,2058,2031
2047,2031,2024,2054,2133,2119,2064,2027
2043,2032,2025,2044,2068,2112,2076,2032
2048,2037,2033,2042,1993,2092,2071,2036
2043,2036,2033,2032,1955,2090,2070,2025
2054,2038,2030,2023,1972,2077,2064,2020
2047,2039,2030,2015,1958,2029,2042,2005
2033,2030,2018,2007,1963,2015,2039,2001
2035,2033,2024,2020,2052,2007,2051,2014
2040,2045,2037,2050,2140,2012,2072,2023
2041,2039,2046,2068,2168,2039,2058,2029
2051,2049,2042,2085,2181,2052,2052,2028
2062,2045,2040,2072,2149,2037,2042,2010
2060,2039,2042,2064,2103,2032,2038,2019
2062,2043,2045,2057,2078,2020,2037,2029
2055,2040,2038,2049,2052,2008,2031,2024
2040,2037,2038,2053,2070,2011,2034,2038
2042,2049,2048,2062,2090,2016,2034,2056
2046,2049,2050,2061,2089,2008,2040,2058
2048,2047,2040,2060,2085,2007,2040,2059
2052,2043,2035,2062,2078,2001,2035,2054
2045,2050,2044,2053,2070,2001,2016,2061
2046,2048,2050,2056,2069,2002,2025,2079
2046,2045,2046,2058,2062,2000,2018,2076
2041,2039,2044,2055,2054,2011,2017,2082
2041,2045,2047,2056,2060,2027,2018,2089
2050,2048,2043,2058,2059,2054,2042,2085
2050,2047,2040,2056,2056,2068,2032,2075
2050,2041,2033,2051,2051,2069,2035,2068
2052,2039,2026,2043,2055,2084,2026,2063
2051,2025,2013,2042,2052,2090,2035,2049
2044,2010,2010,2040,2051,2107,2044,2035
2036,2017,2012,2042,2053,2109,2057,2026
2029,2016,2014,2043,2030,2090,2056,2027
2025,2009,2006,2032,2013,2078,2044,2032
2020,2012,2005,2032,2023,2073,2034,2039
2037,2035,2023,2042,2027,2083,2034,2039
2051,2052,2021,2043,2026,2084,2035,2038
2065,2052,2014,2041,2020,2079,2017,2034
2060,2038,2004,2036,2030,2085,2038,2028
2054,2024,2001,2032,2042,2092,2027,2028
2046,2025,2005,2038,2049,2084,2029,2035
2051,2027,2011,2051,2052,2047,2037,2029
2053,2034,2017,2047,2039,2029,2033,2012
2043,2030,2020,2046,2041,2045,2010,2010
2033,2021,2024,2039,2038,2079,2041,2021
2034,2022,2030,2043,2032,2113,2049,2035
2035,2027,2032,2043,2022,2119,2028,2040
2037,2023,2035,2036,2011,2066,2016,2038
2041,2028,2040,2032,2005,1965,2020,2035
2042,2033,2044,2038,2004,1966,2039,2044
2045,2032,2049,2045,2011,2025,2051,2049
2049,2035,2053,2038,2031,2060,2051,2055
2047,2040,2062,2038,2048,2072,2056,2067
2054,2051,2062,2041,2073,2070,2062,2078
2059,2051,2066,2046,2090,2054,2072,2089
2071,2048,2069,2052,2086,2043,2057,2084
2063,2046,2057,2041,2070,2031,2052,2086
2062,2051,2058,2042,2060,2062,2056,2080
2056,2052,2066,2050,2047,2069,2050,2066
2042,2047,2062,2040,2038,2052,2031,2064
2035,2047,2059,2042,2039,2041,2033,2056
2049,2060,2065,2046,2040,2055,2047,2056
2045,2060,2060,2052,2053,2062,2038,2047
2045,2062,2055,2056,2047,2068,2044,2043
2044,2064,2059,2050,2053,2072,2039,2035
2051,2065,2053,2056,2054,2055,2031,2023
2047,2066,2057,2051,2051,2038,2044,2030
2053,2069,2058,2048,2038,2029,2029,2035
2052,2062,2056,2045,2047,2014,2034,2032
2043,2062,2055,2047,2056,2006,2036,2037
2051,2064,2057,2053,2065,2015,2035,2032
2055,2062,2053,2051,2074,2022,2055,2031
2058,2052,2046,2053,2083,2014,2037,2027
2043,2037,2039,2041,2061,2007,2020,2020
2054,2035,2033,2038,2058,2007,2020,2024
2060,2045,2047,2051,2062,2018,2020,2021
2047,2043,2049,2050,2061,2037,2023,2020
2045,2046,2047,2054,2061,2046,2033,2026
2034,2039,2031,2048,2057,2051,2053,2030
2037,2045,2030,2059,2060,2051,2046,2036
2037,2035,2032,2063,2058,2049,2040,2042
2040,2036,2036,2058,2050,2049,2049,2044
2039,2036,2034,2059,2053,2061,2053,2045
2045,2032,2024,2053,2050,2060,2034,2043
2036,2032,2023,2045,2037,2040,2028,2051
2046,2029,2012,2043,2031,2045,2041,2062
2044,2038,2017,2052,2041,2057,2039,2064
2046,2040,2022,2054,2052,2064,2041,2068
2050,2046,2021,2049,2049,2086,2037,2075
2052,2040,2018,2044,2045,2097,2051,2072
2047,2030,2018,2039,2039,2091,2034,2069
2040,2037,2029,2042,2044,2084,2027,2072
2054,2037,2033,2030,2039,2083,2029,2069
2044,2044,2031,2020,2033,2075,2038,2061
2046,2046,2048,2017,2031,2064,2041,2057
2039,2042,2053,2011,2030,2068,2034,2055
2042,2043,2054,2013,2026,2050,2036,2057
2052,2058,2076,2031,2033,2028,2022,2055
2060,2067,2087,2045,2043,2034,2032,2050
2064,2074,2094,2050,2047,2045,2037,2042
2062,2070,2090,2052,2057,2084,2054,2037
2062,2066,2083,2049,2063,2127,2065,2040
2060,2055,2077,2050,2061,2136,2075,2035
2062,2055,2078,2047,2060,2127,2067,2040
2063,2058,2073,2048,2061,2122,2051,2027
2056,2057,2074,2050,2065,2120,2051,2022
2045,2044,2063,2044,2064,2069,2023,2016
2037,2039,2050,2044,2060,2029,2016,2011
2036,2039,2054,2045,2059,2019,2030,2013
2043,2042,2049,2042,2060,2015,2038,2016
2030,2029,2043,2042,2056,1998,2040,2016
2025,2026,2042,2034,2055,1981,2037,2022
2027,2032,2027,2035,2058,1989,2041,2032
2041,2027,2036,2035,2064,2001,2056,2045
2053,2026,2039,2037,2067,2016,2062,2046
2061,2030,2051,2033,2068,2026,2054,2056
2058,2031,2047,2032,2056,2026,2036,2055
2039,2029,2038,2032,2047,2034,2022,2054
2042,2027,2032,2030,2043,2034,2031,2082
2035,2024,2028,2023,2040,2025,2034,2075
2037,2020,2020,2024,2028,2014,2016,2060
2027,2021,2017,2017,2033,2032,2027,2066
2030,2022,2016,2020,2036,2034,2026,2072
2030,2012,2008,2015,2036,2036,2037,2071
2025,2021,2025,2023,2039,2045,2049,2079
2041,2038,2047,2030,2046,2069,2078,2076
2049,2050,2064,2039,2053,2077,2081,2073
2050,2053,2066,2040,2052,2093,2083,2065
2046,2050,2070,2038,2050,2101,2050,2045
2038,2057,2071,2041,2054,2099,2047,2036
2038,2051,2060,2043,2047,2045,2006,2022
2041,2044,2055,2038,2036,2033,1996,2022
2043,2046,2060,2033,2042,2037,2018,2023
2039,2051,2060,2037,2037,2039,2023,2030
2041,2059,2064,2040,2041,2032,2046,2035
2044,2055,2065,2037,2032,2045,2048,2033
2039,2052,2068,2035,2028,2052,2052,2027
2047,2056,2066,2037,2030,2059,2044,2032
2050,2059,2069,2037,2035,2062,2050,2022
2045,2053,2063,2029,2032,2060,2039,2020
2036,2042,2054,2028,2023,2054,2040,2015
2041,2040,2053,2031,2024,2062,2042,2026
2048,2048,2056,2031,2030,2069,2079,2031
2051,2043,2052,2032,2033,2073,2049,2024
2051,2044,2054,2033,2028,2066,2034,2024
2041,2047,2054,2037,2032,2041,2016,2031
2053,2056,2057,2047,2036,2024,2032,2025
2051,2058,2065,2046,2044,2017,2024,2023
2046,2055,2059,2046,2052,1993,2022,2035
2049,2047,2057,2046,2061,1964,2033,2045
2052,2042,2052,2046,2064,1981,2056,2052
2052,2039,2046,2034,2042,2029,2034,2042
2044,2031,2040,2017,1991,2056,2023,2049
2040,2030,2039,2002,1956,2068,2030,2051
2038,2032,2041,1995,1930,2064,2016,2052
2029,2030,2037,2003,1927,2046,2029,2073
2036,2037,2050,2031,2020,2027,2031,2086
2045,2045,2060,2071,2132,2123,2062,2092
2056,2051,2064,2075,2158,2168,2073,2096
2062,2071,2071,2076,2140,2133,2078,2090
2058,2064,2066,2057,2095,2139,2089,2073
2048,2055,2048,2032,2039,2180,2074,2063
2040,2050,2044,2019,2012,2223,2068,2047
2037,2047,2039,2017,2005,2157,2046,2037
2040,2053,2040,2029,2013,2004,2046,2030
2040,2050,2044,2036,2017,1859,2040,2033
2041,2045,2040,2043,2045,1882,2043,2034
2046,2049,2055,2057,2076,1961,2062,2034
2048,2053,2063,2067,2092,2000,2054,2029
2050,2056,2058,2068,2108,2018,2040,2031
2050,2053,2055,2063,2104,2044,2029,2034
2050,2046,2051,2054,2084,2056,2036,2029
2052,2047,2043,2040,2061,2054,2044,2024
2046,2045,2047,2035,2050,2041,2021,2011
2043,2034,2035,2034,2038,2026,2020,2018
2039,2044,2039,2037,2050,2046,2050,2022
2041,2042,2038,2041,2061,2064,2054,2024
2037,2044,2046,2050,2077,2066,2065,2029
2045,2050,2041,2054,2075,2051,2064,2024
2058,2048,2040,2051,2073,2026,2061,2029
2054,2047,2048,2056,2079,2018,2065,2024
2047,2047,2045,2054,2075,2024,2051,2035
2042,2042,2048,2049,2065,2040,2060,2040
2044,2039,2059,2054,2056,2014,2049,2045
2047,2048,2068,2061,2055,1987,2033,2047
2049,2052,2072,2056,2058,2000,2035,2050
2046,2044,2069,2058,2060,2021,2029,2057
2034,2037,2059,2049,2033,2034,2030,2060
2033,2033,2052,2045,2010,2067,2049,2057
2030,2032,2040,2035,1994,2098,2045,2050
2025,2020,2035,2030,1981,2112,2025,2057
2027,2021,2030,2037,1996,2057,2004,2075
2041,2038,2046,2052,2038,2027,2034,2074
2045,2043,2044,2053,2077,2026,2046,2078
2043,2037,2043,2050,2087,2052,2042,2072
2041,2046,2054,2049,2083,2079,2016,2061
2037,2051,2070,2051,2072,2087,2035,2055
2035,2054,2070,2052,2056,2085,2050,2042
2039,2058,2060,2040,2055,2044,2049,2034
2045,2050,2054,2026,2053,2032,2040,2032
2042,2053,2046,2029,2051,2033,2046,2021
2038,2053,2040,2014,2013,2029,2028,2022
2039,2036,2024,1992,1971,2040,2030,2016
2031,2029,2002,1974,1950,2034,2036,2011
2024,2023,2003,1978,1957,2016,2028,2007
2025,2024,2007,1983,1992,2015,2045,2009
2028,2028,2022,2016,2067,2015,2034,2016
2044,2042,2043,2056,2117,2018,2040,2027
2045,2052,2055,2068,2131,2051,2067,2041
2045,2067,2059,2054,2113,2066,2084,2036
2047,2060,2047,2041,2080,2046,2058,2043
2057,2059,2047,2025,2057,2028,2057,2035
2054,2049,2041,2025,2051,2021,2070,2033
2054,2049,2039,2030,2053,2021,2054,2036
2050,2049,2048,2037,2043,2014,2048,2042
2049,2050,2043,2032,2031,2011,2019,2053
2049,2047,2047,2034,2034,2017,2044,2062
2040,2051,2049,2034,2054,2023,2040,2069
2041,2054,2044,2037,2080,2030,2042,2075
2044,2052,2050,2045,2084,2036,2054,2069
2042,2050,2049,2044,2080,2024,2048,2083
2050,2053,2048,2041,2073,2015,2040,2082
2052,2059,2044,2044,2054,2019,2033,2083
2048,2054,2038,2037,2030,2031,2051,2068
2042,2038,2027,2025,2037,2062,2045,2064
2032,2036,2028,2032,2043,2098,2061,2068
2030,2041,2034,2025,2042,2095,2052,2062
2035,2042,2033,2034,2029,2076,2040,2060
2036,2048,2036,2031,2032,2056,2043,2051
2036,2055,2040,2037,2039,2062,2049,2057
2042,2052,2034,2038,2047,2066,2055,2052
2046,2051,2035,2042,2044,2060,2064,2046
2039,2051,2041,2043,2047,2063,2042,2041
2045,2051,2047,2040,2050,2066,2065,2033
2051,2054,2041,2046,2054,2065,2056,2041
2049,2054,2045,2046,2050,2059,2056,2032
2049,2050,2045,2043,2048,2047,2057,2028
2047,2052,2046,2047,2044,2048,2047,2031
2050,2053,2050,2043,2049,2061,2046,2022
2052,2053,2048,2044,2050,2055,2043,2017
2044,2044,2043,2032,2041,2054,2046,2018
2038,2037,2050,2044,2050,2053,2038,2018
2043,2048,2052,2047,2053,2058,2031,2022
2050,2048,2046,2049,2052,2053,2041,2023
2046,2046,2045,2052,2057,2058,2062,2025
2044,2045,2050,2042,2062,2055,2045,2019
2041,2046,2042,2042,2059,2056,2043,2030
2049,2046,2048,2047,2047,2063,2060,2037
2042,2050,2041,2049,2024,2059,2058,2043
2044,2042,2042,2052,2049,2061,2030,2049
2048,2042,2038,2050,2031,2062,2045,2060
2043,2039,2040,2055,2044,2066,2050,2055
2041,2043,2042,2053,2054,2058,2050,2066
2052,2041,2045,2055,2075,2066,2068,2083
2052,2042,2040,2057,2104,2080,2082,2078
2045,2043,2043,2057,2117,2080,2088,2066
2030,2038,2040,2037,2105,2064,2066,2063
2022,2018,2035,2037,2108,2056,2068,2078
2032,2036,2035,2035,2074,2061,2079,2092
2050,2063,2052,2038,2006,2051,2083,2084
2063,2065,2053,2017,1910,2047,2096,2087
2059,2061,2046,2016,1937,2077,2094,2076
2052,2060,2050,2028,1984,2092,2097,2067
2056,2058,2052,2037,2039,2102,2092,2068
2052,2065,2049,2054,2067,2097,2085,2066
2060,2067,2055,2060,2076,2065,2081,2062
2052,2057,2052,2055,2062,2046,2069,2058
2054,2057,2050,2062,2081,2063,2057,2049
2057,2060,2049,2059,2080,2064,2065,2036
2047,2052,2040,2049,2067,2052,2065,2021
2046,2046,2045,2058,2071,2072,2074,2011
2037,2043,2039,2046,2065,2072,2044,2008
2038,2041,2028,2039,2043,2069,2035,2004
2034,2043,2032,2032,2026,2053,2032,1999
2030,2030,2027,2022,2022,2038,2027,2009
2031,2026,2021,2029,2023,2018,2043,2016
2039,2040,2040,2032,2030,2016,2037,2014
2042,2036,2034,2036,2037,2008,2033,2015
2042,2038,2032,2036,2040,1993,2026,2014
2036,2035,2032,2030,2033,2013,2053,2018
2042,2032,2036,2038,2045,2032,2042,2020
2041,2034,2037,2037,2036,2025,2045,2024
2045,2035,2034,2037,2041,2017,2043,2032
2043,2036,2037,2036,2044,2008,2033,2034
2039,2040,2041,2033,2041,2000,2040,2038
2037,2042,2033,2035,2039,2005,2038,2040
2035,2031,2024,2036,2041,2017,2040,2048
2033,2030,2030,2039,2048,2033,2044,2049
2030,2034,2033,2042,2056,2049,2048,2056
2040,2037,2040,2045,2064,2070,2062,2069
2047,2040,2035,2044,2057,2061,2076,2075
2040,2034,2035,2039,2065,2064,2063,2057
2040,2047,2041,2043,2068,2077,2057,2068
2049,2061,2051,2045,2060,2074,2087,2072
2055,2057,2053,2047,2057,2084,2097,2068
2052,2057,2056,2053,2059,2090,2089,2060
2044,2055,2056,2045,2045,2070,2060,2047
2038,2048,2050,2040,2025,2041,2052,2039
2034,2039,2039,2040,2019,1993,2017,2031
2032,2032,2038,2034,2013,1995,2031,2036
2039,2036,2035,2042,2021,2037,2047,2034
2044,2051,2044,2053,2028,2079,2049,2036
2053,2058,2056,2056,2026,2070,2061,2032
2052,2052,2051,2050,2019,2052,2068,2029
2053,2053,2049,2046,2028,2050,2065,2033
2052,2049,2045,2043,2018,2041,2062,2028
2052,2052,2042,2034,2014,2032,2054,2024
2038,2045,2032,2027,2004,1996,2045,2012
2034,2039,2038,2031,1992,1994,2033,2008
2044,2047,2040,2023,1974,2030,2042,2008
2045,2048,2039,2014,1934,1992,2034,2018
2040,2038,2028,1997,1922,1954,2014,2027
2046,2040,2032,1996,1918,1986,2042,2015
2051,2045,2036,1995,1924,1978,2045,2030
2045,2050,2042,2021,2010,2009,2072,2042
2064,2058,2051,2044,2080,2090,2088,2038
2065,2062,2051,2045,2099,2176,2085,2047
2068,2064,2049,2052,2133,2265,2103,2056
2066,2065,2046,2054,2146,2228,2086,2070
2069,2055,2038,2048,2151,2112,2079,2068
2059,2045,2031,2040,2114,2006,2040,2067
2058,2039,2022,2024,2075,2016,2035,2067
2048,2044,2025,2022,2046,2047,2047,2066
2051,2052,2030,2026,2034,2028,2038,2060
2046,2044,2026,2017,2041,1987,2037,2068
2039,2045,2028,2033,2064,1948,2047,2080
2058,2055,2046,2041,2072,1936,2060,2068
2044,2051,2040,2038,2059,1967,2068,2064
2051,2044,2039,2032,2062,1992,2038,2056
2053,2051,2040,2042,2086,2029,2067,2062
2053,2047,2040,2044,2081,2052,2069,2053
2055,2049,2042,2048,2072,2047,2060,2050
2050,2040,2033,2046,2071,2042,2052,2037
2042,2028,2029,2049,2065,2034,2054,2021
2040,2036,2035,2046,2068,2031,2042,2018
2034,2033,2039,2047,2072,2026,2043,2025
2036,2031,2038,2043,2039,2026,2058,2027
2038,2045,2039,2042,2000,2033,2054,2030
2042,2041,2034,2036,1985,2071,2057,2029
2050,2043,2034,2033,2012,2091,2075,2028
2048,2034,2011,2019,2018,2096,2044,2014
2034,2014,2000,2010,2022,2096,2065,2006
2036,2021,2020,2016,2018,2094,2060,2012
2046,2044,2038,2023,1998,2079,2046,2010
2055,2054,2054,2033,2005,2033,2036,2022
2057,2058,2057,2043,2049,1964,2037,2021
2053,2061,2063,2040,2059,1966,2030,2023
2051,2060,2065,2043,2066,2002,2035,2026
2051,2054,2065,2040,2078,2021,2033,2022
2054,2051,2068,2034,2112,2035,2042,2026
2050,2050,2059,2034,2111,2048,2045,2035
2048,2042,2054,2028,2090,2031,2047,2050
2043,2044,2047,2029,2074,2026,2058,2056
2046,2050,2051,2031,2065,2022,2054,2062
2048,2053,2052,2033,2055,2027,2036,2058
2037,2051,2058,2025,2046,2026,2031,2057
2028,2048,2053,2020,2030,2019,2032,2064
2028,2039,2045,2016,2021,2006,2022,2074
2033,2037,2048,2008,2004,2010,2036,2080
2044,2047,2060,2019,2007,2021,2050,2069
2038,2043,2058,2013,2006,2035,2036,2065
2044,2035,2046,2002,1999,2084,2046,2066
2038,2041,2043,2012,1997,2122,2065,2061
2044,2052,2056,2026,2004,2144,2060,2043
2050,2057,2058,2028,2003,2131,2062,2051
2051,2056,2064,2034,2023,2071,2070,2046
2050,2060,2080,2045,2051,2038,2068,2051
2054,2066,2080,2052,2059,2049,2057,2045
2060,2058,2074,2044,2045,2077,2060,2034
2050,2053,2061,2036,2025,2091,2056,2037
2044,2045,2050,2028,2025,2054,2053,2034
2045,2046,2051,2038,2063,2038,2042,2037
2048,2047,2057,2051,2089,2060,2089,2044
2052,2052,2069,2054,2103,2090,2075,2043
2052,2034,2051,2049,2085,2100,2072,2037
2051,2027,2045,2042,2061,2087,2070,2034
2052,2031,2046,2040,2040,2066,2046,2039
2053,2039,2041,2040,2050,2053,2039,2037
2053,2044,2044,2039,2054,2046,2041,2036
2051,2044,2042,2040,2057,2043,2046,2029
2049,2040,2048,2041,2048,2032,2039,2042
2049,2042,2047,2039,2047,2014,2040,2043
2046,2045,2042,2039,2050,2000,2041,2040
2041,2044,2046,2037,2034,1997,2061,2054
2052,2058,2058,2044,2025,1983,2077,2065
2047,2051,2053,2043,2019,1992,2068,2052
2041,2050,2040,2024,2002,2017,2053,2051
2029,2030,2034,2013,2009,2049,2018,2052
2034,2038,2041,2037,2044,2065,2029,2074
2041,2045,2049,2054,2053,2074,2063,2089
2041,2042,2037,2050,2058,2059,2070,2074
2031,2020,2013,2045,2076,2060,2059,2076
2030,2020,2018,2043,2069,2055,2045,2079
2044,2041,2027,2046,2056,2048,2046,2069
2051,2040,2031,2051,2046,2054,2034,2070
2052,2042,2035,2045,2042,2057,2022,2066
2041,2037,2024,2044,2045,2066,2044,2068
2044,2038,2021,2048,2037,2062,2066,2070
2046,2036,2016,2052,2040,2062,2048,2063
2042,2026,2009,2051,2034,2063,2046,2049
2036,2022,2006,2044,2036,2055,2041,2040
2039,2024,1997,2038,2030,2055,2045,2034
2029,2029,2002,2038,2031,2059,2062,2035
2037,2030,2010,2038,2030,2062,2054,2034
2033,2026,1999,2035,2030,2060,2056,2034
2040,2027,2006,2036,2029,2052,2057,2029
2038,2030,2018,2043,2040,2060,2055,2023
2046,2043,2022,2046,2039,2058,2047,2014
2041,2040,2027,2046,2034,2050,2056,2019
2035,2032,2038,2041,2028,2049,2062,2028
2040,2039,2038,2037,2022,2036,2051,2024
2038,2039,2036,2027,2024,2034,2050,2026
2035,2048,2048,2032,2024,2045,2052,2040
2053,2053,2057,2042,2034,2043,2043,2045
2054,2059,2067,2041,2034,2033,2059,2046
2051,2060,2062,2029,2034,2032,2056,2048
2052,2051,2058,2024,2028,2048,2057,2056
2054,2051,2051,2026,2031,2056,2043,2054
2052,2051,2051,2033,2024,2051,2035,2064
2054,2052,2068,2037,2021,2050,2034,2072
2050,2062,2081,2052,2032,2059,2028,2084
2047,2071,2095,2056,2026,2044,2017,2089
2053,2072,2102,2067,2029,2020,2031,2092
2056,2066,2095,2064,2030,2031,2032,2087
2054,2056,2082,2054,2032,2027,2028,2080
2055,2043,2074,2053,2038,2033,2027,2079
2052,2046,2065,2054,2031,2033,2022,2073
2051,2051,2065,2049,2026,2035,2037,2076
2047,2044,2058,2045,2024,2043,2031,2071
2047,2054,2063,2047,2039,2060,2029,2067
2049,2063,2059,2048,2053,2064,2043,2069
2047,2063,2064,2053,2067,2068,2028,2060
2047,2068,2062,2050,2057,2062,2035,2052
2055,2062,2057,2047,2044,2056,2032,2041
2050,2062,2048,2038,2045,2052,2033,2039
2049,2056,2047,2033,2054,2055,2065,2043
2052,2065,2054,2036,2045,2048,2062,2049
2054,2070,2054,2034,2049,2043,2066,2046
2064,2067,2046,2027,2044,2038,2071,2044
2056,2058,2039,2024,2040,2040,2073,2041
2057,2054,2034,2018,2036,2036,2055,2026
2043,2039,2024,2015,2016,2036,2041,2021
2038,2039,2027,2016,2021,2038,2034,2022
2042,2045,2032,2026,2019,2009,2046,2024
2040,2047,2035,2026,2022,2018,2052,2028
2045,2047,2038,2034,2026,2029,2042,2032
2047,2042,2042,2034,2028,2039,2080,2031
2054,2044,2042,2036,2028,2029,2075,2044
2052,2050,2045,2042,2025,2025,2070,2048
2060,2046,2042,2036,2028,2024,2077,2054
2054,2046,2050,2040,2022,2031,2063,2062
2052,2045,2059,2051,2011,2029,2069,2064
2049,2040,2064,2054,2004,2022,2050,2068
2048,2033,2061,2051,2001,2021,2049,2069
2045,2030,2052,2037,1991,2004,2047,2072
2039,2033,2046,2052,2023,2007,2060,2084
2054,2044,2059,2077,2059,2035,2081,2089
2050,2044,2059,2090,2068,2041,2056,2078
2044,2028,2044,2084,2051,2071,2049,2076
2039,2020,2032,2066,2004,2086,2052,2071
2033,2021,2031,2039,1953,2078,2053,2050
2031,2025,2018,2024,1908,2072,2038,2043
2025,2018,2020,2022,1900,2019,2036,2050
2036,2025,2027,2041,1976,1991,2053,2059
2046,2037,2031,2066,2041,1996,2066,2064
2042,2032,2016,2057,2050,2043,2054,2052
2044,2027,2017,2048,2057,2106,2063,2051
2044,2028,2020,2057,2072,2127,2080,2048
2050,2029,2019,2054,2097,2147,2069,2036
2050,2032,2021,2046,2100,2154,2090,2040
2039,2030,2013,2026,2060,2095,2055,2031
2043,2024,2010,2026,2067,2051,2062,2032
2039,2025,2010,2029,2063,2050,2072,2027
2047,2031,2017,2025,2048,2043,2051,2025
2042,2032,2024,2029,2042,2050,2063,2029
2045,2036,2039,2028,2038,2065,2071,2039
2054,2049,2063,2025,2048,2073,2079,2042
2065,2064,2069,2017,2047,2076,2073,2047
2070,2068,2060,2013,2034,2062,2078,2052
2073,2059,2048,2008,2036,2007,2059,2056
2068,2060,2041,2015,2035,1958,2063,2056
2071,2058,2041,2023,2029,1961,2049,2053
2071,2058,2043,2026,2028,1975,2039,2053
2058,2059,2049,2040,2034,1985,2033,2064
2063,2060,2058,2045,2043,2003,2057,2069
2062,2062,2065,2057,2056,2022,2037,2076
2070,2060,2065,2056,2052,2028,2048,2089
2068,2060,2065,2054,2048,2043,2064,2086
2060,2057,2062,2056,2056,2051,2062,2082
2055,2052,2054,2054,2054,2054,2053,2080
2052,2059,2064,2052,2056,2064,2034,2069
2042,2039,2051,2046,2043,2074,2061,2080
2043,2042,2047,2049,2035,2053,2054,2085
2048,2050,2060,2052,2034,2028,2036,2085
2056,2054,2064,2055,2016,2013,2034,2085
2059,2055,2066,2050,2016,2021,2026,2078
2058,2054,2071,2047,2033,2050,2034,2071
2051,2053,2068,2038,2051,2067,2045,2061
2051,2049,2067,2034,2060,2075,2042,2055
2052,2058,2078,2040,2062,2084,2059,2055
2045,2056,2077,2054,2085,2065,2074,2052
2052,2053,2075,2058,2097,2016,2069,2050
2052,2051,2069,2064,2101,2018,2078,2046
2053,2043,2051,2064,2067,2025,2064,2042
2058,2039,2049,2061,2037,2041,2068,2041
2068,2037,2045,2054,1967,2036,2070,2047
2066,2037,2043,2049,1938,2029,2053,2051
2065,2033,2031,2051,1978,2068,2060,2026
2048,2016,2025,2064,2046,2106,2058,2011
2031,2012,2032,2070,2063,2133,2056,2016
2038,2025,2046,2077,2056,2131,2064,2024
2034,2033,2049,2075,2056,2139,2044,2023
2037,2052,2060,2076,2069,2087,2053,2039
2049,2062,2060,2067,2055,1968,2055,2050
2063,2056,2054,2063,2064,1966,2062,2054
2064,2050,2050,2058,2077,2033,2076,2054
2057,2040,2046,2057,2081,2098,2064,2036
2054,2033,2042,2049,2072,2105,2069,2036
2039,2028,2041,2040,2078,2105,2055,2047
2033,2030,2029,2036,2082,2092,2057,2049
2024,2027,2027,2034,2073,2069,2054,2058
2026,2039,2035,2048,2070,2061,2066,2065
2038,2047,2048,2051,2074,2061,2065,2074
2048,2049,2055,2048,2058,2049,2071,2081
2044,2032,2047,2022,2038,2027,2039,2076
2032,2029,2045,2005,2033,2014,2054,2078
2037,2042,2057,2009,2018,2006,2053,2083
2044,2048,2061,2017,2010,1985,2047,2072
2031,2045,2052,2023,2009,1974,2037,2067
2034,2042,2044,2026,2022,1989,2043,2056
2033,2041,2038,2035,2024,1990,2018,2054
2035,2042,2031,2039,2026,1992,2019,2044
2035,2038,2031,2034,2023,2019,2025,2046
2050,2047,2030,2038,2028,2030,2050,2052
2050,2053,2039,2045,2032,2037,2067,2049
2054,2053,2031,2051,2044,2052,2065,2044
2053,2046,2030,2046,2045,2049,2057,2037
2061,2050,2024,2050,2041,2037,2048,2033
2055,2044,2026,2043,2034,2029,2034,2031
2054,2042,2023,2036,2030,2024,2031,2026
2060,2035,2025,2033,2041,2044,2041,2021
2044,2026,2016,2026,2050,2040,2058,2018
2040,2028,2022,2026,2047,2040,2061,2034
2054,2047,2038,2036,2061,2049,2066,2041
2060,2054,2050,2035,2066,2049,2061,2042
2066,2054,2043,2039,2064,2053,2061,2041
2070,2061,2049,2038,2060,2058,2072,2039
2065,2053,2063,2040,2056,2062,2070,2038
2055,2046,2066,2047,2052,2068,2075,2051
2051,2052,2081,2051,2050,2080,2065,2065
2047,2048,2077,2052,2052,2086,2055,2072
2052,2053,2075,2053,2047,2088,2068,2075
2057,2055,2077,2046,2043,2106,2064,2077
2064,2058,2068,2045,2033,2130,2072,2075
2052,2062,2074,2044,2034,2151,2057,2074
2049,2058,2073,2047,2032,2165,2049,2066
2042,2054,2060,2046,2023,2140,2030,2063
2047,2050,2063,2049,2036,2073,2032,2071
2046,2048,2059,2054,2061,1949,2016,2076
2047,2046,2057,2057,2059,1899,2035,2079
2051,2051,2065,2055,2052,1948,2034,2077
2058,2057,2066,2050,2035,2015,2037,2069
2059,2059,2065,2039,1995,2059,2055,2062
2055,2056,2063,2026,1957,2071,2039,2046
2052,2039,2048,2005,1932,2065,2036,2037
2047,2042,2048,2010,1928,2038,2029,2036
2060,2049,2068,2033,1967,1988,2048,2043
2063,2056,2068,2054,2016,1972,2043,2050
2065,2053,2067,2062,2024,1997,2046,2047
2059,2048,2058,2052,2016,2031,2070,2035
2064,2048,2056,2045,2022,2060,2070,2027
2056,2039,2045,2043,2064,2069,2045,2018
2045,2039,2051,2069,2101,2065,2045,2025
2045,2054,2063,2083,2110,2058,2044,2033
2055,2056,2060,2072,2068,2064,2048,2023
2042,2039,2040,2049,2034,2089,2045,2017
2038,2025,2030,2038,2024,2097,2055,2020
2046,2037,2035,2037,2035,2096,2063,2020
2045,2038,2036,2036,2044,2054,2050,2027
2049,2042,2038,2037,2040,1999,2006,2038
2055,2042,2046,2052,2030,1980,2006,2039
2064,2047,2044,2056,2033,1978,2010,2052
2065,2062,2050,2067,2070,1992,2021,2055
2058,2056,2049,2060,2072,2021,2036,2054
2055,2050,2039,2052,2076,2043,2052,2069
2064,2051,2054,2073,2089,2061,2053,2079
2062,2056,2056,2072,2095,2068,2051,2082
2051,2046,2047,2058,2093,2068,2078,2086
2052,2046,2045,2047,2083,2062,2071,2078
2055,2041,2036,2024,2056,2047,2059,2072
2041,2040,2037,2020,2067,2063,2062,2077
2040,2035,2038,2022,2067,2069,2056,2074
2042,2036,2035,2021,2048,2060,2030,2067
2038,2041,2033,2023,2033,2068,2052,2071
2040,2049,2040,2024,2030,2054,2036,2058
2048,2065,2056,2038,2028,2018,2025,2062
2064,2072,2066,2050,2027,1988,2031,2064
2066,2064,2066,2051,2019,1977,2016,2063
2060,2062,2056,2064,2004,1971,2015,2043
2045,2052,2044,2052,2028,1998,1983,2030
2038,2047,2038,2049,2063,2021,2003,2028
2039,2045,2043,2055,2080,2023,2003,2032
2040,2043,2050,2060,2079,2043,2041,2031
2045,2049,2057,2068,2069,2066,2027,2028
2044,2052,2057,2068,2076,2075,2029,2027
2044,2046,2054,2071,2081,2086,2045,2031
2047,2044,2056,2062,2083,2092,2052,2026
2040,2040,2044,2058,2075,2073,2045,2012
2031,2026,2040,2042,2054,2058,2033,2014
2032,2027,2038,2045,2057,2059,2032,2023
2045,2044,2054,2052,2051,2063,2034,2022
2053,2045,2045,2038,2040,2051,2043,2029
2044,2037,2036,2035,2038,2031,2040,2029
2037,2026,2029,2032,2033,2037,2031,2032
2041,2036,2028,2037,2042,2043,2012,2033
2049,2048,2042,2045,2052,2055,2036,2038
2058,2063,2056,2053,2053,2053,2053,2055
2058,2060,2062,2054,2057,2054,2052,2053
2055,2059,2061,2048,2053,2053,2052,2063
2056,2057,2052,2038,2059,2055,2020,2066
2057,2052,2047,2035,2060,2056,2034,2071
2048,2060,2051,2037,2055,2054,2064,2080
2061,2059,2061,2039,2054,2064,2056,2085
2061,2060,2070,2040,2062,2071,2055,2079
2055,2058,2066,2037,2054,2067,2052,2073
2051,2044,2059,2033,2048,2050,2071,2076
2046,2040,2058,2034,2052,2055,2051,2076
2051,2057,2058,2038,2043,2043,2040,2073
2046,2048,2053,2029,2035,2035,2024,2064
2047,2043,2043,2031,2019,2031,2021,2068
2052,2051,2047,2037,2007,2042,2037,2073
2054,2049,2044,2029,2000,2036,2021,2054
2046,2041,2035,2019,1984,2024,2004,2044
2042,2038,2033,2014,1965,2027,2025,2023
2036,2033,2038,2020,1984,2013,2016,2033
2050,2040,2050,2027,2005,1994,2017,2034
2040,2030,2042,2026,2005,2003,2046,2034
2041,2028,2058,2047,2050,2037,2058,2042
2056,2044,2071,2076,2090,2073,2046,2047
2069,2058,2083,2090,2124,2086,2064,2041
2072,2062,2079,2097,2131,2094,2061,2025
2057,2042,2070,2087,2110,2087,2050,2009
2036,2031,2070,2087,2095,2102,2065,2006
2039,2034,2083,2087,2061,2133,2033,2009
2041,2039,2080,2079,2003,2114,2027,2015
2039,2039,2070,2072,1970,2061,2032,2020
2045,2034,2063,2075,1959,2045,2012,2025
2049,2038,2067,2086,1996,2022,2019,2043
2059,2053,2074,2116,2079,2041,2062,2053
2059,2063,2083,2132,2133,2077,2089,2051
2051,2073,2090,2133,2160,2053,2090,2065
2060,2082,2092,2121,2159,2033,2067,2073
2059,2071,2075,2093,2128,2026,2076,2070
2058,2061,2064,2082,2119,2033,2057,2077
2060,2054,2055,2078,2120,2034,2052,2081
2056,2043,2041,2060,2112,2035,2050,2086
2047,2035,2020,2042,2092,2033,2031,2082
2035,2029,2008,2017,2058,2037,2021,2066
