CH1,CH2,CH3,CH4,CH5,CH6,CH7,CH8
2050,2045,2057,2057,2105,2076,2034,2026
2045,2050,2064,2043,2088,2069,2031,2031
2042,2051,2064,2031,2070,2059,2022,2035
2046,2062,2069,2029,2068,2053,2047,2036
2049,2060,2081,2042,2074,2054,2053,2039
2051,2055,2076,2050,2092,2066,2048,2043
2057,2060,2072,2052,2093,2070,2055,2052
2064,2069,2062,2054,2084,2070,2051,2054
2057,2064,2058,2062,2091,2069,2054,2061
2055,2064,2070,2062,2091,2067,2059,2069
2052,2057,2064,2052,2094,2057,2055,2067
2049,2058,2061,2051,2082,2051,2055,2078
2051,2052,2052,2047,2070,2035,2054,2082
2049,2047,2046,2034,2059,2044,2059,2084
2043,2042,2045,2031,2065,2047,2043,2071
2034,2027,2037,2037,2071,2053,2040,2077
2041,2031,2052,2047,2096,2058,2052,2079
2041,2041,2056,2060,2101,2066,2054,2076
2047,2044,2061,2055,2107,2080,2061,2068
2051,2053,2069,2057,2106,2081,2061,2070
2054,2055,2081,2066,2113,2087,2067,2063
2050,2056,2080,2077,2117,2079,2064,2055
2042,2050,2075,2067,2097,2062,2045,2045
2046,2048,2072,2065,2084,2064,2064,2047
2047,2050,2072,2053,1999,2047,2064,2036
2050,2047,2064,2030,1948,2032,2061,2039
2049,2043,2059,2030,2010,2010,2056,2041
2042,2047,2063,2041,2036,2011,2050,2028
2044,2050,2072,2060,2040,2026,2053,2022
2049,2057,2066,2054,2047,2041,2037,2027
2052,2062,2064,2061,2068,2057,2057,2014
2054,2054,2056,2048,2056,2056,2043,2011
2044,2047,2049,2037,2032,2045,2049,2026
2043,2054,2038,2023,1992,2025,2054,2024
2043,2047,2031,2006,1878,1988,2045,2023
2041,2048,2032,1997,1816,1984,2045,2027
2039,2038,2021,1996,1870,2023,2038,2021
2034,2033,2014,2007,1933,2049,2045,2029
2037,2040,2020,2024,1979,2059,2059,2040
2036,2043,2028,2027,2026,2032,2057,2049
2045,2041,2029,2058,2110,2031,2064,2066
2045,2040,2022,2071,2154,2040,2076,2074
2045,2040,2017,2074,2152,2059,2062,2080
2045,2036,2027,2082,2152,2079,2076,2082
2041,2029,2040,2095,2133,2074,2064,2076
2034,2025,2049,2097,2108,2064,2051,2079
2028,2020,2050,2084,2083,2058,2026,2082
2033,2014,2039,2081,2072,2056,2044,2082
2040,2014,2036,2081,2062,2051,2057,2089
2056,2033,2039,2080,2048,2058,2049,2082
2047,2027,2029,2075,2054,2066,2037,2065
2038,2021,2010,2068,2051,2067,2045,2060
2029,2010,1992,2052,2040,2074,2036,2068
2033,2007,1979,2037,2033,2087,2048,2064
2029,2020,1996,2040,2043,2096,2054,2060
2043,2049,2034,2058,2046,2084,2053,2054
2053,2061,2064,2056,2024,2030,2039,2048
2054,2061,2064,2051,2019,1997,2043,2049
2059,2057,2059,2047,2024,2003,2052,2052
2056,2053,2054,2030,2012,2043,2022,2024
2039,2046,2051,2018,1984,2070,2018,2021
2037,2043,2052,2008,1961,2073,2021,2017
2019,2031,2037,2012,1953,2056,2018,2018
2025,2039,2045,2022,1960,1997,2028,2026
2034,2048,2052,2062,2034,1979,2049,2039
2048,2063,2062,2097,2122,2022,2055,2047
2057,2057,2062,2099,2122,2038,2061,2058
2055,2054,2058,2082,2115,2048,2066,2042
2043,2046,2058,2071,2125,2049,2043,2038
2039,2058,2072,2058,2112,2054,2042,2042
2045,2065,2073,2038,2088,2050,2043,2041
2050,2059,2069,2027,2070,2041,2036,2050
2049,2062,2060,2028,2069,2041,2045,2050
2045,2050,2046,2020,2091,2039,2041,2047
2049,2042,2040,2020,2143,2047,2039,2056
2033,2032,2034,2020,2159,2042,2030,2057
2029,2033,2035,2025,2147,2037,2042,2068
2030,2039,2040,2042,2144,2043,2029,2078
2039,2045,2055,2052,2143,2043,2052,2082
2050,2040,2048,2048,2116,2043,2038,2073
2036,2033,2033,2037,2088,2029,2030,2065
2036,2033,2025,2021,1990,2003,2035,2068
2032,2033,2009,1993,1825,1987,2042,2077
2038,2030,2003,1990,1842,1988,2027,2074
2046,2022,2005,1992,1899,1989,2029,2066
2039,2012,1998,1996,1977,2011,2024,2054
2038,2023,2011,2033,2076,2058,2056,2052
2046,2041,2032,2059,2105,2084,2052,2042
2055,2056,2035,2051,2082,2084,2063,2036
2045,2056,2026,2057,2082,2092,2049,2031
2036,2049,2024,2064,2077,2090,2053,2019
2037,2042,2039,2068,2061,2081,2044,2022
2044,2042,2040,2078,2065,2070,2043,2021
2041,2035,2032,2065,2057,2059,2027,2024
2048,2040,2038,2071,2086,2065,2041,2017
2060,2059,2062,2078,2112,2063,2040,2015
2054,2065,2071,2082,2071,2047,2050,2002
2045,2076,2078,2084,2017,2036,2051,2014
2051,2074,2079,2101,2021,2037,2054,2015
2041,2064,2067,2108,2025,2052,2054,2016
2043,2060,2055,2105,2002,2048,2056,2022
2031,2051,2059,2098,2023,2039,2049,2019
2038,2056,2056,2079,2004,2010,2039,2018
2033,2054,2057,2056,1976,1999,2035,2017
2029,2054,2059,2037,1951,2007,2047,2026
2030,2055,2072,2040,2003,2033,2052,2029
2031,2064,2086,2067,2112,2056,2060,2049
2033,2063,2080,2055,2144,2055,2058,2061
2047,2056,2058,2022,2111,2039,2052,2073
2052,2051,2049,2019,2117,2037,2059,2075
2057,2059,2053,2020,2108,2022,2049,2084
2057,2060,2059,2031,2096,2015,2043,2083
2058,2054,2054,2020,2080,2016,2031,2072
2042,2050,2050,2003,2065,2016,2034,2076
2051,2061,2059,2000,1955,2012,2021,2077
2046,2059,2060,1998,1948,2016,2031,2077
2045,2067,2060,2021,2047,2046,2039,2075
2053,2070,2055,2047,2099,2068,2055,2066
2058,2073,2056,2051,2073,2091,2056,2053
2059,2065,2047,2030,1989,2104,2043,2042
2055,2050,2030,2029,2000,2112,2040,2029
2044,2036,2017,2034,2049,2101,2041,2015
2036,2030,2017,2029,2038,2069,2034,2019
2033,2030,2026,2035,2048,2016,2044,2029
2043,2044,2052,2047,2025,1983,2042,2034
2051,2060,2062,2034,1940,1989,2014,2031
2052,2067,2066,2035,1984,2009,2039,2029
2052,2065,2079,2042,2046,2029,2036,2028
2052,2062,2068,2048,2052,2028,2038,2022
2044,2046,2051,2035,2015,2020,2044,2027
2044,2044,2047,2033,1997,2017,2042,2038
2052,2041,2040,2039,1982,2017,2040,2028
2046,2035,2038,2032,1988,2016,2048,2029
2043,2028,2025,2028,1995,2033,2039,2041
2043,2025,2017,2040,2030,2051,2056,2053
2046,2031,2024,2057,2078,2067,2062,2061
2053,2032,2038,2072,2120,2085,2065,2045
2052,2049,2051,2092,2162,2101,2072,2042
2048,2047,2054,2093,2162,2105,2080,2046
2033,2039,2044,2080,2129,2090,2058,2051
2031,2036,2040,2063,2071,2055,2047,2069
2032,2038,2044,2041,2015,2026,2067,2078
2036,2040,2058,2030,1981,2017,2078,2084
2045,2062,2069,2019,1977,2022,2056,2084
2039,2058,2062,2010,1975,2029,2065,2078
2028,2044,2049,2016,1987,2039,2066,2074
2036,2049,2053,2030,1999,2040,2063,2083
2051,2053,2067,2039,1998,2048,2071,2081
2049,2058,2063,2047,2011,2072,2074,2070
2046,2053,2052,2046,2057,2072,2072,2057
2036,2041,2041,2047,2093,2058,2055,2050
2038,2037,2042,2057,2116,2062,2054,2047
2034,2034,2037,2045,2089,2056,2047,2051
2036,2039,2046,2057,2064,2019,2041,2056
2045,2043,2057,2064,2056,2006,2044,2049
2048,2056,2056,2066,2060,2009,2032,2043
2053,2054,2065,2067,2048,2009,2033,2042
2054,2056,2053,2062,2036,2009,2038,2029
2043,2050,2045,2051,2018,2018,2054,2026
2039,2048,2033,2045,1989,2016,2043,2024
2039,2044,2020,2033,1990,2015,2048,2018
2028,2029,2003,2029,2010,2022,2039,2005
2029,2034,2019,2054,2039,2049,2040,2018
2050,2049,2057,2088,2078,2069,2053,2026
2042,2054,2072,2100,2097,2085,2072,2028
2047,2052,2074,2097,2108,2103,2077,2022
2044,2050,2074,2088,2100,2101,2084,2023
2042,2060,2087,2084,2089,2102,2070,2027
2042,2058,2089,2088,2079,2068,2057,2045
2054,2060,2094,2092,2075,2056,2051,2047
2050,2054,2078,2082,2069,2049,2042,2055
2049,2051,2067,2080,2073,2047,2036,2049
2051,2053,2059,2077,2067,2054,2035,2055
2066,2056,2053,2078,2069,2054,2052,2062
2062,2049,2043,2071,2066,2053,2059,2069
2050,2039,2032,2059,2057,2053,2053,2070
2037,2034,2024,2044,2043,2045,2048,2055
2024,2032,2028,2030,2030,2022,2047,2058
2022,2037,2032,2024,2032,2023,2032,2063
2032,2038,2033,2016,2035,2055,2033,2070
2044,2054,2030,2009,2029,2090,2036,2073
2048,2060,2021,2008,2033,2112,2037,2068
2045,2052,2023,2012,2036,2119,2050,2062
2036,2047,2025,2011,2040,2108,2039,2058
2038,2048,2028,2021,2045,2074,2040,2058
2043,2051,2027,2030,2052,2069,2068,2054
2041,2046,2022,2034,2056,2077,2061,2051
2043,2039,2026,2041,2048,2077,2047,2038
2048,2047,2033,2050,2050,2063,2053,2040
2050,2040,2040,2057,2053,2043,2050,2030
2045,2042,2033,2056,2050,2030,2050,2032
2049,2046,2038,2053,2045,2018,2053,2031
2055,2044,2033,2051,2045,2020,2046,2026
2050,2045,2031,2046,2045,2032,2052,2015
2038,2036,2019,2042,2034,2033,2045,2013
2044,2036,2027,2044,2031,2045,2057,2009
2044,2052,2037,2054,2040,2052,2043,2025
2054,2055,2032,2055,2042,2028,2022,2035
2054,2056,2037,2060,2060,2014,2020,2036
2046,2051,2040,2058,2055,2021,2024,2031
2043,2053,2046,2056,2052,2029,2060,2038
2041,2062,2062,2050,2058,2034,2028,2042
2044,2064,2069,2044,2054,2035,2039,2045
2041,2059,2068,2036,2050,2037,2026,2050
2042,2055,2065,2027,2051,2042,2049,2055
2044,2057,2055,2018,2049,2042,2047,2059
2043,2056,2062,2013,2051,2044,2055,2067
2045,2062,2065,2021,2038,2041,2049,2064
2040,2053,2063,2031,2039,2040,2041,2066
2044,2056,2061,2034,2040,2038,2050,2073
2039,2056,2064,2034,2034,2038,2058,2075
2032,2049,2051,2028,2030,2035,2055,2071
2035,2037,2044,2028,2025,2037,2037,2076
2044,2053,2049,2036,2032,2042,2050,2069
2048,2055,2052,2039,2040,2044,2053,2065
2048,2063,2055,2044,2042,2045,2058,2071
2049,2059,2048,2041,2042,2040,2054,2064
2044,2051,2045,2040,2041,2044,2061,2053
2043,2048,2044,2035,2049,2048,2042,2041
2044,2053,2043,2040,2057,2053,2053,2036
2051,2043,2045,2046,2055,2044,2056,2039
2056,2045,2049,2043,2036,2039,2063,2040
2054,2043,2048,2047,2038,2040,2058,2031
2057,2040,2049,2057,2041,2040,2048,2029
2057,2038,2058,2069,2043,2047,2057,2026
2055,2043,2059,2074,2040,2045,2061,2020
2046,2044,2055,2070,2040,2049,2051,2025
2048,2040,2047,2070,2032,2041,2048,2014
2038,2033,2041,2059,2014,2036,2043,2006
2035,2039,2039,2053,1999,2037,2050,2009
2036,2040,2038,2058,2003,2053,2048,2003
2033,2031,2026,2050,2000,2066,2044,2000
2026,2030,2018,2039,1971,2049,2013,2007
2033,2037,2020,2042,1984,2017,2028,2018
2030,2040,2029,2056,2019,2020,2044,2030
2036,2045,2047,2068,2057,2034,2058,2049
2041,2052,2059,2082,2099,2049,2063,2054
2052,2060,2065,2085,2120,2056,2084,2055
2048,2062,2060,2068,2109,2049,2051,2057
2044,2050,2048,2047,2093,2046,2060,2059
2045,2044,2048,2029,2076,2045,2045,2067
2050,2053,2070,2029,2065,2045,2039,2076
2049,2063,2083,2038,2065,2053,2055,2079
2057,2066,2082,2035,2065,2061,2056,2077
2048,2057,2065,2026,2060,2057,2055,2081
2052,2056,2059,2036,2054,2058,2041,2081
2053,2058,2055,2037,2052,2058,2048,2075
2056,2058,2049,2033,2047,2055,2052,2075
2055,2052,2046,2035,2042,2047,2044,2060
2048,2053,2048,2037,2051,2050,2048,2052
2039,2057,2050,2037,2045,2048,2041,2046
2045,2054,2045,2040,2041,2035,2037,2051
2044,2054,2052,2047,2041,2041,2033,2046
2045,2052,2051,2041,2046,2039,2033,2038
2050,2055,2054,2044,2048,2049,2027,2027
2046,2054,2044,2044,2045,2057,2040,2033
2051,2052,2045,2051,2054,2069,2042,2031
2041,2048,2046,2045,2055,2081,2050,2020
2050,2052,2045,2046,2057,2077,2056,2014
2048,2054,2045,2042,2057,2070,2058,2018
2045,2056,2049,2051,2058,2062,2057,2010
2044,2053,2061,2051,2047,2064,2046,2010
2046,2052,2060,2047,2056,2074,2052,2011
2042,2059,2062,2047,2066,2075,2042,2013
2033,2059,2059,2050,2058,2073,2026,2023
2040,2053,2060,2054,2056,2075,2057,2025
2047,2058,2053,2055,2065,2073,2037,2029
2055,2057,2047,2055,2065,2066,2049,2035
2046,2062,2052,2052,2062,2064,2041,2043
2055,2058,2052,2052,2057,2057,2052,2044
2054,2056,2050,2049,2055,2048,2058,2049
2054,2056,2049,2050,2047,2044,2068,2054
2059,2061,2047,2050,2050,2056,2054,2055
2060,2060,2050,2050,2051,2061,2053,2061
2051,2058,2058,2050,2048,2055,2042,2060
2046,2059,2056,2044,2044,2044,2030,2060
2051,2057,2046,2044,2040,2042,2039,2064
2051,2050,2045,2039,2036,2035,2040,2063
2038,2038,2035,2036,2032,2038,2037,2065
2037,2038,2041,2040,2031,2049,2042,2067
2043,2050,2040,2041,2032,2056,2045,2063
2042,2051,2046,2044,2032,2052,2039,2061
2036,2052,2046,2044,2030,2050,2031,2057
2040,2058,2046,2042,2033,2039,2015,2050
2043,2054,2041,2048,2034,2024,2012,2039
2040,2059,2042,2045,2038,2014,2051,2032
2048,2059,2041,2045,2039,2023,2056,2035
2055,2059,2043,2047,2035,2026,2041,2035
2055,2058,2046,2049,2045,2038,2024,2025
2055,2056,2047,2051,2045,2037,2032,2031
2052,2057,2045,2049,2043,2043,2041,2023
2048,2049,2049,2050,2042,2047,2051,2022
2048,2049,2041,2046,2042,2040,2054,2021
2042,2045,2040,2050,2044,2043,2064,2020
2047,2042,2041,2044,2035,2038,2052,2020
2048,2041,2044,2048,2042,2037,2050,2019
2045,2053,2048,2060,2052,2045,2050,2025
2055,2056,2055,2058,2043,2044,2046,2025
2059,2058,2050,2057,2048,2038,2046,2033
2060,2057,2055,2054,2041,2041,2051,2033
2056,2056,2053,2056,2038,2052,2041,2031
2048,2053,2045,2048,2043,2067,2043,2034
2043,2052,2050,2052,2049,2075,2045,2036
2042,2052,2048,2058,2052,2089,2053,2041
2050,2050,2045,2055,2051,2112,2078,2060
2052,2052,2046,2056,2054,2121,2086,2059
2056,2049,2047,2056,2059,2114,2064,2066
2057,2049,2054,2056,2060,2066,2055,2067
2051,2055,2051,2051,2045,2025,2063,2073
2045,2052,2047,2046,2031,2028,2063,2073
2049,2050,2041,2040,2026,2038,2047,2067
2038,2045,2038,2032,2018,2033,2042,2063
2035,2030,2027,2025,2018,2032,2054,2058
2042,2040,2041,2041,2049,2054,2059,2063
2048,2054,2050,2054,2064,2065,2066,2060
2053,2054,2048,2049,2055,2074,2071,2060
2053,2055,2052,2052,2056,2070,2076,2061
2052,2054,2050,2047,2064,2065,2077,2065
2053,2055,2047,2053,2044,2053,2068,2058
2053,2057,2045,2043,2039,2046,2059,2051
2054,2051,2048,2045,2039,2038,2072,2040
2046,2050,2042,2043,2032,2042,2066,2040
2040,2048,2045,2047,2035,2054,2067,2036
2047,2050,2045,2046,2045,2053,2058,2029
2046,2046,2043,2046,2041,2052,2062,2024
2042,2046,2039,2050,2033,2055,2075,2030
2044,2046,2039,2043,2036,2056,2075,2024
2040,2048,2042,2040,2034,2063,2059,2025
2046,2040,2038,2040,2033,2065,2066,2024
2045,2038,2040,2041,2043,2071,2072,2018
2047,2046,2043,2041,2037,2094,2062,2011
2050,2042,2040,2046,2026,2099,2061,2005
2041,2048,2045,2037,2022,2101,2048,2010
2047,2042,2041,2032,2010,2076,2029,2011
2040,2044,2038,2036,2018,2038,2032,2033
2042,2048,2046,2056,2052,1997,2039,2044
2051,2054,2055,2061,2064,2003,2049,2047
2045,2053,2062,2055,2060,2028,2062,2055
2045,2050,2054,2052,2049,2032,2053,2061
2048,2050,2055,2053,2052,2031,2054,2064
2049,2050,2049,2050,2056,2033,2059,2076
2050,2045,2047,2050,2052,2035,2047,2075
2049,2050,2045,2050,2052,2041,2052,2076
2056,2048,2051,2046,2052,2029,2041,2076
2044,2039,2038,2044,2028,2018,2041,2060
2038,2033,2038,2041,2032,2028,2045,2070
2043,2049,2041,2046,2033,2042,2052,2067
2047,2048,2044,2046,2032,2041,2034,2076
2046,2045,2039,2042,2027,2037,2046,2066
2044,2047,2041,2043,2030,2038,2055,2056
2043,2043,2040,2042,2026,2043,2037,2045
2041,2044,2048,2047,2029,2043,2046,2046
2047,2050,2048,2053,2040,2044,2041,2038
2053,2048,2057,2055,2047,2050,2050,2037
2049,2054,2056,2051,2050,2051,2054,2035
2055,2048,2056,2048,2040,2051,2047,2034
2043,2046,2052,2050,2039,2047,2037,2019
2045,2054,2054,2053,2039,2050,2047,2016
2048,2054,2057,2046,2045,2057,2055,2014
2053,2051,2053,2052,2041,2054,2057,2019
2052,2049,2043,2050,2043,2049,2049,2016
2040,2038,2044,2045,2042,2044,2061,2019
2045,2046,2054,2058,2057,2062,2063,2026
2053,2055,2057,2062,2064,2064,2054,2024
2059,2054,2055,2063,2063,2072,2050,2023
2048,2060,2053,2057,2061,2077,2072,2027
2052,2052,2049,2056,2065,2066,2072,2025
2052,2047,2042,2054,2061,2057,2068,2040
2052,2052,2043,2054,2058,2043,2068,2048
2050,2055,2042,2053,2057,2048,2058,2059
2054,2051,2042,2055,2059,2043,2062,2056
2054,2051,2041,2048,2065,2042,2062,2053
2051,2048,2037,2043,2058,2040,2055,2063
2050,2044,2038,2036,2048,2036,2053,2067
2055,2047,2037,2026,2032,2033,2049,2075
2050,2042,2032,2029,2037,2046,2027,2068
2043,2045,2040,2027,2036,2054,2040,2062
2032,2030,2038,2027,2037,2048,2053,2057
2034,2034,2034,2027,2022,2040,2049,2060
2048,2048,2042,2030,2026,2038,2044,2060
2046,2045,2044,2031,2023,2042,2061,2064
2052,2045,2046,2030,2022,2049,2052,2059
2045,2048,2042,2032,2028,2058,2058,2051
2051,2047,2047,2034,2034,2066,2074,2052
2052,2048,2050,2036,2036,2064,2064,2047
2058,2051,2052,2039,2034,2063,2051,2034
2054,2056,2057,2042,2037,2048,2044,2032
2047,2051,2058,2045,2038,2019,2040,2028
2043,2043,2047,2040,2035,2019,2040,2029
2049,2042,2044,2037,2038,2034,2036,2020
2037,2038,2041,2034,2032,2042,2030,2025
2046,2040,2035,2038,2046,2047,2034,2021
2053,2043,2044,2044,2053,2058,2029,2016
2046,2039,2036,2046,2052,2054,2029,2014
2049,2032,2041,2044,2046,2046,2027,2018
2050,2047,2046,2050,2048,2055,2033,2021
2052,2050,2053,2052,2048,2055,2034,2023
2055,2049,2052,2051,2047,2058,2037,2024
2049,2046,2049,2049,2048,2063,2037,2026
2049,2050,2050,2057,2060,2072,2040,2033
2053,2054,2056,2065,2068,2071,2055,2037
2056,2052,2057,2060,2062,2070,2048,2046
2055,2054,2058,2064,2069,2075,2070,2047
2057,2051,2051,2062,2075,2080,2069,2052
2054,2047,2052,2057,2073,2075,2058,2060
2049,2046,2046,2049,2071,2062,2055,2070
2052,2047,2040,2050,2062,2057,2050,2075
2054,2048,2046,2043,2058,2054,2039,2077
2054,2043,2039,2038,2055,2046,2035,2076
2043,2044,2039,2036,2036,2042,2042,2074
2043,2034,2034,2025,2032,2038,2043,2069
2040,2039,2037,2032,2028,2046,2029,2074
2049,2052,2041,2031,2038,2058,2041,2069
2044,2049,2045,2032,2042,2054,2043,2066
2048,2052,2047,2034,2043,2052,2047,2063
2051,2056,2043,2038,2031,2044,2040,2062
2052,2049,2038,2034,2023,2040,2050,2057
2051,2049,2037,2031,2023,2039,2038,2050
2047,2054,2038,2036,2028,2043,2036,2043
2047,2047,2045,2043,2036,2050,2034,2038
2050,2046,2041,2045,2044,2054,2034,2033
2053,2046,2043,2048,2040,2058,2056,2036
2055,2045,2041,2046,2044,2052,2055,2032
2053,2045,2040,2041,2046,2051,2035,2029
2049,2044,2041,2036,2042,2046,2035,2028
2051,2045,2044,2038,2035,2043,2027,2028
2043,2038,2033,2032,2036,2039,2030,2023
2046,2038,2032,2036,2042,2043,2038,2024
2050,2043,2040,2045,2049,2062,2040,2028
2051,2051,2045,2045,2053,2063,2041,2032
2047,2049,2044,2053,2053,2055,2045,2032
2046,2050,2044,2045,2048,2045,2045,2029
2061,2052,2048,2044,2052,2043,2045,2035
2056,2052,2051,2046,2052,2053,2041,2038
2052,2053,2049,2050,2050,2055,2042,2040
2061,2052,2049,2047,2055,2061,2036,2044
2062,2048,2046,2043,2054,2055,2049,2052
2059,2052,2049,2044,2061,2053,2035,2064
2059,2050,2050,2044,2058,2050,2028,2069
2054,2045,2050,2036,2052,2046,2024,2073
2055,2049,2046,2039,2052,2045,2029,2081
2051,2052,2045,2042,2054,2045,2041,2080
2054,2056,2043,2040,2053,2043,2027,2080
2053,2045,2037,2039,2053,2044,2026,2086
2045,2046,2046,2046,2059,2050,2049,2091
2056,2053,2049,2046,2055,2058,2053,2084
2057,2052,2044,2045,2052,2052,2051,2071
2054,2050,2041,2035,2054,2055,2049,2065
2045,2051,2042,2034,2056,2055,2052,2055
2052,2046,2045,2036,2055,2053,2050,2047
2052,2051,2042,2037,2054,2053,2057,2038
2058,2050,2043,2035,2058,2057,2049,2034
2062,2057,2047,2039,2059,2061,2055,2037
2065,2056,2041,2040,2065,2070,2036,2027
2058,2053,2047,2037,2048,2090,2046,2021
2060,2049,2040,2035,2041,2108,2039,2023
2050,2043,2034,2031,2050,2101,2022,2020
2054,2048,2038,2035,2046,2083,2020,2029
2053,2052,2046,2038,2049,2068,2041,2028
2053,2042,2040,2041,2053,2053,2033,2027
2058,2045,2042,2045,2054,2057,2052,2025
2064,2059,2055,2050,2059,2038,2028,2025
2051,2058,2056,2047,2049,2023,2034,2021
2050,2057,2044,2037,2047,2008,2037,2031
2043,2045,2047,2036,2037,1994,2036,2031
2053,2044,2042,2035,2043,1995,2036,2043
2055,2043,2044,2040,2046,2012,2035,2040
2057,2045,2041,2041,2049,2026,2040,2047
2058,2051,2053,2048,2057,2043,2046,2049
2060,2050,2052,2047,2048,2054,2059,2055
2058,2045,2048,2049,2053,2061,2044,2072
2054,2041,2045,2042,2049,2058,2036,2078
2055,2042,2040,2042,2045,2055,2053,2076
2046,2039,2038,2040,2043,2045,2021,2076
2045,2032,2032,2042,2042,2042,2045,2079
2051,2040,2035,2041,2045,2030,2051,2075
2042,2037,2031,2036,2040,2022,2033,2072
2043,2035,2036,2038,2046,2029,2036,2076
2056,2045,2039,2042,2053,2034,2027,2079
2045,2047,2037,2040,2046,2036,2032,2072
2049,2046,2041,2044,2041,2043,2052,2066
2047,2049,2042,2048,2049,2041,2054,2063
2056,2052,2053,2047,2044,2039,2042,2057
2061,2059,2058,2048,2044,2047,2043,2057
2061,2058,2053,2053,2048,2059,2046,2054
2064,2054,2057,2056,2048,2060,2034,2046
2063,2057,2057,2054,2044,2046,2033,2044
2066,2059,2056,2055,2039,2030,2016,2035
2067,2057,2054,2049,2030,2028,2019,2032
2062,2058,2039,2045,2029,2025,2034,2027
2063,2053,2044,2044,2030,2035,2050,2026
2066,2054,2038,2039,2031,2039,2044,2016
2052,2040,2034,2033,2032,2035,2025,2011
2052,2031,2028,2027,2026,2040,2030,2008
2052,2042,2036,2038,2034,2054,2026,2006
2052,2047,2040,2037,2034,2061,2030,2006
2051,2047,2042,2042,2039,2061,2037,2015
2051,2055,2050,2039,2046,2045,2045,2029
2054,2056,2056,2054,2049,2018,2055,2032
2054,2056,2055,2054,2052,2016,2064,2034
2053,2051,2048,2048,2056,2027,2065,2041
2044,2050,2041,2052,2051,2038,2061,2037
2045,2048,2045,2050,2041,2035,2052,2049
2050,2051,2048,2054,2033,2028,2058,2055
2048,2045,2046,2055,2017,2019,2057,2064
2052,2043,2037,2043,1999,2013,2065,2069
2049,2044,2044,2039,1992,2003,2047,2068
2038,2047,2039,2028,1987,2006,2020,2066
2035,2044,2037,2035,2019,2027,2032,2073
2042,2042,2040,2050,2055,2047,2044,2082
2050,2050,2045,2060,2091,2061,2053,2101
2057,2055,2049,2064,2104,2075,2066,2090
2058,2054,2046,2063,2099,2068,2047,2081
2057,2049,2045,2058,2081,2057,2054,2071
2044,2050,2044,2054,2072,2051,2056,2064
2053,2052,2045,2052,2065,2060,2054,2063
2061,2056,2045,2054,2063,2080,2060,2058
2060,2056,2041,2047,2061,2103,2050,2051
2058,2056,2039,2047,2053,2136,2052,2039
2058,2052,2039,2045,2053,2141,2063,2039
2059,2050,2037,2045,2040,2128,2049,2032
2057,2058,2043,2038,2030,2055,2042,2033
2055,2057,2041,2036,2018,2010,2043,2035
2059,2057,2052,2043,2029,1987,2057,2038
2060,2060,2050,2052,2032,2003,2046,2036
2055,2058,2041,2048,2029,2014,2043,2035
2054,2051,2036,2042,2037,2022,2057,2038
2061,2055,2037,2039,2035,2030,2069,2038
2063,2046,2034,2038,2029,2030,2065,2037
2061,2032,2023,2029,2022,2022,2051,2032
2045,2033,2023,2025,2033,2012,2039,2043
2056,2043,2027,2031,2034,2007,2044,2043
2059,2052,2042,2033,2016,1994,2042,2046
2056,2060,2041,2034,1993,1984,2039,2060
2059,2058,2042,2030,1986,1996,2040,2058
2056,2047,2034,2026,1985,1996,2048,2053
2048,2037,2029,2029,2023,1990,2046,2063
2050,2041,2032,2061,2081,1998,2056,2078
2040,2043,2047,2074,2109,2015,2076,2094
2052,2049,2055,2072,2100,2043,2086,2099
2047,2051,2050,2069,2106,2065,2073,2084
2039,2038,2035,2056,2088,2070,2072,2081
2032,2038,2030,2054,2075,2095,2064,2086
2045,2047,2039,2062,2077,2124,2074,2090
2051,2054,2044,2059,2080,2143,2075,2093
2049,2053,2045,2054,2067,2120,2068,2082
2047,2053,2045,2050,2056,2043,2046,2073
2048,2056,2047,2051,2034,2001,2053,2069
2053,2057,2043,2050,2032,2006,2045,2072
2050,2052,2044,2041,2035,2029,2051,2059
2053,2060,2049,2051,2036,2036,2061,2052
2049,2053,2048,2049,2031,2047,2056,2042
2045,2052,2043,2039,2030,2068,2064,2038
2042,2050,2038,2046,2036,2072,2074,2030
2046,2047,2044,2046,2037,2065,2062,2032
2047,2050,2042,2040,2040,2062,2069,2039
2052,2051,2037,2041,2045,2059,2065,2037
2049,2045,2028,2036,2037,2050,2054,2027
2044,2034,2027,2034,2038,2049,2057,2031
2047,2046,2033,2042,2045,2057,2069,2041
2050,2050,2040,2051,2036,2048,2074,2045
2056,2051,2051,2039,2024,2040,2075,2048
2052,2054,2049,2034,2020,2037,2088,2061
2050,2053,2048,2041,2037,2041,2081,2061
2064,2063,2050,2050,2057,2042,2070,2072
2065,2059,2050,2051,2067,2040,2077,2073
2062,2055,2049,2058,2073,2055,2083,2072
2058,2056,2050,2061,2079,2055,2080,2068
2054,2057,2052,2057,2068,2057,2057,2072
2049,2054,2047,2050,2069,2049,2055,2082
2049,2049,2048,2056,2067,2046,2033,2082
2045,2050,2053,2056,2072,2059,2035,2081
2049,2043,2050,2060,2075,2077,2062,2089
2051,2050,2043,2048,2057,2084,2064,2092
2040,2039,2034,2037,2036,2080,2066,2084
2043,2041,2034,2044,2017,2048,2034,2091
2048,2056,2040,2039,2019,2033,2041,2099
2053,2054,2042,2042,2022,2032,2051,2094
2053,2056,2049,2042,2018,2047,2054,2084
2051,2055,2046,2041,2012,2047,2044,2069
2046,2053,2045,2038,2013,2051,2027,2063
2053,2054,2049,2036,1999,2059,2030,2054
2047,2054,2051,2033,2002,2057,2035,2053
2050,2052,2047,2033,1997,2056,2027,2040
2046,2048,2040,2026,2009,2067,2042,2042
2043,2044,2032,2027,2022,2080,2063,2040
2048,2051,2043,2039,2027,2086,2074,2053
2052,2058,2041,2044,2027,2092,2088,2050
2050,2059,2046,2042,2032,2108,2098,2057
2055,2057,2045,2041,2036,2127,2107,2052
2051,2042,2042,2034,2036,2138,2115,2054
2045,2046,2034,2036,2031,2127,2115,2057
2050,2049,2045,2040,2030,2098,2100,2057
2050,2053,2047,2038,2039,2095,2105,2066
2052,2051,2046,2036,2041,2087,2099,2067
2052,2050,2038,2032,2049,2066,2076,2061
2056,2052,2035,2036,2058,2033,2056,2046
2056,2049,2041,2039,2069,2021,2036,2051
2051,2054,2037,2049,2085,2022,2047,2050
2052,2052,2037,2059,2090,2046,2052,2058
2048,2052,2043,2056,2082,2025,2028,2055
2051,2054,2039,2038,2058,2013,2034,2064
2045,2053,2040,2039,2052,2010,2036,2070
2041,2050,2033,2038,2046,2010,2033,2077
2047,2046,2037,2037,2042,2033,2047,2076
2040,2037,2034,2037,2042,2054,2045,2079
2030,2024,2025,2032,2033,2051,2033,2070
2025,2021,2025,2028,2027,2045,2046,2077
2032,2022,2022,2032,2031,2047,2039,2072
2025,2026,2014,2036,2032,2058,2052,2077
2029,2039,2033,2045,2043,2064,2050,2077
2052,2056,2045,2052,2036,2064,2053,2075
2049,2060,2052,2052,2026,2057,2052,2073
2056,2052,2045,2041,2026,2042,2059,2062
2054,2052,2047,2040,2024,2024,2059,2058
2050,2052,2049,2044,2026,2011,2051,2046
2051,2053,2050,2044,2022,2006,2056,2046
2054,2042,2041,2036,2023,1990,2064,2046
2062,2044,2043,2039,2023,1991,2048,2052
2060,2043,2037,2036,2039,1993,2039,2033
2052,2045,2031,2028,2058,2005,2029,2020
2050,2043,2038,2028,2085,2019,2015,2005
2046,2044,2032,2023,2114,2036,2022,1998
2038,2038,2033,2036,2120,2050,2013,2006
2050,2055,2045,2050,2152,2070,2030,2028
2063,2060,2053,2061,2158,2042,2060,2037
2067,2061,2049,2053,2148,2026,2050,2039
2070,2066,2044,2058,2133,2033,2070,2042
2076,2065,2051,2060,2089,2057,2058,2035
2071,2055,2048,2034,1921,2092,2067,2030
2058,2057,2039,2013,1854,2098,2064,2040
2053,2047,2041,2011,1870,2114,2064,2043
2053,2050,2044,2011,1870,2090,2050,2046
2051,2058,2052,2004,1854,2000,2033,2067
2051,2063,2061,2029,1938,1926,2057,2080
2058,2057,2070,2039,1966,1950,2053,2087
2065,2065,2071,2040,1952,1982,2063,2092
2061,2052,2055,2014,1920,2012,2055,2094
2052,2049,2049,1993,1874,2018,2045,2078
2039,2036,2028,1983,1883,2045,2046,2083
2032,2039,2040,2006,1974,2094,2072,2107
2045,2053,2060,2037,2050,2128,2085,2116
2054,2052,2061,2049,2093,2137,2078,2111
2045,2036,2047,2045,2109,2114,2055,2101
2043,2030,2041,2044,2128,2064,2034,2104
2044,2034,2044,2045,2126,2053,2026,2112
2047,2045,2044,2045,2085,2053,2040,2103
2055,2047,2047,2046,2053,2023,2061,2109
2060,2048,2051,2041,2019,1990,2057,2104
2061,2046,2044,2025,1983,2002,2060,2093
2060,2040,2041,2032,2015,2038,2070,2090
2052,2047,2053,2058,2086,2066,2075,2076
2041,2048,2051,2059,2068,2054,2069,2083
2029,2041,2036,2035,1989,2049,2039,2075
2031,2034,2029,2033,2052,2057,2042,2067
2034,2033,2030,2043,2102,2073,2055,2065
2039,2039,2026,2054,2117,2074,2049,2068
2037,2035,2034,2058,2121,2075,2062,2082
2052,2045,2036,2058,2120,2047,2054,2088
2046,2048,2038,2059,2108,1981,2045,2098
2049,2056,2042,2061,2090,1975,2042,2097
2050,2049,2040,2059,2085,2005,2054,2101
2047,2045,2036,2057,2083,2023,2052,2104
2044,2046,2030,2058,2076,2025,2052,2099
2040,2039,2028,2049,2064,2012,2041,2101
2039,2033,2023,2044,2047,2016,2032,2111
2029,2034,2016,2024,2016,2020,2028,2121
2038,2030,2017,2016,2007,2018,2026,2125
2034,2028,2019,2025,2007,2016,2046,2132
2034,2024,2013,2022,2013,2011,2052,2133
2029,2026,2023,2023,2015,2012,2055,2142
2034,2028,2033,2033,2014,2027,2058,2153
2045,2031,2043,2031,2007,2044,2052,2146
2039,2038,2055,2033,2000,2054,2050,2147
2049,2050,2071,2037,1994,2072,2057,2154
2050,2054,2068,2033,1994,2057,2052,2154
2050,2047,2070,2038,2025,2046,2055,2157
2063,2053,2071,2050,2056,2060,2050,2154
2069,2052,2074,2055,2072,2086,2069,2150
2068,2049,2072,2045,2064,2098,2066,2127
2062,2044,2052,2030,2052,2083,2048,2108
2036,2021,2033,2016,2034,2030,2036,2098
2030,2037,2042,2018,2019,2050,2062,2098
2046,2053,2054,2025,2039,2082,2072,2101
2053,2050,2057,2035,2080,2131,2084,2112
2054,2048,2051,2046,2101,2173,2101,2107
2056,2050,2047,2045,2089,2187,2077,2102
2049,2048,2043,2038,2072,2165,2062,2104
2044,2045,2050,2039,2096,2094,2057,2088
2031,2037,2038,2026,2097,1984,2053,2088
2026,2035,2038,2022,2094,1979,2064,2096
2043,2059,2056,2030,2129,2027,2065,2104
2052,2060,2060,2038,2163,2068,2095,2110
2058,2065,2062,2050,2169,2088,2062,2113
2053,2065,2065,2050,2133,2080,2066,2117
2044,2056,2060,2060,2128,2088,2095,2128
2044,2048,2059,2068,2141,2090,2094,2128
2039,2037,2053,2061,2091,2075,2087,2126
2040,2034,2046,2060,2057,2072,2064,2117
2032,2035,2044,2068,2082,2080,2058,2124
2042,2041,2057,2075,2085,2068,2041,2132
2039,2030,2044,2046,2051,2025,2025,2134
2043,2027,2048,2052,2053,1986,2030,2127
2047,2043,2054,2050,2072,2008,2034,2116
2043,2045,2049,2042,2107,2030,2051,2121
2044,2050,2045,2036,2117,2032,2041,2128
2038,2033,2037,2006,2015,2017,2036,2127
2037,2038,2030,1968,1817,2007,2048,2128
2051,2042,2032,1969,1766,1993,2046,2127
2051,2037,2035,1988,1858,2026,2043,2134
2056,2032,2034,1997,1918,2045,2045,2127
2045,2026,2021,1997,1978,2047,2056,2115
2042,2021,2014,2003,2001,2060,2057,2095
2038,2015,2014,2001,2009,2065,2051,2094
2035,2026,2032,2016,2010,2062,2040,2099
2046,2035,2038,2023,2008,2063,2047,2097
2050,2035,2042,2018,2001,2054,2030,2091
2047,2034,2047,2022,1996,2039,2022,2073
2047,2040,2044,2020,1992,2029,2021,2083
2052,2039,2038,2023,1986,2034,2015,2074
2045,2041,2041,2019,1986,2031,1999,2071
2046,2039,2039,2022,2000,2035,2018,2073
2047,2035,2035,2024,2025,2024,2005,2073
2050,2038,2032,2020,2017,2025,2006,2082
2059,2053,2041,2031,2013,2006,2009,2080
2063,2056,2053,2041,2037,1998,2005,2081
2062,2061,2066,2048,2039,2009,2018,2086
2068,2071,2068,2050,2032,2032,2028,2081
2065,2065,2070,2049,2042,2065,2037,2085
2068,2065,2064,2035,2046,2092,2066,2102
2068,2056,2061,2036,2084,2105,2063,2107
2064,2051,2054,2048,2152,2129,2053,2102
2053,2052,2054,2062,2173,2125,2029,2113
2054,2047,2057,2060,2161,2103,2033,2116
2052,2049,2054,2057,2125,2094,2034,2124
2052,2051,2065,2054,2039,2090,2052,2124
2051,2049,2057,2038,1978,2068,2033,2124
2049,2042,2043,2028,2017,2057,2066,2124
2052,2034,2038,2021,2046,2037,2040,2129
2058,2038,2038,2032,2046,2005,2027,2133
2054,2044,2050,2027,1968,1968,2036,2117
2043,2044,2051,2027,1960,1978,2039,2102
2035,2042,2053,2043,1954,1986,2023,2093
2025,2034,2040,2013,1879,1982,2007,2072
2028,2032,2041,2005,1928,2017,2019,2073
2029,2039,2053,2032,2057,2061,2050,2080
2039,2042,2049,2038,2139,2095,2047,2070
2040,2042,2043,2041,2197,2111,2051,2077
2048,2046,2037,2031,2191,2086,2057,2085
2055,2047,2039,2020,2104,2057,2044,2079
2050,2057,2056,2033,2041,2014,2044,2090
2062,2060,2065,2042,2036,2012,2034,2078
2066,2057,2061,2022,2011,2017,2034,2069
2070,2057,2061,2011,2000,2013,2018,2054
2052,2048,2049,2002,1997,2041,2021,2039
2036,2037,2035,1990,1970,2064,2024,2029
2026,2034,2040,2010,2002,2065,2031,2051
2042,2049,2052,2041,2071,2070,2059,2071
2046,2059,2058,2058,2109,2068,2057,2086
2048,2061,2060,2060,2083,2065,2062,2088
2050,2058,2057,2042,2026,2055,2050,2072
2045,2049,2045,2028,1985,2054,2020,2063
2039,2036,2036,2005,1941,2055,2038,2071
2037,2038,2027,1989,1906,2052,2039,2077
2041,2031,2023,1997,1960,2022,2042,2097
2060,2034,2038,2011,2036,2033,2050,2107
2060,2050,2048,2028,2031,2045,2074,2110
2053,2044,2050,2038,2024,2050,2083,2116
2050,2046,2052,2047,2047,2056,2058,2116
2048,2050,2054,2049,2082,2045,2051,2117
2046,2028,2042,2039,2088,2023,2031,2109
2028,2013,2028,2038,2090,2006,2003,2097
2008,1998,2010,2031,2071,1981,1988,2089
2012,2016,2027,2031,2027,1995,2014,2061
2028,2030,2036,2046,2056,2044,2042,2075
2068,2049,2054,2084,2169,2079,2041,2100
2081,2051,2056,2106,2205,2113,2055,2100
2068,2038,2061,2104,2115,2114,2063,2090
2048,2036,2042,2086,2103,2116,2059,2074
2033,2023,2029,2072,2098,2120,2038,2051
2031,2016,2011,2058,2156,2130,2034,2052
2026,2018,2018,2062,2215,2158,2057,2044
2024,2037,2027,2048,2171,2146,2052,2040
2019,2044,2027,2040,2166,2110,2045,2050
2028,2046,2036,2044,2168,2098,2061,2059
2030,2057,2042,2014,2002,2049,2050,2047
2041,2059,2041,1996,1928,1991,2029,2039
2036,2046,2032,1973,1854,1966,2008,2028
2029,2041,2028,1983,1875,1985,2012,2030
2033,2048,2036,2012,1938,2014,2033,2046
2047,2060,2039,2027,1995,2026,2049,2055
2060,2066,2043,2034,2042,2025,2062,2066
2064,2064,2044,2042,2091,2052,2075,2078
2066,2056,2048,2038,2100,2060,2045,2085
2064,2065,2061,2044,2111,2074,2069,2084
2073,2076,2080,2061,2154,2084,2059,2080
2075,2073,2088,2056,2150,2075,2045,2078
2069,2063,2076,2062,2160,2075,2042,2081
2068,2073,2080,2059,2102,2049,2024,2076
2058,2058,2061,2037,2019,2044,2034,2086
2045,2039,2044,2024,2002,2057,2054,2073
2021,2031,2035,2019,2027,2062,2023,2068
2010,2019,2028,2001,1972,2033,2029,2084
2030,2018,2024,1996,1939,2020,2026,2088
2032,2026,2032,2009,1945,2030,2028,2087
2040,2041,2044,2024,1966,2049,2039,2089
2052,2056,2047,2015,1952,2026,2023,2082
2031,2052,2042,2009,1919,2034,2047,2083
2022,2025,2031,2023,1952,2069,2048,2076
2020,2014,2030,2045,2062,2090,2067,2072
2026,2015,2031,2068,2170,2102,2044,2064
2024,2001,2013,2066,2222,2116,2044,2054
2014,2002,2014,2058,2217,2114,2058,2031
2011,2009,2015,2048,2167,2114,2056,2031
2030,2029,2042,2058,2130,2112,2045,2038
2060,2068,2078,2067,2123,2075,2056,2051
2090,2083,2091,2066,2073,2002,2046,2043
2077,2062,2062,2045,2061,1951,2023,2031
2063,2043,2052,2040,2075,1987,2034,2034
2056,2055,2073,2060,1980,2043,2048,2025
2025,2054,2078,2068,1894,2080,2066,2019
2018,2053,2082,2080,1981,2091,2081,2034
2034,2071,2089,2073,1998,2087,2056,2054
2042,2077,2081,2054,1981,2072,2060,2054
2051,2076,2083,2044,1872,2058,2053,2043
2051,2067,2075,2021,1850,2031,2032,2034
2043,2054,2058,2025,2007,2025,2038,2046
2048,2054,2057,2052,2191,2059,2064,2052
2044,2046,2044,2057,2264,2063,2054,2064
2050,2034,2032,2061,2290,2061,2059,2068
2064,2033,2042,2071,2261,2048,2050,2061
2052,2024,2052,2060,2161,1993,2028,2055
2037,2028,2049,2034,2018,1972,2021,2067
2043,2039,2055,2054,2042,2001,2035,2072
2041,2046,2052,2062,2072,2022,2044,2116
2069,2031,2043,2036,1997,2023,2062,2127
2083,2027,2039,2032,2004,2050,2050,2125
2102,2033,2051,2051,2050,2053,2034,2095
2092,2040,2061,2070,2101,2063,2052,2075
2088,2043,2067,2076,2128,2073,2057,2057
2063,2028,2056,2068,2109,2051,2050,2058
2043,2016,2029,2032,2024,2009,2043,2058
2028,2009,2008,1992,1839,1976,2003,2035
2017,2038,2016,2003,1802,1972,1989,2031
2025,2073,2040,2036,1895,1994,2005,2034
2051,2074,2037,2048,1989,2037,2021,2014
2039,2058,2025,2061,2056,2077,2024,2023
2036,2050,2022,2057,2073,2076,2024,2049
2043,2053,2019,2061,2067,2071,2072,2050
2044,2060,2022,2061,2067,2079,2069,2060
2038,2056,2027,2059,2034,2072,2073,2050
2043,2046,2025,2046,2021,2043,2052,2044
2043,2033,2017,2035,2013,2029,2040,2043
2070,2028,2025,2026,2019,2066,2049,2038
2085,2038,2039,2031,2044,2066,2072,2028
2086,2027,2023,2008,2027,2042,2071,2017
2068,2011,2023,2007,2039,2070,2073,2018
2060,2010,2028,2011,2004,2070,2065,2024
2042,2010,2032,1999,1938,2049,2053,2043
2037,2020,2035,1991,1901,2018,2024,2043
2033,2026,2048,2004,1897,2043,2020,2026
2029,2056,2065,2024,1916,2109,2041,2037
2053,2092,2101,2042,1971,2157,2057,2060
2080,2085,2095,2061,2057,2122,2056,2063
2058,2065,2078,2041,2057,1967,2011,2068
2032,2052,2065,2042,2123,1947,2000,2056
2013,2042,2053,2044,2172,2009,2010,2061
2000,2027,2037,2046,2195,2048,2003,2060
2011,2022,2037,2041,2165,2057,2000,2050
2010,2040,2045,2036,2109,2052,1994,2038
2011,2043,2050,2032,2090,2028,2026,2059
2036,2059,2057,2049,2107,2053,2074,2068
2063,2071,2069,2067,2106,2076,2088,2060
2063,2068,2059,2067,2072,2035,2067,2044
2062,2057,2050,2050,2070,2010,2053,2040
2051,2050,2044,2026,2034,2008,2041,2006
2010,2051,2042,2020,2017,2017,2044,2014
2039,2047,2046,2040,2041,2042,2055,2058
2068,2044,2061,2058,2099,2058,2053,2061
2070,2067,2058,2062,2100,2068,2070,2039
2063,2080,2058,2045,2049,2085,2069,2032
2039,2066,2045,2018,1962,2082,2071,2018
2038,2048,2031,1986,1819,2059,2043,2005
2037,2045,2028,2005,1834,2047,2034,1990
2043,2043,2029,2020,1928,2052,2014,1986
2034,2036,2031,2032,2084,2042,2032,1999
2027,2034,2033,2061,2164,2075,2065,2016
2032,2040,2049,2088,2180,2122,2094,2028
2045,2060,2060,2091,2111,2117,2093,2022
2056,2085,2077,2083,2096,2095,2092,2022
2063,2080,2067,2061,2133,2071,2083,2013
2049,2064,2059,2062,2175,2066,2057,2016
2038,2060,2053,2050,2082,2043,2038,2019
2027,2040,2040,2037,2032,2040,2042,2026
2020,2035,2041,2029,2026,2031,2042,2034
2035,2044,2049,2028,2031,2001,2030,2049
2049,2046,2046,2022,2010,1974,2041,2053
2048,2026,2038,2027,1994,1993,2044,2063
2054,2020,2045,2037,2020,2043,2043,2059
2047,2014,2042,2056,2095,2095,2069,2069
2064,2000,2045,2073,2118,2121,2072,2076
2051,1988,2055,2079,2128,2112,2066,2067
2034,1992,2067,2077,2115,2083,2068,2072
2026,1988,2049,2053,1964,2028,2024,2044
2022,2004,2064,2066,1999,2059,2053,2013
2016,2053,2095,2128,2179,2114,2066,2016
2031,2058,2083,2155,2324,2162,2056,2035
2050,2067,2078,2166,2315,2158,2057,2053
2061,2066,2063,2156,2242,2112,2051,2040
2056,2069,2056,2160,2212,2106,2055,2009
2035,2069,2041,2137,2150,2066,2041,2007
2041,2062,2012,2105,2093,2002,2047,2011
2048,2060,2001,2125,2182,2020,2055,2016
2056,2066,1994,2080,1969,1998,2052,2011
2061,2057,1958,1984,1715,1988,2032,2005
2064,2032,1940,1977,1877,2002,2024,2005
2062,2013,1920,1979,2017,2040,2040,2004
2071,2028,1945,2018,2158,2080,2039,2006
2078,2034,1955,2026,2149,2073,2055,1982
2051,2028,1950,1988,2073,2053,2057,1985
2042,2018,1943,1962,2052,2037,2041,1979
2019,2016,1959,1968,2080,2012,2041,1994
1999,2019,1980,1975,2025,2019,2034,2007
2012,2037,2021,1966,1865,2003,2006,2018
2031,2054,2048,1963,1885,2023,2041,2029
2047,2052,2060,1970,1940,2049,2041,2023
2044,2043,2078,1983,1969,2040,2034,2024
2027,2051,2105,2016,2039,2007,2021,2036
2044,2073,2126,2066,2145,2025,2044,2041
2050,2081,2140,2099,2164,2044,2066,2049
2045,2081,2138,2111,2181,2077,2076,2058
2029,2073,2111,2106,2187,2104,2063,2046
2011,2038,2084,2103,2160,2103,2068,2053
2012,2038,2070,2096,2125,2084,2059,2061
2036,2032,2052,2082,2111,2066,2036,2052
2048,2039,2057,2076,2104,2053,2038,2060
2060,2036,2052,2066,2098,2041,2037,2041
2065,2048,2069,2066,2083,2030,2048,2036
2067,2070,2100,2074,2021,2004,2058,2043
2079,2080,2092,2064,1989,1986,2051,2047
2098,2076,2079,2038,1949,1959,2042,2030
2062,2049,2047,2004,1955,1953,2038,2014
2069,2040,2044,1992,1931,1964,2037,1998
2065,2032,2055,1997,1924,1996,2021,1993
2039,2044,2056,2009,1942,2030,2014,1969
2010,2049,2069,2012,1946,2051,2031,1989
2040,2072,2076,2039,2006,2084,2044,2001
2037,2068,2071,2059,2074,2093,2038,1993
2005,2055,2061,2069,2088,2065,2045,2010
2027,2071,2057,2069,2079,2042,2038,2025
2049,2083,2067,2055,2067,2030,2038,2008
2046,2073,2052,2038,2069,2042,2042,2000
2045,2062,2046,2060,2168,2068,2062,2008
2054,2053,2039,2067,2140,2076,2050,2015
2055,2051,2045,2065,2111,2070,2055,2013
2049,2050,2047,2079,2126,2073,2060,2011
2050,2062,2052,2088,2121,2064,2047,2016
2049,2060,2046,2073,2092,2058,2051,2027
2056,2051,2041,2064,2077,2053,2040,2028
2048,2035,2044,2072,2079,2065,2044,2032
2038,2037,2040,2070,2081,2062,2060,2034
2030,2033,2023,2069,2072,2050,2049,2040
2025,2023,2018,2067,2070,2034,2034,2033
2021,2029,2027,2079,2069,2043,2014,2037
2020,2034,2046,2087,2083,2045,2014,2034
2011,2036,2054,2086,2078,2045,2026,2034
2024,2032,2058,2074,2078,2053,2023,2025
2031,2036,2054,2063,2070,2055,2028,2031
2037,2047,2058,2055,2070,2052,2039,2025
2044,2057,2060,2056,2072,2051,2054,2036
2054,2057,2062,2045,2054,2054,2052,2028
2049,2050,2046,2027,2015,2046,2044,2016
2040,2037,2028,2026,2019,2049,2028,2015
2037,2032,2013,2022,2020,2055,2038,2006
2041,2039,2020,2031,2017,2055,2025,2002
2050,2048,2024,2031,2006,2051,2022,2000
2052,2042,2027,2032,1997,2043,2021,1990
2042,2033,2033,2042,2018,2046,2012,1984
2021,2043,2054,2059,2051,2051,2014,1970
2002,2046,2057,2054,2073,2042,2014,1968
2001,2034,2047,2053,2085,2048,2030,1977
2021,2049,2053,2039,2059,2044,2033,1980
2032,2054,2057,2021,2030,2037,2016,1985
2039,2065,2065,2023,2047,2050,2026,1994
2049,2080,2075,2039,2089,2059,2040,2009
2050,2067,2063,2052,2095,2056,2041,2002
2042,2062,2056,2049,2083,2048,2044,1998
2045,2064,2062,2058,2097,2048,2037,2002
2048,2068,2084,2065,2124,2057,2050,2016
2048,2063,2086,2076,2134,2063,2055,2027
2045,2052,2079,2075,2120,2081,2054,2025
2043,2038,2066,2069,2089,2084,2045,2032
2042,2031,2057,2064,2068,2079,2040,2033
2043,2022,2048,2054,2030,2068,2021,2035
2055,2029,2049,2045,2019,2041,2008,2039
2053,2022,2056,2069,2048,2022,2002,2027
2011,2014,2060,2091,2115,2043,2026,2021
2021,2047,2099,2122,2149,2074,2042,2035
2052,2066,2097,2136,2157,2087,2026,2043
2062,2075,2097,2138,2148,2079,2023,2018
2047,2065,2090,2129,2148,2081,2023,2012
2032,2064,2083,2122,2139,2081,2033,2014
2018,2054,2068,2096,2112,2069,2036,2002
2026,2057,2051,2078,2068,2028,2028,1983
2021,2044,2026,2047,2009,2023,2026,1975
2035,2039,2012,2034,1953,2024,2013,1954
2027,2025,1985,2032,1982,2024,2006,1944
2010,2015,1969,2029,2025,2032,2036,1944
2024,2027,1966,2029,2054,2049,2051,1965
2047,2041,1969,2027,2062,2054,2040,1954
2046,2030,1963,2023,2057,2049,2053,1943
2042,2025,1972,2015,2050,2044,2041,1936
2013,2007,1968,2008,2048,2042,2034,1929
2005,1999,1966,2009,2061,2039,2036,1929
2010,2018,1983,2027,2073,2045,2044,1925
2022,2035,2005,2047,2066,2042,2044,1939
2038,2046,2019,2052,2062,2055,2050,1956
2060,2080,2046,2044,2035,2070,2058,1965
2071,2088,2039,2020,1985,2055,2066,1968
2052,2068,2029,2012,1940,2036,2037,1975
2054,2056,2036,2011,1921,2009,2028,1969
2044,2044,2037,2029,1974,1990,2025,1939
2010,2051,2043,2072,2046,2012,2028,1955
2036,2069,2073,2113,2116,2067,2080,2008
2086,2074,2090,2124,2148,2086,2077,2024
2093,2075,2084,2130,2167,2086,2070,2014
2088,2068,2083,2123,2157,2069,2053,1978
2042,2048,2066,2112,2118,2048,2013,1949
2030,2028,2056,2102,2102,2043,2030,1985
2058,2043,2077,2114,2106,2058,2062,2005
2077,2063,2096,2117,2088,2054,2061,1989
2063,2066,2102,2107,2069,2037,2046,1975
2038,2068,2090,2098,2053,2036,2038,1963
2020,2068,2093,2098,2047,2039,2047,1961
2018,2079,2096,2098,2060,2047,2045,1970
2042,2085,2093,2095,2089,2044,2052,1974
2051,2090,2095,2084,2101,2054,2044,1966
2052,2084,2075,2060,2105,2042,2026,1944
2029,2059,2038,2037,2100,2048,2036,1940
2018,2044,2024,2025,2116,2058,2042,1942
2018,2051,2031,2023,2135,2075,2056,1936
2021,2051,2036,2000,2119,2064,2050,1938
2024,2052,2036,1964,2034,2047,2041,1945
2038,2068,2047,1951,1939,2041,2052,1957
2042,2069,2041,1958,1978,2038,2056,1957
2054,2062,2041,1970,1975,2031,2047,1961
2056,2072,2046,1998,1999,2034,2059,1954
2058,2067,2044,2016,1993,2033,2058,1960
2067,2061,2038,2022,2003,2039,2054,1972
2072,2063,2041,2030,2036,2052,2067,1972
2070,2059,2047,2024,2006,2026,2059,1957
2060,2060,2042,2014,2019,2009,2055,1956
2072,2050,2038,2026,2048,1997,2060,1942
2053,2039,2052,2035,2017,2001,2048,1950
2050,2027,2048,2029,1997,1983,2037,1944
2037,2020,2040,2032,1999,1962,2028,1979
2019,2015,2021,2045,2011,1982,2044,1993
2019,2023,2024,2053,2025,1996,2038,2004
2052,2047,2057,2103,2047,1968,2032,2010
2073,2059,2061,2118,2038,1955,2025,2000
2051,2042,2043,2099,2021,1976,2014,1983
2037,2014,2001,2061,2036,2019,2035,1958
2019,2011,1991,2083,2119,2054,2045,1944
2018,2026,2003,2109,2177,2072,2061,1968
2025,2042,2007,2096,2167,2072,2052,1980
2015,2028,2001,2077,2145,2097,2032,1973
2020,2031,2010,2075,2128,2131,2038,1954
2024,2049,2030,2077,2117,2128,2057,1971
2040,2096,2061,2102,2117,2107,2060,1975
2053,2094,2090,2123,2113,2073,2056,1964
2041,2076,2101,2135,2103,2060,2039,1953
2029,2051,2113,2142,2096,2048,2033,1942
2027,2045,2112,2139,2089,2041,2011,1943
2037,2044,2106,2127,2080,2040,2020,1945
2040,2061,2121,2131,2072,2044,2020,1943
2037,2068,2128,2127,2075,2046,2016,1932
2041,2077,2129,2126,2067,2061,2041,1944
2053,2090,2140,2136,2076,2086,2047,1941
2052,2095,2124,2140,2068,2104,2046,1942
2062,2088,2097,2118,2066,2128,2063,1944
2076,2085,2067,2112,2066,2133,2069,1953
2078,2077,2049,2093,2073,2084,2078,1958
2075,2077,2045,2092,2085,2045,2072,1956
2056,2073,2046,2086,2092,2048,2072,1953
2055,2074,2052,2058,2061,2005,2059,1960
2038,2075,2041,2031,2040,1993,2042,1952
2026,2069,2040,2013,2049,2014,2030,1957
2029,2082,2048,1995,2050,2038,2035,1967
2033,2091,2045,1977,2056,2054,2037,1976
2036,2081,2033,1960,2055,2061,2043,1991
2039,2068,2018,1963,2066,2067,2043,2006
2032,2044,2005,1970,2058,2055,2054,2003
2023,2029,1997,1975,2035,2042,2062,1996
2022,2027,2020,2006,2015,2037,2053,1998
2031,2029,2042,2022,2012,2030,2046,2012
2032,2028,2050,2038,2024,2024,2051,2006
2041,2045,2050,2053,2051,2029,2048,2014
2056,2063,2070,2072,2104,2039,2048,2025
2076,2062,2064,2062,2078,2022,2045,2021
2078,2076,2065,2073,2069,2045,2047,2016
2062,2080,2059,2088,2108,2080,2023,2006
2063,2063,2045,2080,2098,2064,2039,1984
2056,2057,2028,2052,2057,2054,2019,1981
2054,2054,2020,2047,2022,2043,2013,1977
2056,2058,2039,2061,2053,2050,2043,1982
2040,2068,2066,2082,2108,2068,2054,1988
2049,2084,2079,2096,2131,2066,2061,1989
2059,2090,2076,2093,2106,2043,2032,1972
2045,2070,2047,2068,2083,2033,2028,1953
2032,2050,2023,2064,2079,2038,2041,1947
2031,2049,2007,2070,2073,2043,2049,1946
2033,2036,1985,2066,2060,2030,2031,1951
2031,2032,1976,2050,2050,2012,2022,1967
2031,2033,1987,2061,2068,2028,2044,1966
2044,2044,2013,2075,2090,2045,2053,1966
2049,2049,2036,2087,2099,2056,2059,1966
2040,2050,2039,2083,2091,2054,2057,1963
2034,2045,2057,2080,2093,2047,2057,1964
2034,2063,2074,2084,2089,2062,2058,1963
2047,2061,2083,2065,2073,2082,2033,1972
2046,2044,2069,2050,2063,2077,2032,1983
2048,2042,2067,2042,2065,2074,2035,1999
2045,2046,2048,2037,2066,2074,2049,2007
2043,2040,2031,2039,2072,2087,2058,2009
2037,2028,2012,2036,2071,2092,2065,2007
2039,2026,2013,2048,2063,2098,2049,2016
2056,2046,2030,2068,2075,2110,2053,2022
2056,2046,2026,2078,2087,2151,2057,2016
2033,2036,2012,2087,2102,2178,2056,2007
2031,2022,2009,2118,2117,2153,2066,2015
2047,2046,2024,2146,2119,2040,2049,2017
2058,2041,2023,2145,2081,1980,2023,2007
2049,2031,2025,2148,2071,2008,2013,1998
2053,2031,2025,2157,2084,2042,2019,1992
2049,2039,2037,2148,2072,2051,2036,1988
2055,2049,2045,2152,2072,2060,2045,1984
2058,2066,2068,2159,2068,2057,2043,1986
2060,2066,2069,2163,2074,2074,2045,1974
2049,2070,2080,2154,2085,2082,2049,1969
2042,2065,2075,2138,2075,2084,2039,1960
2038,2058,2065,2124,2072,2069,2001,1969
2036,2063,2077,2116,2077,2050,2011,1961
2040,2089,2101,2109,2074,1989,2013,1962
2049,2102,2135,2099,2064,1948,2011,1965
2049,2105,2130,2064,2044,1957,2004,1958
2036,2077,2094,2023,2023,1977,2003,1964
2029,2069,2087,2003,2024,1995,2019,1980
2042,2069,2090,2002,2025,2013,2029,1988
2045,2071,2112,2013,2031,2015,2024,1996
2049,2073,2119,2020,2024,2034,2034,1997
2046,2073,2107,2020,1991,2046,2040,2007
2049,2074,2092,2009,1962,2045,2035,2009
2050,2074,2079,2008,1964,2044,2051,2013
2048,2068,2071,2002,1961,2020,2040,2015
2056,2077,2085,2014,2005,1981,2049,2029
2069,2095,2099,2038,2088,1999,2061,2043
2076,2091,2084,2042,2113,2023,2067,2043
2068,2079,2080,2041,2119,2049,2056,2048
2054,2081,2081,2039,2108,2052,2053,2046
2048,2074,2076,2038,2089,2037,2050,2045
2054,2069,2075,2045,2076,2029,2032,2046
2054,2062,2072,2047,2073,2029,2042,2046
2051,2059,2072,2046,2064,2025,2036,2045
2048,2068,2084,2044,2057,2017,2043,2040
2046,2070,2085,2050,2065,2019,2057,2041
2058,2070,2077,2054,2064,2030,2057,2036
2057,2073,2066,2053,2057,2040,2054,2022
2042,2066,2066,2053,2056,2045,2056,2027
2041,2067,2063,2050,2055,2048,2050,2021
2046,2065,2068,2055,2063,2058,2066,2025
2046,2066,2067,2057,2063,2055,2061,2008
2044,2060,2061,2058,2060,2057,2066,2009
2050,2061,2058,2054,2052,2052,2067,2011
2054,2058,2061,2054,2054,2055,2044,2005
2058,2062,2060,2060,2055,2063,2057,2001
2057,2064,2055,2058,2065,2062,2051,1989
2054,2058,2065,2062,2069,2061,2061,1993
2052,2064,2062,2058,2064,2055,2040,1984
2039,2049,2051,2055,2065,2051,2039,1976
2035,2046,2052,2059,2069,2052,2020,1989
2046,2056,2055,2068,2065,2033,2011,1990
2045,2052,2045,2063,2065,2017,2032,1997
2047,2052,2048,2060,2058,2021,2034,2003
2045,2056,2054,2060,2064,2029,2038,2007
2050,2061,2060,2066,2061,2027,2040,2009
2055,2067,2058,2069,2066,2020,2034,2008
2049,2064,2057,2071,2066,2021,2026,2009
2044,2058,2056,2070,2066,2025,2041,2016
2053,2055,2053,2073,2068,2041,2039,2024
2047,2047,2047,2068,2066,2042,2051,2028
2034,2038,2032,2063,2065,2043,2042,2030
2032,2030,2020,2061,2056,2040,2045,2041
2035,2034,2027,2062,2060,2045,2047,2037
2040,2038,2043,2068,2070,2045,2036,2040
2042,2025,2034,2054,2049,2029,2020,2037
2032,2019,2029,2053,2046,2031,2027,2032
2036,2026,2038,2068,2054,2035,2038,2038
2039,2026,2038,2073,2056,2045,2039,2034
2043,2028,2035,2070,2061,2047,2041,2034
2045,2041,2040,2072,2060,2040,2043,2041
2047,2053,2031,2076,2054,2028,2037,2034
2051,2054,2026,2074,2054,2033,2043,2018
2051,2065,2030,2072,2058,2043,2035,2009
2052,2059,2034,2068,2059,2040,2043,2004
2049,2061,2034,2071,2063,2034,2039,1998
2052,2063,2042,2067,2064,2047,2041,1999
2052,2068,2057,2064,2067,2071,2039,2000
2052,2069,2060,2060,2058,2080,2037,2008
2049,2069,2066,2064,2048,2083,2044,1994
2042,2068,2072,2056,2053,2071,2058,1999
2043,2058,2066,2051,2047,2054,2039,1998
2045,2054,2082,2046,2040,2049,2034,2000
2043,2062,2094,2040,2028,2061,2047,1998
2047,2060,2101,2041,2012,2065,2020,1988
2046,2061,2101,2040,2009,2049,2038,2000
2045,2058,2097,2043,2003,2024,2056,2010
2050,2060,2088,2048,2012,1979,2028,2022
2049,2058,2066,2049,2026,1952,2051,2034
2057,2052,2058,2048,2043,1979,2053,2034
2079,2067,2064,2055,2057,2018,2060,2036
2085,2057,2057,2060,2058,2030,2056,2049
2082,2048,2038,2050,2066,2028,2046,2059
2074,2041,2043,2056,2085,2022,2043,2050
2062,2038,2050,2057,2086,2021,2031,2044
2049,2035,2052,2054,2098,2020,2013,2052
2041,2043,2050,2063,2108,2024,2014,2056
2034,2049,2049,2067,2106,2034,2020,2050
2015,2035,2033,2060,2084,2038,2048,2046
2018,2037,2034,2058,2096,2038,2049,2056
2024,2043,2037,2060,2102,2028,2045,2057
2036,2045,2033,2063,2089,2025,2055,2058
2042,2047,2033,2069,2081,2023,2046,2064
2052,2045,2028,2060,2061,2018,2049,2059
2047,2042,2021,2047,2041,2027,2042,2043
2048,2050,2019,2048,2031,2024,2044,2036
2051,2060,2034,2047,2028,2024,2052,2035
2059,2073,2045,2040,2031,2021,2045,2034
2056,2070,2049,2041,2036,2028,2051,2030
2065,2071,2072,2045,2040,2033,2048,2031
2061,2080,2086,2035,2038,2031,2044,2018
2053,2073,2086,2037,2046,2042,2041,2000
2047,2073,2088,2047,2068,2059,2045,2005
2052,2070,2082,2048,2060,2063,2056,2005
2045,2062,2078,2048,2043,2055,2043,2004
2045,2058,2078,2051,2031,2051,2052,2014
2052,2067,2079,2053,2041,2066,2063,2027
2057,2069,2075,2059,2038,2064,2082,2033
2056,2074,2076,2059,2034,2069,2084,2033
2058,2079,2095,2069,2043,2074,2084,2039
2066,2079,2106,2069,2041,2070,2079,2041
2068,2075,2089,2075,2082,2072,2066,2049
2064,2073,2086,2085,2100,2066,2059,2048
2064,2064,2076,2095,2094,2062,2059,2050
2063,2050,2066,2095,2107,2054,2048,2047
2048,2032,2043,2091,2139,2058,2042,2046
2049,2025,2029,2094,2163,2075,2039,2052
2060,2026,2021,2114,2180,2093,2042,2070
2067,2039,2018,2122,2156,2090,2046,2066
2072,2043,2013,2121,2084,2072,2063,2072
2071,2042,1992,2106,1970,2059,2055,2060
2046,2019,1959,2088,1976,2053,2067,2050
2039,2024,1934,2086,2019,2053,2069,2050
2056,2036,1937,2079,2040,2026,2048,2050
2047,2035,1924,2072,2056,2024,2044,2053
2041,2032,1920,2050,2044,2027,2041,2052
2043,2026,1913,2027,2018,2033,2066,2045
2046,2023,1913,2006,2000,2034,2063,2042
2034,2026,1948,1997,1991,2035,2068,2044
2048,2048,1991,2009,2008,2054,2068,2045
2065,2086,2039,2015,2024,2053,2066,2042
2069,2075,2054,2008,2028,2036,2053,2041
2053,2051,2062,1997,2008,2020,2054,2038
2041,2030,2060,1997,2010,2013,2045,2030
2030,2035,2099,2011,2016,2016,2049,2017
2042,2077,2154,2042,2014,2050,2051,2022
2058,2105,2185,2063,2021,2074,2064,2030
2049,2093,2168,2058,2005,2061,2062,2022
2031,2075,2143,2040,1983,2038,2051,2022
2035,2089,2146,2049,1990,1985,2032,2034
2055,2091,2142,2069,2023,1960,2044,2048
2057,2080,2113,2062,2041,1986,2040,2048
2046,2059,2081,2051,2056,2019,2060,2032
2044,2049,2050,2044,2071,2044,2063,2024
2040,2035,2036,2023,2056,2068,2060,2030
2039,2029,2036,2006,2020,2073,2043,2023
2039,2036,2039,2001,2009,2074,2045,2035
2053,2041,2051,2013,2003,2052,2057,2047
2040,2046,2064,2025,2016,2010,2049,2056
2040,2048,2068,2038,2071,1993,2063,2073
2047,2047,2070,2056,2091,2010,2058,2084
2057,2057,2078,2052,2067,2051,2072,2102
2056,2056,2074,2049,2035,2070,2087,2099
2049,2045,2061,2040,2041,2065,2052,2091
2050,2041,2060,2033,2038,2048,2053,2092
2056,2052,2065,2039,2033,2045,2052,2095
2057,2046,2049,2031,2029,2044,2051,2087
2048,2040,2043,2016,2016,2040,2057,2089
2049,2051,2054,2026,2020,2039,2064,2088
2058,2064,2075,2045,2041,2039,2046,2085
2069,2082,2090,2058,2055,2044,2052,2077
2069,2083,2095,2057,2056,2035,2048,2064
2075,2084,2085,2061,2049,2024,2059,2061
2073,2080,2083,2063,2047,2029,2059,2065
2073,2076,2077,2064,2046,2033,2082,2071
2070,2075,2069,2057,2052,2034,2089,2065
2076,2071,2072,2060,2048,2012,2084,2059
2066,2066,2064,2053,2047,2015,2088,2047
2068,2063,2070,2058,2036,2021,2073,2033
2069,2064,2069,2054,2030,2016,2047,2025
2062,2058,2060,2044,2020,2032,2041,2019
2054,2055,2058,2047,2020,2034,2037,2030
2058,2065,2077,2059,2022,2026,2046,2034
2059,2065,2068,2057,2020,2019,2030,2034
2063,2066,2069,2055,2029,2031,2050,2035
2061,2063,2072,2068,2043,2055,2052,2043
2071,2065,2069,2071,2052,2098,2047,2051
2075,2060,2068,2064,2057,2092,2054,2059
2067,2058,2069,2072,2046,2074,2042,2059
2060,2046,2075,2080,2054,2066,2052,2059
2062,2046,2073,2087,2054,2065,2051,2075
2063,2036,2063,2082,2054,2058,2040,2078
2063,2043,2059,2090,2055,2054,2057,2083
2061,2045,2055,2086,2054,2042,2034,2088
2056,2048,2043,2079,2047,2044,2036,2087
2061,2044,2041,2083,2047,2048,2021,2090
2060,2043,2031,2082,2044,2046,2032,2077
2046,2039,2029,2079,2048,2047,2043,2079
2044,2044,2025,2068,2047,2048,2042,2086
2050,2044,2009,2063,2042,2045,2050,2081
2050,2043,2010,2066,2043,2047,2063,2077
2049,2040,2013,2058,2045,2049,2069,2072
2051,2039,2022,2048,2046,2045,2068,2076
2052,2034,2025,2033,2040,2045,2068,2078
2047,2038,2034,2025,2020,2041,2045,2065
2047,2035,2030,2013,2026,2039,2025,2061
2042,2024,2025,1999,2022,2036,2034,2047
2047,2027,2048,2006,2040,2042,2048,2055
2068,2040,2079,2021,2045,2059,2069,2062
2082,2062,2083,2035,2056,2060,2057,2048
2052,2061,2076,2050,2050,2062,2057,2032
2040,2064,2066,2054,2054,2066,2040,2034
2045,2064,2061,2046,2050,2069,2040,2039
2044,2053,2049,2022,2035,2054,2028,2039
2044,2054,2040,2009,2026,2056,2034,2039
2051,2050,2036,2001,2033,2062,2063,2038
2056,2059,2037,2008,2032,2070,2065,2048
2058,2067,2047,2021,2045,2075,2062,2062
2060,2070,2049,2040,2054,2078,2082,2066
2066,2066,2044,2040,2046,2078,2069,2069
2061,2057,2042,2039,2037,2090,2065,2063
2050,2054,2037,2031,2039,2094,2063,2069
2059,2056,2035,2050,2040,2074,2049,2072
2063,2051,2033,2050,2040,2022,2054,2075
2060,2049,2035,2052,2034,1991,2062,2082
2052,2056,2044,2051,2037,2010,2060,2094
2054,2053,2053,2048,2040,2028,2061,2090
2047,2052,2049,2045,2045,2035,2060,2099
2050,2054,2061,2043,2040,2040,2060,2108
2057,2063,2069,2055,2035,2040,2053,2097
2051,2051,2072,2060,2043,2040,2023,2091
2049,2053,2087,2065,2042,2027,2033,2101
2056,2057,2093,2062,2038,2038,2044,2096
2060,2065,2085,2062,2030,2031,2037,2084
2060,2061,2088,2056,2025,2028,2034,2077
2060,2068,2088,2054,2029,2038,2029,2073
2056,2066,2078,2050,2030,2042,2037,2070
2052,2064,2075,2053,2031,2046,2045,2065
2061,2066,2071,2048,2027,2040,2051,2065
2060,2060,2065,2048,2030,2041,2050,2065
2057,2054,2062,2049,2032,2046,2026,2059
2055,2053,2063,2044,2024,2033,2021,2047
2057,2051,2054,2043,2015,2031,2044,2042
2050,2050,2050,2040,2019,2034,2043,2042
2047,2044,2065,2046,2018,2038,2042,2042
2063,2044,2063,2053,2020,2040,2046,2036
2054,2034,2057,2047,2012,2032,2034,2034
2047,2027,2051,2052,2016,2040,2043,2029
2061,2039,2070,2066,2034,2046,2043,2036
2058,2030,2066,2069,2028,2044,2049,2036
2052,2033,2068,2066,2036,2056,2052,2040
2049,2032,2057,2068,2033,2060,2049,2042
2047,2037,2060,2068,2034,2059,2066,2049
2054,2048,2055,2075,2035,2068,2072,2053
2058,2048,2045,2078,2045,2070,2078,2056
2054,2038,2038,2072,2046,2064,2074,2057
2055,2034,2024,2056,2038,2057,2056,2073
2060,2032,2009,2042,2030,2049,2025,2073
2047,2020,2001,2028,2021,2041,2037,2063
2036,2019,1998,2022,2023,2039,2033,2077
2037,2020,2006,2023,2016,2041,2045,2086
2045,2031,2017,2039,2033,2044,2050,2085
2059,2046,2033,2050,2031,2043,2057,2084
2059,2048,2046,2058,2039,2046,2049,2091
2059,2067,2064,2062,2040,2062,2054,2103
2069,2059,2055,2057,2045,2063,2045,2101
2066,2051,2032,2038,2033,2053,2052,2089
2051,2040,2021,2032,2023,2048,2056,2090
2058,2050,2026,2042,2022,2053,2050,2084
2059,2062,2057,2054,2029,2064,2052,2074
2069,2082,2075,2061,2043,2064,2053,2074
2070,2087,2084,2051,2039,2058,2065,2071
2068,2077,2074,2047,2027,2056,2071,2067
2059,2068,2063,2045,2029,2050,2066,2065
2062,2065,2064,2050,2019,2046,2067,2067
2067,2062,2070,2044,2014,2034,2049,2055
2066,2064,2071,2046,2011,2035,2048,2064
2069,2057,2065,2042,2019,2045,2061,2057
2063,2050,2058,2043,2021,2043,2061,2041
2057,2042,2055,2044,2028,2048,2048,2039
2052,2047,2052,2047,2039,2054,2051,2047
2066,2057,2064,2050,2035,2048,2044,2051
2060,2060,2061,2043,2028,2032,2039,2047
2063,2060,2073,2050,2020,2037,2042,2049
2064,2061,2075,2045,2017,2038,2041,2049
2065,2059,2067,2042,2020,2052,2052,2041
2056,2059,2070,2038,2012,2051,2038,2053
2055,2059,2059,2032,2014,2051,2047,2065
2052,2056,2058,2028,2015,2053,2047,2069
2064,2050,2050,2030,2011,2057,2052,2077
2062,2046,2050,2030,2013,2054,2055,2077
2064,2052,2052,2030,2011,2057,2051,2084
2060,2052,2044,2030,2011,2056,2046,2092
2058,2046,2038,2030,2013,2043,2042,2093
2054,2041,2039,2036,2020,2047,2034,2085
2052,2039,2038,2035,2021,2054,2041,2085
2047,2035,2042,2045,2028,2056,2055,2083
2055,2045,2056,2062,2037,2060,2057,2092
2056,2050,2061,2069,2039,2054,2061,2089
2064,2051,2061,2066,2042,2052,2060,2082
2067,2049,2056,2072,2044,2052,2055,2077
2069,2055,2055,2073,2033,2058,2049,2075
2061,2048,2042,2073,2037,2050,2039,2055
2059,2046,2030,2070,2035,2049,2036,2049
2052,2044,2019,2072,2037,2050,2040,2044
2044,2035,2002,2063,2036,2041,2035,2041
2048,2032,1998,2054,2034,2041,2025,2038
2041,2033,1990,2056,2023,2034,2021,2049
2056,2042,2006,2054,2015,2030,2034,2045
2062,2044,2018,2054,2011,2038,2037,2046
2064,2045,2016,2050,2014,2035,2028,2045
2049,2028,2002,2028,2002,2020,2034,2035
2044,2019,1988,2019,1995,2021,2026,2029
2055,2030,2011,2021,2007,2032,2040,2045
2073,2051,2030,2024,2018,2042,2035,2050
2070,2048,2026,2027,2016,2042,2056,2058
2063,2050,2017,2021,2019,2042,2054,2067
2063,2043,2015,2031,2014,2038,2058,2064
2076,2046,2034,2042,2012,2038,2062,2067
2071,2053,2052,2050,2021,2044,2070,2066
2055,2047,2057,2045,2021,2045,2057,2067
2053,2044,2050,2050,2028,2047,2026,2084
2053,2051,2036,2047,2034,2058,2052,2086
2064,2052,2027,2034,2039,2052,2034,2089
2063,2042,2017,2021,2032,2051,2038,2089
2059,2043,2018,2013,2030,2051,2054,2082
2059,2045,2030,2011,2029,2051,2055,2085
2055,2036,2020,2002,2022,2050,2046,2084
2044,2029,2034,2014,2016,2035,2043,2092
2051,2045,2060,2031,2009,2027,2046,2104
2056,2058,2075,2044,2010,2026,2047,2101
2066,2054,2080,2048,2011,2024,2050,2104
2068,2052,2083,2051,2010,2032,2047,2090
2062,2053,2087,2056,2018,2038,2034,2075
2055,2050,2075,2051,2021,2039,2040,2065
2050,2049,2062,2046,2020,2033,2027,2052
2053,2039,2060,2041,2018,2032,2043,2068
2063,2036,2058,2037,2009,2032,2045,2070
2068,2032,2054,2036,2002,2026,2022,2058
2063,2033,2056,2031,2010,2019,2032,2046
2049,2034,2047,2028,2014,2026,2033,2038
2044,2035,2039,2018,2013,2031,2053,2044
2052,2035,2034,2011,2013,2040,2064,2047
2055,2041,2028,2006,2018,2043,2065,2049
2044,2045,2041,1998,2016,2048,2063,2044
2033,2048,2040,1995,2022,2044,2055,2047
2040,2046,2045,1998,2025,2050,2070,2066
2064,2058,2042,1996,2012,2041,2058,2072
2069,2053,2033,1996,1987,2032,2046,2066
2064,2056,2045,2018,1981,2032,2055,2056
2064,2059,2056,2031,1978,2027,2055,2048
2056,2052,2047,2036,1975,2024,2072,2052
2055,2050,2043,2057,1999,2041,2072,2061
2060,2047,2050,2088,2049,2057,2082,2068
2065,2059,2056,2108,2073,2064,2080,2067
2057,2060,2057,2116,2094,2077,2074,2073
2061,2063,2047,2116,2090,2074,2050,2081
2057,2050,2032,2112,2069,2047,2035,2085
2058,2046,2011,2098,2057,2033,2033,2087
2053,2040,2001,2090,2041,2040,2021,2087
2049,2035,1995,2080,2050,2047,2036,2081
2048,2030,1994,2071,2034,2041,2026,2082
2044,2028,2012,2055,2017,2028,2030,2084
2040,2025,2020,2032,1994,2026,2036,2081
2040,2015,2025,2010,1969,2032,2042,2071
2037,2018,2017,1986,1955,2059,2033,2069
2036,2012,2023,1968,1949,2083,2018,2056
2030,2014,2018,1966,1963,2097,2026,2054
2045,2024,2025,1983,2010,2079,2046,2073
2056,2044,2038,2003,2044,2048,2067,2081
2062,2061,2052,2019,2078,2017,2077,2088
2064,2071,2067,2040,2092,2035,2056,2082
2063,2068,2051,2044,2073,2042,2063,2074
2056,2055,2030,2042,2055,2040,2054,2068
2053,2050,2042,2048,2039,2048,2063,2053
2050,2043,2035,2040,2028,2057,2039,2041
2051,2038,2036,2035,2022,2063,2036,2043
2051,2046,2056,2028,2010,2053,2039,2044
2052,2056,2084,2036,2003,2051,2058,2049
2045,2070,2100,2049,2021,2018,2044,2067
2066,2071,2124,2064,2030,2009,2052,2077
2075,2069,2135,2079,2041,2011,2066,2069
2076,2066,2124,2084,2051,2024,2065,2070
2068,2056,2121,2088,2060,2056,2063,2065
2073,2057,2123,2081,2058,2085,2062,2063
2065,2055,2123,2088,2068,2097,2074,2063
2058,2059,2119,2091,2064,2090,2069,2079
2066,2060,2087,2078,2067,2084,2073,2088
2052,2045,2038,2073,2061,2076,2062,2073
2041,2050,2020,2065,2072,2076,2064,2071
2044,2056,2018,2059,2069,2076,2056,2100
2057,2058,2005,2051,2065,2077,2060,2096
2066,2058,2020,2047,2061,2081,2071,2102
2062,2059,2015,2053,2057,2079,2068,2097
2055,2051,2014,2045,2058,2071,2064,2094
2051,2050,2012,2038,2053,2051,2050,2096
2063,2059,2016,2033,2045,2013,2064,2106
2065,2054,2024,2035,2052,1997,2075,2113
2058,2059,2042,2041,2061,2012,2066,2100
2056,2062,2063,2031,2035,2019,2064,2087
2050,2048,2055,2010,2014,2017,2061,2076
2041,2044,2059,2003,1995,2017,2047,2069
2039,2055,2092,2018,1992,2010,2046,2061
2041,2052,2103,2014,1993,2015,2031,2062
2045,2059,2117,2023,2014,2026,2046,2059
2057,2060,2108,2045,2029,2042,2060,2065
2059,2060,2080,2054,2042,2046,2041,2068
2053,2046,2059,2065,2037,2053,2047,2069
2052,2042,2052,2065,2033,2048,2058,2064
2050,2036,2032,2053,2026,2043,2054,2062
2039,2029,2032,2052,2025,2049,2053,2053
2039,2039,2053,2051,2028,2048,2059,2057
2053,2066,2068,2054,2033,2053,2068,2069
2060,2069,2064,2040,2044,2052,2080,2067
2055,2069,2056,2024,2034,2047,2075,2066
2060,2060,2034,2014,2018,2049,2052,2060
2054,2045,2017,2012,1999,2057,2068,2060
2048,2049,2022,1998,1952,2068,2052,2056
2045,2042,2026,1990,1912,2063,2033,2054
2044,2044,2042,1990,1893,2061,2046,2062
2038,2037,2049,1988,1895,2034,2045,2069
2038,2042,2054,1997,1936,1980,2038,2088
2045,2038,2056,2023,2019,1976,2050,2093
2041,2045,2055,2065,2096,2020,2065,2098
2039,2051,2055,2077,2128,2058,2074,2111
2049,2051,2039,2065,2115,2073,2062,2115
2045,2046,2026,2033,2094,2057,2051,2105
2041,2027,2011,2018,2070,2038,2054,2100
2032,2026,2004,2008,2026,2030,2043,2109
2042,2036,2019,1993,1983,2027,2039,2105
2037,2031,2023,1993,1975,2037,2029,2096
2046,2036,2031,1994,1975,2039,2056,2096
2045,2028,2029,1995,1970,2043,2051,2092
2041,2029,2029,2000,1954,2028,2050,2092
2041,2033,2024,2020,1940,2017,2054,2071
2060,2049,2034,2038,1944,2007,2058,2078
2060,2048,2024,2031,1977,2021,2047,2065
2055,2047,2019,2045,2047,2053,2069,2059
2050,2050,2030,2058,2099,2065,2059,2051
2041,2043,2029,2053,2107,2060,2042,2050
2039,2046,2035,2050,2106,2056,2028,2055
2046,2061,2049,2049,2107,2045,2041,2051
2035,2053,2043,2038,2095,2022,2024,2037
2029,2026,2035,2019,2076,2013,2002,2033
2028,2024,2026,2012,2058,2018,2016,2050
2046,2042,2030,2031,2051,2030,2022,2053
2056,2050,2044,2042,2048,2036,2048,2064
2063,2057,2055,2051,2050,2035,2051,2075
2066,2061,2072,2064,2056,2047,2077,2077
2067,2062,2079,2061,2059,2064,2057,2074
2068,2068,2085,2067,2060,2076,2068,2074
2054,2054,2072,2062,2041,2060,2067,2063
2041,2043,2064,2046,2033,2053,2063,2064
2040,2039,2069,2041,2037,2044,2047,2068
2046,2055,2087,2045,2028,2050,2061,2067
2057,2068,2104,2052,2034,2049,2065,2083
2055,2070,2112,2054,2040,2065,2069,2095
2056,2070,2110,2065,2043,2064,2070,2105
2054,2066,2104,2063,2048,2062,2068,2108
2048,2054,2075,2051,2036,2032,2032,2095
2036,2035,2060,2039,2028,2003,2022,2099
2053,2043,2065,2039,2027,2017,2049,2104
2054,2059,2066,2036,2032,2032,2050,2094
2048,2052,2057,2020,2030,2034,2057,2098
2063,2053,2040,2010,2022,2044,2059,2103
2061,2058,2027,2004,2026,2053,2067,2095
2073,2055,2024,2000,2025,2049,2056,2090
2063,2053,2023,1996,2022,2049,2045,2081
2064,2053,2022,2001,2033,2050,2040,2076
2064,2056,2036,2016,2041,2049,2041,2062
2061,2053,2035,2018,2037,2053,2053,2058
2063,2050,2031,2021,2033,2046,2059,2060
2064,2051,2036,2019,2032,2045,2064,2055
2059,2038,2033,2014,2032,2048,2054,2057
2047,2039,2035,2017,2031,2055,2052,2050
2053,2050,2052,2027,2039,2055,2053,2050
2057,2047,2055,2035,2030,2046,2040,2048
2063,2049,2054,2043,2031,2041,2050,2061
2073,2062,2064,2057,2031,2025,2028,2064
2072,2062,2065,2051,2019,2017,2045,2066
2075,2068,2067,2042,2021,2022,2057,2055
2069,2065,2066,2036,2025,2038,2051,2053
2061,2050,2051,2035,2031,2042,2062,2057
2055,2041,2043,2031,2033,2057,2060,2064
2049,2033,2035,2027,2044,2058,2057,2072
2052,2031,2032,2042,2044,2055,2065,2073
2052,2031,2038,2046,2016,2041,2055,2073
2050,2035,2047,2052,2006,2030,2053,2078
2060,2043,2061,2054,1997,2031,2057,2090
2044,2042,2058,2050,1990,2029,2052,2089
2038,2035,2070,2069,2033,2050,2052,2096
2040,2042,2087,2086,2070,2056,2064,2099
2047,2049,2084,2104,2094,2059,2060,2100
2047,2040,2066,2114,2119,2080,2033,2107
2059,2048,2054,2130,2116,2086,2065,2099
2061,2048,2030,2123,2101,2082,2065,2093
2058,2043,2007,2110,2085,2071,2052,2084
2052,2039,1995,2098,2078,2065,2054,2082
2049,2035,1992,2087,2067,2055,2052,2071
2048,2029,1988,2062,2051,2053,2057,2068
2038,2030,1973,2046,2089,2054,2037,2065
2045,2024,1985,2047,2115,2053,2044,2058
2037,2025,2008,2056,2117,2051,2056,2051
2037,2027,2032,2053,2093,2038,2062,2051
2038,2020,2042,2049,2073,2039,2047,2049
2039,2030,2066,2042,2078,2050,2060,2054
2046,2047,2089,2033,2062,2057,2068,2057
2044,2057,2106,2016,2052,2070,2082,2058
2055,2061,2117,2046,2095,2082,2079,2064
2059,2056,2117,2063,2108,2085,2073,2069
2055,2052,2108,2060,2022,2074,2076,2063
2049,2044,2067,2020,1943,2066,2052,2052
2043,2032,2048,1997,1971,2066,2055,2054
2041,2027,2033,1994,1983,2078,2049,2060
2050,2041,2043,1988,2009,2067,2057,2069
2062,2057,2056,2007,2032,2028,2053,2076
2067,2060,2079,2027,2022,2007,2064,2073
2065,2062,2084,2020,1973,1998,2057,2075
2049,2064,2081,2007,1961,2016,2058,2079
2059,2067,2095,2011,1951,2046,2065,2092
2064,2068,2083,2009,1986,2074,2082,2089
2050,2055,2071,2009,2054,2088,2078,2097
2049,2049,2063,2014,2046,2067,2070,2092
2042,2037,2057,2007,2012,2064,2068,2084
2034,2038,2051,2006,1924,2075,2072,2092
2032,2027,2045,2009,1927,2077,2069,2087
2036,2030,2042,2025,1972,2080,2068,2087
2041,2041,2056,2033,1962,2031,2046,2089
2045,2051,2063,2032,1969,1954,2034,2090
2048,2050,2054,2035,1985,1957,2034,2080
2049,2057,2059,2036,1990,2005,2052,2073
2051,2050,2055,2023,1966,2054,2059,2059
2046,2047,2047,2018,1981,2069,2058,2044
2036,2035,2032,2005,1985,2060,2049,2040
2032,2034,2028,2013,1984,2036,2032,2048
2047,2046,2041,2047,2042,2001,2052,2060
2055,2053,2060,2082,2082,2004,2060,2061
2062,2053,2063,2090,2069,2019,2065,2056
2066,2049,2049,2094,2051,2033,2052,2055
2064,2045,2044,2075,2046,2042,2058,2054
2058,2040,2045,2076,2056,2047,2061,2038
2054,2034,2046,2067,2075,2047,2030,2025
2035,2029,2049,2063,2071,2056,2054,2020
2041,2031,2052,2061,2094,2083,2053,2027
2049,2039,2062,2071,2120,2102,2063,2040
2041,2044,2060,2077,2115,2125,2055,2037
2037,2048,2066,2065,2099,2128,2056,2042
2036,2049,2073,2062,2099,2114,2056,2044
2044,2052,2073,2062,2074,2092,2066,2055
2045,2049,2075,2049,2047,2064,2045,2055
2033,2042,2063,2036,2041,2029,2041,2063
2036,2034,2063,2044,2088,2043,2071,2075
2045,2054,2077,2061,2164,2070,2084,2084
2052,2050,2071,2063,2186,2068,2060,2088
2053,2039,2060,2046,2178,2052,2044,2081
2049,2034,2054,2030,2170,2059,2055,2092
2048,2045,2058,2036,2166,2058,2058,2104
2047,2050,2052,2028,2048,2035,2050,2093
2043,2032,2033,2006,1965,2010,2038,2089
2026,2023,2019,2004,1975,2008,2046,2093
2038,2031,2030,2026,2006,2040,2045,2089
2038,2044,2036,2037,1977,2053,2046,2082
2036,2047,2038,2032,1888,2023,2062,2090
2054,2061,2055,2045,1930,2033,2082,2088
2054,2067,2061,2062,2004,2062,2085,2084
2049,2062,2055,2061,2054,2088,2081,2078
2047,2057,2051,2040,2035,2088,2078,2068
2055,2061,2051,2019,1994,2066,2080,2062
2053,2050,2043,1980,1894,2012,2044,2051
2049,2038,2024,1965,1829,1962,2028,2041
2034,2028,2019,1982,1856,1952,2014,2034
2032,2029,2023,2034,2039,1993,2027,2031
2030,2040,2042,2073,2152,2026,2058,2023
2044,2050,2046,2074,2151,2026,2026,2020
2039,2033,2043,2058,2092,2025,2019,2025
2040,2030,2037,2051,2064,2014,2036,2034
2049,2042,2043,2044,2043,2011,2033,2035
2040,2039,2045,2043,2021,2002,2034,2034
2051,2047,2038,2043,2048,2021,2040,2033
2042,2035,2034,2051,2061,2030,2033,2041
2044,2032,2026,2047,2066,2025,2037,2046
2049,2030,2029,2039,2086,2035,2051,2056
2053,2034,2040,2058,2091,2053,2037,2064
2053,2034,2052,2067,2122,2076,2038,2064
2038,2039,2060,2075,2140,2089,2046,2066
2035,2045,2057,2077,2141,2088,2045,2061
2037,2045,2055,2070,2122,2087,2071,2068
2040,2042,2053,2047,2077,2078,2069,2080
2041,2045,2037,2019,1995,2068,2053,2084
2050,2043,2018,1988,1900,2057,2058,2096
2045,2041,2027,1995,1864,2040,2064,2085
2031,2031,2038,2018,1940,2039,2051,2082
2031,2029,2056,2046,1966,2036,2075,2103
2053,2046,2074,2041,1892,2014,2049,2098
2053,2043,2058,2029,1905,2016,2045,2084
2050,2036,2056,2065,1989,2046,2042,2075
2046,2035,2054,2086,2029,2080,2060,2059
2042,2036,2045,2092,2050,2069,2046,2054
2040,2038,2046,2104,2076,2068,2052,2057
2050,2046,2047,2101,2122,2064,2041,2057
2047,2050,2038,2106,2151,2069,2037,2046
2044,2050,2027,2101,2143,2060,2049,2036
2044,2040,2022,2089,2084,2049,2044,2025
2033,2030,2015,2061,2015,2020,2028,2024
2030,2029,2008,2031,1989,2003,2041,2021
2029,2026,2011,2005,1975,2003,2041,2022
2034,2035,2017,2016,2006,2037,2053,2032
2043,2033,2021,2026,2025,2047,2053,2030
2045,2029,2009,2008,2059,2050,2053,2034
2056,2040,2015,2014,2088,2053,2051,2044
2054,2054,2023,2018,2124,2053,2049,2042
2054,2056,2030,2027,2144,2049,2051,2048
2056,2055,2040,2031,2166,2056,2066,2056
2060,2059,2042,2056,2255,2074,2058,2056
2054,2045,2032,2072,2292,2094,2069,2061
2056,2044,2025,2085,2373,2121,2077,2066
2064,2059,2038,2065,2334,2123,2077,2066
2065,2058,2045,2026,2129,2138,2053,2057
2052,2052,2053,1989,1924,2134,2052,2041
2038,2047,2066,2005,1978,2130,2045,2038
2026,2045,2070,2010,1996,2091,2058,2060
2036,2047,2070,1989,1893,1947,2042,2078
2034,2039,2064,2005,1911,1894,2040,2082
2034,2035,2054,2056,2075,1966,2042,2083
2030,2022,2044,2050,1982,2004,2037,2087
2026,2031,2054,2046,1900,2033,2059,2100
2042,2059,2072,2055,1925,2056,2067,2091
2041,2050,2062,2043,1953,2048,2044,2076
2039,2033,2044,2030,1962,2035,2039,2063
2032,2045,2047,2017,1970,2028,2026,2068
2044,2042,2043,2011,2007,2035,2044,2058
2039,2043,2043,2029,2071,2055,2035,2061
2043,2043,2041,2033,2091,2060,2046,2047
2052,2047,2049,2033,2081,2053,2035,2048
2057,2057,2040,2042,2065,2050,2028,2054
2056,2056,2028,2055,2097,2056,2059,2056
2053,2054,2033,2060,2120,2048,2052,2046
2050,2050,2037,2070,2106,2032,2032,2035
2042,2042,2047,2070,2092,2016,2027,2029
2038,2044,2049,2065,2062,2011,2045,2022
2033,2038,2052,2076,2027,2005,2044,2028
2039,2043,2063,2076,1991,1999,2066,2032
2054,2056,2083,2076,1992,2006,2041,2034
2049,2049,2079,2063,2006,2016,2032,2039
2046,2052,2073,2062,1999,2027,2037,2043
2038,2053,2075,2071,1975,2043,2037,2046
2039,2056,2067,2075,1939,2062,2025,2035
2029,2048,2052,2072,1915,2070,2050,2042
2037,2045,2040,2067,1910,2060,2041,2049
2045,2047,2026,2060,1946,2071,2052,2054
2034,2037,2003,2048,2035,2077,2060,2064
2036,2036,1990,2059,2170,2081,2072,2071
2034,2035,1990,2078,2239,2064,2060,2076
2043,2030,1984,2084,2214,2050,2070,2086
2056,2030,1983,2084,2214,2045,2060,2099
2055,2024,1983,2053,2182,2014,2042,2099
2048,2020,1990,2048,2170,2019,2057,2104
2047,2022,2001,2064,2185,2052,2070,2104
2050,2027,2022,2047,2110,2048,2064,2061
2008,2011,2006,2002,2046,1995,2039,2045
2006,2010,2031,1963,1893,2000,2046,2061
2027,2021,2076,1984,1908,2026,2038,2066
2047,2044,2119,2038,2007,2072,2040,2075
2049,2066,2138,2068,2038,2077,2037,2076
2050,2076,2134,2059,2017,2064,2041,2062
2054,2070,2126,2058,2018,2092,2011,2048
2047,2062,2112,2037,1999,2139,1996,2028
2040,2053,2091,2019,1991,2172,2017,2026
2040,2054,2067,2030,2031,2204,2032,2029
2042,2044,2052,2034,2049,2167,2040,2034
2041,2048,2057,2031,2053,2013,2048,2030
2049,2054,2064,2028,2055,1922,2053,2043
2052,2051,2061,2019,2043,1953,2054,2043
2052,2040,2052,2014,2043,1996,2066,2040
2060,2049,2047,2018,2058,2020,2077,2047
2051,2046,2058,2038,2052,1991,2049,2037
2045,2044,2067,2042,2062,1973,2027,2040
2040,2046,2064,2038,2051,1969,2033,2037
2043,2045,2064,2030,2045,2009,2037,2035
2047,2043,2059,2029,2054,2051,2038,2041
2054,2039,2052,2032,2058,2080,2047,2036
2045,2032,2046,2026,2059,2072,2052,2047
2046,2038,2043,2034,2052,2069,2045,2054
2046,2033,2039,2036,2052,2077,2044,2065
2039,2043,2039,2036,2054,2086,2041,2070
2036,2035,2037,2036,2051,2067,2042,2069
2039,2040,2043,2046,2046,2048,2035,2075
2034,2045,2049,2047,2055,2000,2015,2085
2028,2035,2035,2039,2039,1969,2007,2080
2024,2026,2035,2045,2035,1983,2037,2080
2040,2039,2044,2048,2037,2012,2047,2084
2048,2042,2036,2050,2038,2029,2050,2082
2046,2043,2034,2043,2044,2028,2051,2080
2039,2035,2028,2038,2060,2023,2061,2078
2050,2041,2020,2041,2052,2045,2063,2066
2048,2033,2015,2036,2010,2056,2064,2051
2038,2028,2010,2022,1972,2045,2054,2036
2029,2028,2013,2014,1963,2044,2036,2014
2017,2024,2018,2019,1961,2039,2031,2013
2025,2029,2033,2026,1994,2010,2046,2021
2028,2033,2038,2034,2042,2004,2040,2027
2030,2041,2039,2049,2075,2041,2050,2027
2033,2040,2049,2056,2086,2073,2068,2022
2030,2036,2053,2061,2075,2084,2072,2026
2043,2049,2059,2064,2074,2070,2057,2024
2039,2050,2052,2072,2106,2032,2061,2024
2040,2056,2060,2074,2108,2029,2067,2034
2047,2055,2060,2070,2089,2030,2062,2037
2047,2051,2067,2066,2076,2028,2061,2040
2047,2054,2065,2065,2067,2029,2047,2040
2048,2053,2068,2063,2064,2023,2044,2043
2044,2046,2062,2057,2053,2025,2054,2048
2045,2046,2054,2049,2021,2023,2052,2051
2042,2043,2044,2032,2001,2029,2052,2057
2040,2039,2045,2034,2004,2033,2059,2061
2044,2042,2054,2036,2006,2035,2048,2074
2046,2044,2064,2044,1992,2033,2055,2079
2044,2048,2073,2041,1987,2040,2038,2082
2053,2051,2073,2036,1994,2042,2032,2092
2057,2053,2074,2038,1987,2048,2046,2093
2056,2058,2067,2046,2019,2046,2058,2096
2047,2051,2062,2061,2070,2054,2058,2086
2047,2058,2073,2075,2079,2060,2059,2081
2045,2057,2067,2068,2085,2038,2052,2078
2047,2054,2065,2052,2041,2007,2040,2081
2043,2054,2062,2055,2026,1996,2042,2070
2048,2057,2063,2050,2012,2011,2050,2067
2040,2044,2038,2010,1967,2014,2033,2033
2028,2025,2014,2004,2041,2048,2040,2031
2039,2036,2027,2062,2164,2086,2065,2039
2046,2039,2036,2070,2196,2101,2079,2037
2044,2039,2033,2057,2200,2119,2080,2037
2050,2042,2028,2050,2251,2138,2088,2047
2053,2048,2038,2056,2240,2120,2082,2038
2051,2046,2042,2045,2165,2089,2070,2037
2049,2045,2039,2036,2122,2073,2066,2034
2046,2045,2044,2023,2067,2057,2060,2032
2043,2037,2038,2024,2043,2045,2060,2026
2037,2046,2038,2023,1977,2046,2068,2029
2042,2045,2033,2019,1914,2057,2064,2026
2043,2044,2037,2033,2002,2084,2063,2034
2051,2050,2045,2050,2081,2093,2076,2041
2052,2057,2042,2053,2094,2090,2067,2053
2057,2056,2048,2065,2126,2094,2062,2050
2055,2055,2051,2080,2111,2099,2064,2060
2053,2049,2059,2079,2070,2093,2068,2049
2050,2048,2056,2056,1998,2073,2035,2055
2049,2046,2062,2039,1937,2049,2040,2066
2045,2049,2067,2037,1928,2040,2054,2075
2048,2048,2058,2030,1938,2038,2053,2079
2046,2046,2056,2049,2004,2020,2058,2090
2048,2049,2053,2057,1997,2022,2045,2082
2037,2030,2045,2015,1840,2018,2033,2070
2027,2022,2036,2019,1897,2018,2040,2067
2028,2033,2056,2048,1990,2007,2044,2062
2037,2029,2057,2055,2048,2010,2031,2058
2031,2027,2044,2052,2027,2007,2053,2056
2040,2026,2040,2060,2060,2022,2057,2052
2042,2019,2027,2066,2150,2034,2040,2051
2038,2018,2019,2075,2215,2065,2041,2026
2028,2021,2014,2066,2172,2066,2017,2018
2020,2027,2011,2047,2083,2033,2011,2016
2035,2028,1996,2028,2057,2008,2017,2010
2032,2016,1976,2026,2062,1987,1989,2000
2029,2014,1983,2030,2099,1947,2016,2019
2044,2033,1993,2052,2156,1993,2039,2024
2052,2032,2002,2033,2067,2029,2061,2016
2037,2030,2004,2007,1956,2059,2053,2010
2037,2028,2006,2016,2007,2068,2040,2005
2032,2032,2009,2016,2024,2064,2053,2008
2031,2032,2012,2017,2038,2066,2049,2022
2042,2037,2017,2035,2050,2074,2059,2027
2049,2046,2027,2047,2070,2080,2083,2031
2051,2042,2028,2047,2069,2079,2064,2041
2049,2037,2034,2040,2067,2083,2065,2046
2051,2036,2030,2046,2072,2094,2067,2041
2042,2029,2027,2036,2067,2092,2073,2044
2040,2027,2024,2030,2060,2082,2073,2040
2026,2020,2026,2024,2056,2072,2071,2045
2035,2027,2032,2028,2052,2043,2056,2049
2036,2035,2039,2037,2055,2029,2059,2073
2035,2047,2045,2053,2064,2035,2075,2085
2053,2064,2049,2061,2080,2053,2054,2083
2063,2062,2041,2067,2095,2062,2046,2081
2054,2060,2033,2062,2076,2059,2038,2075
2048,2043,2018,2052,2053,2066,2039,2064
2046,2040,2020,2053,2046,2071,2025,2058
2045,2047,2018,2047,2034,2053,2041,2051
2050,2048,2018,2055,2045,2041,2045,2055
2050,2041,2011,2058,2076,2035,2045,2055
2047,2043,2013,2060,2079,2038,2040,2051
2041,2041,2018,2055,2061,2047,2049,2047
2039,2049,2025,2053,2038,2069,2055,2038
2044,2052,2028,2052,2040,2078,2056,2032
2040,2051,2038,2049,2044,2080,2050,2027
2042,2046,2044,2057,2040,2091,2064,2036
2046,2059,2061,2056,2070,2105,2038,2038
2046,2055,2055,2054,2091,2094,2037,2039
2052,2063,2068,2057,2079,2075,2045,2018
2055,2058,2079,2045,2059,2038,2042,2018
2053,2054,2073,2037,2071,2039,2040,2020
2049,2052,2063,2033,2087,2049,2033,2018
2042,2042,2059,2033,2042,2088,2044,2022
2044,2047,2055,2023,1966,2082,2033,2012
2035,2033,2050,2027,1987,2089,2029,2011
2034,2031,2055,2037,2105,2072,2045,2014
2041,2038,2062,2054,2136,2009,2048,2024
2055,2056,2080,2071,2164,1997,2046,2041
2053,2055,2074,2070,2164,2021,2045,2042
2058,2048,2071,2064,2131,2021,2058,2036
2052,2044,2070,2057,2071,2018,2044,2033
2045,2043,2066,2054,2047,1999,2025,2024
2041,2053,2061,2037,1981,1969,2044,2051
2043,2057,2063,2043,2013,1983,2065,2085
2059,2060,2072,2062,2038,1995,2064,2091
2053,2056,2052,2052,2027,2003,2054,2066
2036,2042,2039,2038,2012,2006,2058,2048
2023,2027,2032,2019,1989,2023,2047,2052
2026,2040,2040,2027,1989,2062,2052,2049
2039,2054,2056,2046,2015,2050,2046,2045
2052,2064,2065,2053,2021,2051,2039,2053
2049,2061,2059,2053,2021,2054,2041,2047
2044,2055,2042,2040,2025,2059,2040,2031
2040,2042,2024,2044,2074,2088,2051,2019
2044,2040,2023,2041,2094,2099,2045,2020
2043,2039,2015,2039,2055,2106,2038,2011
2040,2034,2006,2041,2018,2107,2058,2014
2035,2030,2004,2033,2014,2110,2053,2012
2043,2031,2011,2027,1996,2095,2039,2008
2038,2033,2006,2034,2016,2079,2043,2012
2041,2033,2010,2051,2069,2064,2046,2020
2046,2040,2018,2072,2105,1996,2033,2009
2050,2033,2023,2078,2104,1967,2043,1998
2039,2022,2011,2064,2083,1992,2030,2003
2036,2028,2014,2055,2077,2007,2037,2005
2044,2039,2025,2054,2061,1990,2029,2008
2038,2040,2040,2053,2059,1985,2025,2014
2049,2057,2062,2053,2053,2006,2039,2015
2056,2068,2084,2051,2038,2043,2050,2020
2054,2065,2081,2055,2049,2066,2047,2030
2055,2068,2103,2067,2057,2062,2041,2036
2059,2058,2108,2073,2051,2067,2043,2041
2057,2063,2100,2071,2056,2068,2046,2048
2056,2057,2097,2074,2060,2078,2024,2051
2057,2055,2089,2081,2062,2090,2026,2053
2063,2060,2088,2077,2062,2085,2012,2053
2060,2058,2094,2077,2024,2087,2010,2054
2056,2062,2093,2071,2056,2085,2035,2065
2048,2057,2092,2073,2105,2100,2049,2071
2044,2051,2075,2073,2088,2105,2035,2074
2043,2047,2057,2083,2102,2122,2016,2080
2041,2053,2045,2080,2086,2077,2006,2072
2036,2050,2040,2048,2032,2001,2008,2064
2040,2057,2037,2058,2011,1994,2021,2068
2049,2066,2047,2079,2092,2038,2020,2066
2057,2070,2038,2087,2063,2039,2027,2068
2059,2064,2026,2063,1999,2037,2031,2062
2063,2061,2023,2024,1912,2045,2018,2050
2057,2052,2011,1972,1770,2033,2005,2038
2054,2037,2009,1957,1831,2036,2026,2021
2041,2033,2011,1978,1983,2072,2023,2010
2040,2030,2008,2002,2082,2048,2024,2001
2034,2032,2018,2017,2121,2005,2018,2004
2040,2034,2026,2020,2126,2007,2021,2017
2047,2044,2050,2025,2110,2020,2030,2017
2049,2051,2072,2042,2113,2045,2008,2014
2046,2045,2073,2044,2102,2063,2030,2014
2041,2045,2070,2042,2110,2082,2038,2022
2053,2050,2068,2050,2115,2084,2037,2017
2049,2053,2060,2047,2113,2080,2039,2022
2050,2049,2051,2049,2113,2073,2034,2027
2048,2045,2034,2059,2109,2078,2047,2026
2043,2048,2034,2061,2088,2069,2037,2026
2043,2044,2020,2057,2057,2052,2059,2032
2037,2035,2014,2054,2039,2040,2058,2033
2045,2027,2011,2053,2053,2048,2050,2041
2053,2026,2002,2053,2055,2048,2051,2048
2049,2019,2005,2051,2064,2054,2026,2052
2043,2019,2020,2063,2072,2057,2048,2056
2038,2022,2039,2086,2070,2051,2059,2054
2036,2022,2052,2096,2067,2040,2046,2061
2046,2025,2053,2091,2051,2044,2049,2064
2042,2031,2057,2095,2045,2032,2048,2055
2033,2023,2044,2080,2042,2029,2034,2058
2032,2023,2041,2073,2039,2037,2038,2066
2034,2028,2037,2067,2038,2035,2045,2061
2030,2027,2040,2063,2022,2042,2029,2052
2024,2029,2063,2062,2015,2045,2022,2052
2026,2048,2086,2058,1997,2042,2030,2052
2038,2058,2084,2048,1988,2034,2023,2050
2039,2060,2079,2040,1985,2032,2004,2041
2040,2062,2075,2041,2034,2022,2036,2047
2054,2077,2077,2066,2099,2028,2067,2043
2056,2078,2070,2052,2105,2045,2044,2040
2055,2063,2041,2017,2093,2050,2030,2030
2047,2050,2022,2011,2082,2054,2055,2031
2050,2048,2023,2001,2078,2062,2057,2028
2048,2052,2035,2009,2079,2077,2059,2031
2055,2055,2045,2030,2079,2067,2059,2033
2066,2054,2037,2037,2072,2062,2065,2020
2056,2040,2027,2044,2066,2057,2071,2018
2044,2035,2011,2053,2068,2076,2064,2020
2046,2042,2015,2054,2073,2075,2054,2022
2043,2041,2015,2064,2074,2071,2059,2028
2042,2042,2019,2079,2071,2062,2054,2025
2049,2044,2028,2088,2072,2053,2063,2033
2048,2048,2042,2077,2068,2055,2058,2036
2043,2043,2036,2068,2059,2056,2065,2042
2044,2032,2030,2047,2056,2054,2060,2044
2038,2029,2019,2029,2058,2047,2048,2052
2046,2027,2025,2019,2053,2048,2039,2047
2044,2046,2054,2008,2056,2062,2054,2060
2049,2048,2073,2010,2059,2066,2051,2067
2048,2052,2090,2024,2066,2068,2048,2080
2050,2061,2098,2041,2074,2067,2049,2079
2049,2060,2089,2039,2079,2064,2056,2074
2045,2041,2066,2034,2095,2061,2048,2072
2029,2036,2055,2028,2076,2056,2036,2065
2036,2041,2050,2016,2007,2054,2047,2068
2035,2043,2048,2029,2044,2056,2038,2068
2042,2058,2055,2037,2042,2046,2033,2065
2044,2057,2055,2032,2011,2030,2056,2060
2048,2053,2054,2032,1996,2025,2039,2058
2047,2050,2053,2034,1990,2007,2027,2045
2042,2041,2059,2027,1983,2006,2018,2039
2034,2039,2049,2019,1985,2018,2012,2026
2033,2037,2050,2030,2018,2027,2010,2025
2039,2041,2064,2056,2047,2041,2006,2028
2041,2043,2061,2053,2050,2046,2022,2023
2048,2043,2062,2051,2059,2053,2039,2028
2045,2051,2063,2052,2064,2058,2060,2030
2044,2045,2056,2063,2066,2060,2051,2029
2046,2046,2057,2070,2058,2057,2050,2020
2041,2035,2042,2068,2050,2051,2044,2015
2040,2038,2044,2063,2043,2056,2045,2021
2049,2046,2050,2066,2060,2067,2050,2016
2047,2043,2052,2057,2045,2058,2040,2021
2047,2042,2048,2052,2031,2054,2055,2020
2049,2045,2048,2048,2044,2053,2061,2019
2040,2044,2051,2045,2067,2053,2051,2027
2049,2041,2047,2045,2058,2046,2032,2033
2046,2033,2039,2035,2036,2043,2031,2026
2041,2027,2033,2036,2025,2039,2015,2035
2040,2028,2033,2031,2033,2040,2018,2046
2037,2028,2035,2037,2036,2044,2048,2057
2041,2026,2032,2030,2016,2050,2052,2075
2046,2028,2032,2019,2001,2048,2054,2065
2044,2027,2031,2030,2000,2077,2061,2066
2052,2039,2030,2042,2038,2100,2048,2070
2048,2034,2030,2044,2023,2096,2049,2068
2037,2030,2020,2037,2009,2085,2029,2064
2035,2018,2021,2031,1994,2059,2032,2063
2028,2033,2033,2035,2021,2038,2037,2067
2036,2036,2039,2042,2081,2043,2040,2077
2042,2041,2035,2046,2092,2045,2046,2073
2044,2040,2032,2033,2051,2037,2056,2065
2050,2041,2039,2038,2046,2045,2049,2055
2041,2043,2045,2049,2055,2058,2040,2042
2039,2047,2051,2058,2074,2063,2040,2040
2043,2052,2061,2058,2054,2043,2056,2032
2046,2050,2063,2052,2020,2019,2037,2025
2038,2053,2064,2045,2022,2033,2065,2025
2043,2057,2067,2050,2034,2054,2049,2027
2049,2057,2061,2049,2034,2062,2045,2022
2046,2052,2060,2046,2062,2058,2035,2011
2038,2044,2061,2044,2049,2068,2036,1998
2029,2038,2050,2034,2045,2093,2031,1994
2022,2034,2052,2042,2078,2097,2023,1997
2027,2048,2054,2040,2052,2077,2017,2008
2031,2042,2043,2031,2041,2040,2028,2017
2036,2038,2041,2045,2094,1996,2033,2038
2043,2042,2049,2068,2164,2011,2042,2042
2046,2050,2054,2086,2171,2033,2041,2035
2046,2048,2057,2082,2150,2060,2024,2037
2044,2049,2053,2073,2135,2068,2030,2046
2049,2046,2047,2078,2126,2070,2033,2056
2046,2047,2051,2076,2118,2066,2045,2061
2057,2053,2052,2066,2091,2045,2042,2060
2052,2052,2043,2049,2065,2019,2033,2060
2049,2047,2048,2022,1998,2024,2036,2059
2049,2056,2056,2030,1959,2030,2042,2066
2044,2049,2063,2043,1986,2042,2037,2064
2047,2047,2056,2053,2018,2040,2039,2069
2032,2036,2044,2039,2016,2032,2046,2069
2036,2031,2037,2024,2014,2030,2040,2077
2042,2033,2029,2028,2031,2030,2045,2075
2046,2034,2032,2040,2059,2053,2036,2072
2044,2034,2039,2051,2077,2065,2035,2066
2042,2041,2045,2046,2057,2068,2044,2055
2040,2038,2045,2049,2052,2073,2044,2051
2046,2045,2054,2054,2061,2074,2049,2044
2050,2052,2056,2051,2063,2069,2042,2044
2060,2054,2058,2050,2056,2068,2052,2037
2054,2052,2058,2053,2045,2064,2045,2040
2047,2050,2038,2036,2047,2049,2045,2024
2045,2039,2032,2041,2052,2036,2024,2024
2045,2036,2028,2048,2057,2033,2004,2020
2052,2033,2033,2054,2056,2030,2011,2013
2048,2036,2035,2053,2051,2036,2003,2010
2044,2035,2035,2052,2042,2039,1996,1998
2034,2027,2024,2046,2060,2037,2001,2001
2043,2026,2022,2046,2059,2024,2011,2011
2047,2029,2024,2050,2062,2011,2008,2005
2046,2036,2034,2048,2067,2029,2016,2005
2046,2034,2040,2058,2072,2044,2035,2015
2039,2040,2043,2061,2072,2054,2048,2015
2036,2038,2052,2072,2105,2065,2045,2016
2033,2044,2056,2084,2125,2079,2052,2026
2041,2039,2059,2080,2116,2113,2051,2029
2038,2035,2060,2080,2115,2126,2035,2038
2042,2030,2049,2081,2128,2121,2031,2043
2032,2024,2041,2072,2141,2100,2017,2047
2029,2018,2036,2086,2182,2033,2037,2067
2033,2030,2052,2104,2224,2033,2065,2091
2039,2044,2065,2107,2161,2043,2076,2104
2054,2049,2066,2087,2001,2048,2082,2111
2051,2039,2050,2071,1980,2047,2066,2089
2031,2016,2030,2048,1914,2021,2051,2066
2020,2004,2019,2016,1861,1993,2017,2053
2018,2014,2029,2018,1915,1980,2014,2041
2020,2022,2043,2038,1969,1998,2018,2041
2029,2031,2047,2060,1993,2033,2030,2042
2041,2033,2044,2055,1987,2041,2016,2040
2045,2031,2027,2015,1965,2029,2015,2025
2038,2023,2008,1994,1964,2025,1998,2024
2032,2025,2008,2004,2012,2049,2009,2030
2036,2036,2049,2040,2074,2119,2029,2022
2033,2040,2050,2058,2113,2182,2065,2028
2039,2039,2043,2052,2086,2185,2064,2024
2037,2037,2044,2039,2068,2110,2048,2024
2043,2034,2039,2028,2061,2014,2049,2015
2035,2032,2040,2035,2094,2014,2047,2010
2035,2040,2056,2041,2088,2014,2046,2018
2033,2039,2059,2025,2003,1952,2038,2012
2033,2040,2061,2010,1944,1928,2050,2018
2041,2055,2063,2024,1969,1937,2053,2030
2050,2065,2062,2030,1960,1952,2043,2033
2057,2065,2072,2052,1998,1992,2063,2047
2069,2082,2088,2081,2066,2029,2069,2051
2069,2082,2086,2092,2131,2066,2060,2051
2067,2074,2088,2105,2144,2084,2054,2044
2070,2070,2083,2094,2100,2065,2033,2034
2057,2053,2073,2074,2056,2059,2030,2031
2054,2049,2064,2069,2054,2064,2025,2040
2042,2037,2058,2072,2073,2052,2028,2035
2034,2035,2060,2073,2068,2069,2028,2028
2028,2029,2053,2052,1993,2069,2020,2034
2031,2030,2038,2012,1915,2048,2017,2055
2034,2038,2048,2013,1899,2002,2018,2062
2042,2040,2058,2034,1864,1952,1997,2051
2031,2037,2046,2047,1908,1900,2017,2067
2038,2033,2050,2077,2061,1960,2028,2084
2043,2037,2045,2087,2109,2048,2050,2078
2043,2034,2037,2092,2115,2126,2047,2068
2046,2039,2037,2097,2103,2151,2059,2058
2046,2033,2021,2084,2109,2128,2062,2054
2047,2028,2010,2067,2114,2077,2047,2052
2045,2017,1995,2042,2037,2023,2038,2038
2032,2012,1975,2006,1968,2007,2033,2026
2034,2022,1997,2018,1997,2034,2052,2028
2041,2046,2043,2049,2053,2057,2039,2029
2046,2064,2067,2062,2081,2062,2043,2029
2055,2069,2075,2050,2076,2053,2040,2029
2053,2060,2071,2041,2070,2058,2035,2023
2055,2055,2067,2040,2105,2068,2060,2029
2050,2058,2068,2044,2114,2096,2054,2026
2051,2053,2062,2039,2085,2087,2063,2014
2043,2040,2060,2034,2066,2071,2016,2008
2044,2036,2059,2040,2073,2082,2019,2015
2053,2045,2061,2044,2067,2088,2040,2020
2052,2047,2059,2045,2054,2086,2040,2022
2049,2051,2056,2045,2053,2082,2064,2025
2057,2049,2062,2050,2055,2072,2052,2028
2052,2045,2064,2058,2062,2066,2039,2038
2048,2040,2070,2048,2059,2051,2031,2036
2039,2038,2065,2042,2060,2035,2049,2042
2045,2040,2056,2043,2056,2035,2047,2054
2052,2042,2057,2045,2031,2023,2056,2060
2053,2046,2046,2047,2085,2043,2045,2060
2061,2049,2055,2082,2175,2098,2071,2070
2067,2053,2066,2112,2235,2142,2076,2080
2073,2056,2079,2140,2258,2152,2079,2084
2064,2052,2080,2133,2258,2148,2074,2093
2055,2046,2062,2114,2233,2125,2065,2083
2044,2032,2054,2102,2193,2104,2056,2071
2045,2038,2055,2090,2129,2074,2042,2060
2040,2031,2057,2069,2024,2031,2018,2053
2036,2028,2044,2011,1810,1995,2015,2050
2034,2030,2048,2013,1811,1993,2030,2056
2039,2037,2054,2042,1914,2007,2030,2051
2047,2049,2056,2039,1958,2024,2037,2046
2050,2047,2059,2044,1986,2044,2020,2048
2053,2052,2072,2059,2003,2026,2047,2047
2062,2056,2069,2061,2003,2015,2054,2041
2067,2049,2053,2049,2000,2023,2042,2041
2052,2045,2044,2034,1982,2028,2050,2037
2053,2039,2039,2022,1985,2033,2047,2035
2052,2039,2040,2031,2000,2025,2032,2029
2047,2042,2037,2035,2020,2022,2021,2010
2040,2035,2036,2028,2045,2021,2025,2011
2030,2034,2038,2058,2114,2040,2036,2012
2034,2028,2051,2074,2128,2050,2066,2016
2044,2040,2057,2073,2092,2053,2054,2016
2037,2036,2056,2074,2056,2048,2059,2019
2043,2034,2055,2069,2047,2050,2069,2026
2056,2040,2051,2072,2057,2043,2056,2032
2051,2039,2053,2069,2055,2026,2055,2032
2054,2043,2051,2053,2049,2019,2037,2027
2037,2036,2043,2056,2089,2036,2044,2029
2036,2035,2032,2051,2107,2045,2042,2037
2035,2041,2029,2054,2097,2042,2031,2038
2044,2040,2026,2050,2082,2039,2023,2048
2042,2040,2024,2047,2074,2044,2031,2070
2043,2038,2021,2056,2072,2036,2060,2066
2041,2035,2022,2051,2070,2046,2071,2069
2038,2031,2016,2044,2065,2043,2033,2074
2042,2029,2006,2027,2048,2033,2046,2072
2031,2009,1999,2011,2033,2032,2040,2069
2025,2005,1997,2011,2029,2031,2029,2069
2038,2026,2017,2016,2042,2038,2023,2066
2035,2024,2016,2007,2033,2040,2026,2064
2035,2033,2019,2012,2038,2050,2059,2067
2038,2038,2031,2030,2050,2052,2065,2062
2042,2040,2027,2044,2054,2053,2038,2057
2038,2037,2023,2049,2054,2054,2037,2048
2045,2031,2011,2044,2057,2058,2024,2040
2048,2023,2003,2045,2060,2051,2037,2040
2041,2022,2000,2042,2053,2049,2037,2036
2043,2024,2004,2040,2045,2051,2045,2040
2043,2041,2026,2046,2057,2050,2028,2037
2059,2065,2048,2057,2057,2050,2032,2040
2066,2071,2058,2067,2054,2049,2040,2038
2065,2070,2072,2061,2060,2053,2049,2040
2064,2067,2066,2062,2050,2043,2037,2024
2047,2055,2058,2046,2052,2046,2046,2019
2044,2054,2063,2050,2052,2050,2049,2023
2052,2066,2070,2053,2051,2054,2045,2028
2048,2065,2075,2062,2054,2055,2039,2030
2052,2069,2076,2064,2054,2057,2057,2034
2051,2064,2076,2064,2056,2056,2034,2035
2052,2058,2077,2069,2055,2054,2020,2034
2046,2058,2091,2075,2060,2053,2045,2044
2046,2066,2090,2080,2060,2051,2023,2053
2054,2063,2085,2080,2067,2053,2044,2053
2045,2061,2076,2076,2066,2054,2055,2058
2052,2055,2071,2072,2064,2057,2038,2066
2046,2059,2065,2073,2070,2055,2047,2074
2050,2057,2062,2071,2073,2055,2046,2076
2048,2052,2064,2064,2065,2054,2033,2081
2053,2053,2061,2070,2064,2045,2032,2078
2045,2046,2053,2056,2054,2038,2037,2070
2038,2035,2043,2057,2047,2033,2033,2073
2039,2043,2056,2056,2044,2039,2047,2072
2042,2046,2054,2052,2044,2040,2046,2067
2047,2042,2052,2046,2037,2040,2061,2061
2045,2045,2047,2037,2031,2036,2060,2064
2043,2045,2047,2032,2028,2039,2053,2056
2036,2044,2040,2036,2034,2043,2052,2052
2042,2048,2030,2044,2040,2046,2057,2049
2051,2049,2036,2045,2042,2050,2066,2049
2043,2050,2032,2042,2044,2049,2061,2040
2046,2048,2032,2042,2034,2053,2034,2044
2047,2042,2030,2048,2038,2046,2057,2038
2045,2041,2028,2042,2031,2047,2020,2035
2043,2040,2017,2030,2011,2052,2042,2021
2041,2032,2017,2028,1996,2049,2052,2018
2037,2036,2013,2021,1992,2051,2050,2013
2036,2019,2006,2020,1995,2040,2051,2012
2033,2020,2008,2034,2030,2023,2055,2021
2038,2030,2019,2054,2094,2018,2058,2028
2044,2036,2030,2069,2118,2039,2053,2034
2047,2046,2038,2077,2120,2048,2056,2041
2049,2055,2055,2081,2109,2066,2051,2033
2050,2054,2070,2083,2096,2060,2048,2027
2046,2051,2062,2079,2086,2057,2055,2030
2043,2039,2050,2075,2071,2055,2051,2045
2045,2034,2052,2082,2086,2069,2038,2056
2055,2046,2053,2080,2084,2085,2065,2062
2055,2048,2053,2077,2084,2088,2058,2065
2052,2035,2046,2079,2093,2092,2039,2063
2046,2036,2035,2076,2103,2105,2046,2068
2052,2032,2035,2078,2114,2102,2048,2070
2056,2040,2045,2089,2120,2093,2060,2076
2043,2043,2037,2081,2129,2084,2034,2068
2043,2032,2010,2068,2126,2070,2040,2065
2047,2020,1997,2066,2104,2057,2062,2066
2053,2033,2007,2066,2105,2051,2059,2061
2056,2033,2004,2072,2084,2030,2054,2052
2046,2033,2006,2074,2088,2041,2054,2049
2038,2043,2037,2084,2087,2058,2057,2047
2043,2047,2053,2090,2063,2054,2046,2046
2047,2059,2060,2081,1957,2027,2044,2032
2052,2045,2065,2081,1967,1994,2044,2035
2041,2048,2068,2091,2034,1960,2018,2041
2040,2042,2068,2109,2076,1983,2014,2027
2037,2040,2069,2120,2085,2014,2022,2029
2041,2053,2085,2116,2082,2032,2029,2037
2048,2064,2087,2118,2082,2042,2038,2038
2053,2068,2098,2113,2048,2042,2034,2035
2054,2073,2086,2093,2024,2026,2045,2032
2052,2066,2061,2062,1995,2004,2042,2017
2044,2057,2038,2041,2009,2020,2042,2025
2050,2059,2042,2028,1954,2040,2040,2024
2060,2074,2046,1990,1901,2036,2037,2023
2055,2069,2045,1979,1962,2042,2057,2032
2061,2064,2038,1968,1977,2029,2044,2024
2044,2053,2021,1952,1952,2008,2038,2025
2048,2050,2016,1932,1934,2010,2036,2028
2050,2050,2020,1939,1961,2008,2038,2023
2049,2049,2040,1972,2020,2027,2028,2036
2056,2065,2070,2020,2089,2056,2039,2047
2062,2069,2088,2044,2127,2066,2056,2057
2064,2076,2094,2057,2132,2075,2050,2070
2065,2078,2103,2059,2118,2086,2050,2078
2064,2067,2094,2052,2080,2075,2050,2071
2060,2065,2089,2037,2044,2060,2039,2057
2057,2066,2077,2029,2015,2065,2032,2056
2044,2049,2066,2017,1985,2056,2024,2049
2040,2042,2053,2011,1974,2031,2028,2059
2049,2054,2057,2039,2029,2017,2053,2077
2058,2059,2072,2062,2088,2012,2039,2086
2068,2064,2076,2075,2110,2017,2037,2084
2069,2067,2082,2073,2086,2023,2054,2077
2063,2065,2076,2071,2051,2029,2046,2063
2052,2066,2064,2072,2054,2046,2065,2052
2054,2056,2060,2059,2050,2056,2063,2044
2055,2055,2053,2052,2065,2052,2077,2040
2056,2054,2042,2043,2072,2050,2029,2041
2061,2057,2047,2040,2066,2042,2023,2033
2053,2052,2050,2042,2051,2040,2044,2033
2061,2054,2051,2041,2051,2038,2044,2031
2064,2054,2047,2040,2064,2043,2040,2028
2058,2053,2045,2046,2078,2044,2052,2026
2060,2052,2047,2043,2071,2043,2050,2017
2056,2037,2039,2034,2058,2049,2053,2021
2050,2034,2038,2038,2064,2056,2068,2018
2051,2046,2044,2051,2069,2064,2069,2026
2054,2050,2052,2052,2072,2065,2073,2032
2065,2052,2062,2055,2070,2070,2068,2029
2061,2054,2063,2054,2046,2063,2075,2044
2063,2053,2059,2048,2028,2055,2068,2041
2066,2056,2060,2050,2029,2051,2066,2044
2065,2055,2059,2050,2028,2049,2072,2047
2061,2058,2059,2055,2026,2058,2058,2061
2059,2057,2056,2060,2064,2061,2076,2069
2062,2057,2065,2071,2076,2061,2067,2070
2062,2061,2059,2074,2057,2063,2061,2080
2058,2060,2057,2065,2032,2074,2034,2076
2052,2051,2049,2052,2023,2084,2030,2074
2047,2048,2051,2068,2079,2109,2067,2073
2049,2045,2041,2085,2122,2103,2045,2069
2042,2035,2029,2073,2126,2050,2043,2075
2046,2033,2029,2077,2089,2007,2049,2076
2053,2032,2030,2056,2030,1989,2048,2071
2048,2035,2026,2036,2031,2008,2055,2070
2053,2030,2018,2023,2014,2021,2043,2060
2047,2025,2010,2034,2031,2034,2039,2060
2049,2028,2006,2037,2066,2048,2038,2041
2040,2028,2005,2043,2087,2061,2038,2030
2038,2031,2019,2051,2096,2081,2054,2022
2043,2038,2026,2049,2094,2096,2059,2025
2052,2043,2025,2045,2079,2098,2057,2022
2052,2042,2024,2030,2051,2101,2057,2018
2042,2030,2006,2013,2014,2069,2043,2006
2050,2028,2006,2008,2033,2016,2023,2011
2051,2037,2014,2026,2078,1973,2020,2012
2054,2033,2015,2028,2111,1983,2030,2009
2051,2027,2009,2020,2106,1992,2019,1999
2044,2024,2001,2010,2086,2012,2019,2005
2048,2032,2013,2014,2095,2028,2025,2020
2053,2043,2028,2026,2112,2045,2048,2022
2054,2043,2027,2030,2105,2051,2054,2028
2045,2048,2030,2038,2100,2056,2061,2034
2050,2037,2032,2039,2080,2052,2052,2037
2044,2036,2019,2014,1953,2039,2052,2036
2042,2022,2026,2014,1939,2045,2063,2036
2058,2039,2058,2042,2006,2061,2056,2039
2055,2039,2070,2054,2038,2072,2067,2046
2047,2036,2068,2054,2042,2062,2059,2051
2056,2034,2068,2048,2056,2059,2055,2065
2058,2040,2083,2063,2059,2066,2057,2073
2066,2053,2091,2067,2063,2071,2059,2076
2054,2048,2079,2059,2061,2077,2056,2080
2053,2041,2066,2062,2052,2053,2030,2078
2044,2029,2051,2055,2044,2035,2005,2070
2043,2030,2041,2045,2035,2004,2028,2069
2041,2042,2052,2054,2037,1987,2019,2080
2052,2059,2067,2059,2042,2003,2003,2077
2057,2072,2070,2057,2043,2013,2028,2074
2059,2072,2072,2051,2037,2023,2028,2068
2058,2063,2058,2041,2029,2026,2010,2057
2058,2062,2054,2045,2027,2028,2016,2051
2062,2062,2063,2046,2024,2034,2028,2047
2061,2066,2063,2043,2031,2046,2030,2033
2054,2061,2053,2034,2039,2056,2039,2032
2050,2053,2050,2029,2038,2053,2029,2028
2050,2055,2044,2030,2037,2060,2031,2024
2050,2057,2041,2034,2044,2069,2056,2020
2050,2054,2047,2034,2057,2071,2074,2027
2054,2065,2054,2035,2052,2066,2071,2030
2053,2062,2052,2039,2049,2056,2056,2018
2048,2046,2044,2031,2049,2050,2053,2021
2046,2040,2037,2029,2052,2054,2059,2025
2052,2048,2044,2040,2064,2056,2084,2028
2058,2052,2052,2042,2059,2050,2056,2030
2059,2055,2052,2041,2058,2048,2051,2033
2072,2064,2056,2046,2057,2048,2063,2037
2061,2061,2062,2047,2059,2045,2068,2031
2052,2053,2070,2050,2055,2044,2066,2029
2048,2053,2060,2041,2056,2040,2068,2034
2050,2049,2055,2044,2053,2038,2080,2040
2043,2048,2056,2046,2041,2044,2069,2051
2047,2049,2062,2053,2048,2049,2057,2061
2045,2048,2079,2066,2048,2046,2039,2064
2043,2050,2088,2069,2049,2050,2039,2069
2046,2045,2082,2068,2050,2051,2045,2061
2045,2044,2076,2067,2053,2046,2045,2068
2044,2038,2064,2059,2043,2043,2058,2066
2045,2035,2050,2048,2047,2039,2034,2067
2041,2044,2057,2058,2045,2043,2049,2074
2049,2052,2052,2059,2044,2041,2047,2069
2050,2046,2051,2054,2047,2046,2050,2065
2055,2058,2040,2053,2046,2048,2046,2067
2050,2059,2041,2054,2050,2051,2058,2064
2048,2056,2045,2047,2047,2046,2049,2058
2045,2051,2041,2044,2049,2044,2061,2047
2050,2051,2041,2040,2034,2048,2032,2052
2054,2052,2040,2038,2042,2050,2056,2039
2052,2056,2037,2038,2037,2053,2051,2030
2050,2058,2038,2030,2037,2055,2039,2032
2049,2057,2030,2033,2036,2053,2056,2030
2052,2051,2032,2030,2036,2049,2039,2032
2047,2050,2033,2031,2040,2052,2070,2031
2050,2042,2028,2028,2032,2046,2067,2024
2040,2030,2018,2016,2016,2025,2069,2022
2045,2029,2021,2023,2037,2039,2084,2031
2058,2045,2034,2044,2057,2043,2078,2039
2058,2050,2022,2059,2089,2019,2096,2039
2061,2043,2023,2061,2132,2024,2089,2036
2064,2044,2026,2058,2119,2028,2100,2036
2056,2045,2024,2060,2116,2040,2089,2046
2065,2043,2027,2057,2098,2060,2077,2062
2071,2036,2020,2046,2070,2051,2080,2066
2065,2030,2009,2033,2034,2038,2049,2059
2041,2017,1999,2013,1968,2023,2034,2048
2021,2013,2010,2015,1942,2042,2044,2036
2015,2012,2016,2027,1894,2072,2038,2020
2008,2013,2022,2031,1919,2120,2038,2026
2022,2024,2034,2072,2035,2179,2063,2058
2039,2027,2033,2100,2107,2185,2046,2063
2039,2022,2025,2097,2129,2110,2024,2052
2025,2000,2012,2084,2121,2010,2005,2055
2021,1999,2015,2068,2062,1987,2028,2051
2024,2009,2020,2041,1988,2000,2026,2051
2021,2019,2034,2041,1996,2010,2029,2050
2027,2039,2064,2053,2044,2029,2028,2058
2039,2061,2081,2069,2076,2048,2033,2058
2054,2068,2082,2078,2082,2058,2032,2065
2064,2081,2085,2078,2070,2054,2026,2056
2067,2066,2067,2064,2047,2040,2032,2055
2054,2050,2044,2053,2039,2025,2028,2038
2049,2043,2036,2047,2057,2022,2040,2033
2046,2043,2026,2040,2080,2029,2040,2030
2057,2046,2020,2033,2091,2024,2029,2030
2056,2038,2010,2008,2042,1991,2045,2034
2052,2034,1991,1988,1988,1981,2022,2040
2047,2036,1992,1981,1968,1984,2033,2034
2056,2052,2026,1999,1991,2003,2035,2034
2055,2071,2063,2007,2019,2021,2042,2020
2056,2086,2090,2023,2051,2047,2060,2028
2072,2097,2095,2027,2057,2072,2056,2032
2062,2090,2079,2020,2061,2100,2073,2033
2062,2078,2067,2010,2052,2128,2062,2036
2053,2070,2047,2008,2056,2120,2043,2035
2054,2065,2046,2026,2053,2092,2069,2040
2054,2063,2064,2037,2055,2070,2043,2044
2060,2073,2081,2048,2061,2056,2023,2038
2055,2071,2084,2053,2059,2041,2043,2041
2053,2070,2083,2051,2049,2055,2053,2048
2050,2061,2068,2052,2051,2068,2040,2063
2048,2058,2071,2053,2062,2055,2041,2069
2046,2052,2066,2052,2063,2046,2049,2063
2040,2051,2061,2055,2066,2049,2042,2071
2038,2055,2067,2055,2062,2051,2027,2077
2044,2047,2057,2047,2058,2040,2020,2068
2046,2037,2051,2041,2050,2041,2028,2071
2037,2046,2048,2044,2048,2046,2043,2071
2045,2051,2051,2045,2049,2047,2026,2065
2046,2049,2052,2047,2049,2039,2059,2060
2048,2051,2050,2039,2044,2039,2040,2060
2046,2053,2048,2029,2035,2041,2040,2056
2056,2049,2050,2017,2024,2038,2045,2042
2054,2054,2052,2017,2036,2047,2049,2044
2051,2055,2059,2016,2042,2049,2049,2036
2053,2052,2053,2017,2044,2051,2038,2038
2046,2051,2042,2014,2037,2047,2034,2029
2042,2052,2040,2023,2041,2047,2042,2024
2047,2054,2046,2030,2050,2045,2047,2038
2055,2058,2057,2043,2053,2050,2031,2031
2054,2060,2064,2042,2056,2048,2036,2025
2047,2054,2061,2045,2050,2045,2041,2025
2039,2044,2051,2041,2052,2045,2040,2024
2042,2039,2053,2043,2057,2041,2053,2032
2047,2048,2056,2057,2065,2057,2048,2030
2050,2051,2055,2051,2066,2056,2037,2037
2050,2054,2051,2055,2061,2056,2055,2037
2052,2052,2056,2050,2064,2060,2052,2043
2052,2050,2054,2056,2062,2058,2059,2049
2053,2057,2056,2059,2066,2055,2039,2050
2058,2051,2061,2058,2064,2053,2038,2046
2050,2053,2056,2059,2059,2048,2031,2060
2052,2055,2061,2056,2062,2045,2030,2056
2054,2051,2057,2055,2064,2042,2045,2055
2049,2049,2052,2054,2065,2044,2040,2069
2049,2043,2053,2047,2056,2045,2047,2070
2044,2046,2049,2050,2059,2055,2041,2074
2040,2046,2051,2042,2052,2054,2036,2078
2042,2047,2039,2045,2050,2047,2046,2081
2035,2040,2033,2038,2045,2051,2032,2077
2038,2040,2032,2043,2052,2054,2056,2085
2049,2051,2038,2046,2055,2054,2047,2077
2044,2053,2037,2045,2046,2050,2027,2076
2044,2044,2041,2044,2044,2047,2026,2067
2042,2044,2046,2044,2043,2051,2021,2065
2050,2043,2045,2038,2038,2041,2025,2060
2049,2049,2049,2047,2041,2042,2024,2055
2053,2048,2056,2051,2035,2042,2041,2046
2049,2042,2055,2052,2036,2035,2024,2043
2045,2045,2053,2052,2043,2042,2024,2036
2041,2043,2050,2055,2046,2045,2037,2033
2049,2047,2050,2056,2052,2047,2026,2032
2039,2044,2050,2049,2057,2040,2047,2027
2049,2046,2046,2053,2060,2039,2048,2028
2049,2050,2044,2053,2064,2033,2048,2033
2044,2042,2040,2052,2054,2032,2049,2029
2048,2038,2038,2049,2058,2034,2044,2028
2042,2043,2043,2052,2062,2044,2034,2029
2047,2043,2035,2049,2054,2049,2057,2037
2044,2040,2037,2046,2042,2060,2044,2046
2049,2039,2035,2041,2044,2063,2050,2050
2052,2032,2035,2045,2033,2073,2068,2054
2046,2035,2035,2037,2002,2084,2062,2041
2045,2033,2026,2032,1988,2075,2058,2042
2042,2035,2022,2026,1970,2066,2040,2037
2035,2036,2019,2018,1946,2063,2053,2054
2038,2033,2026,2023,1965,2036,2064,2062
2050,2032,2040,2042,2018,2036,2072,2076
2058,2039,2052,2070,2094,2070,2097,2093
2056,2042,2050,2084,2122,2100,2106,2095
2060,2039,2042,2092,2121,2123,2107,2088
2053,2030,2028,2089,2092,2116,2100,2076
2028,2011,2012,2072,2078,2099,2068,2066
2022,2005,1996,2051,2048,2074,2053,2058
2020,2009,1998,2059,2020,2035,2051,2050
2024,2004,1991,2051,2040,2000,2052,2046
2014,1994,1973,2041,2018,1983,2036,2044
2025,1997,1971,2031,1982,1967,2013,2027
2026,2011,1992,2045,2031,1992,2039,2020
2031,2013,2017,2076,2089,2024,2018,2012
2033,2031,2031,2086,2070,2028,2025,2015
2031,2031,2038,2086,2028,2009,2016,2018
2030,2029,2034,2070,1991,1996,2025,2021
2030,2028,2046,2063,1966,1987,2038,2020
2039,2030,2052,2037,1964,1998,2024,2007
2028,2039,2053,2036,2003,2020,2032,2005
2039,2037,2044,2036,2053,2048,2026,2006
2041,2032,2029,2043,2091,2062,2038,2008
2047,2033,2032,2057,2131,2072,2044,2012
2044,2046,2055,2070,2146,2080,2043,2028
2056,2068,2075,2078,2104,2082,2054,2036
2073,2080,2092,2084,2119,2075,2070,2043
2075,2066,2078,2063,2123,2064,2053,2042
2068,2064,2077,2045,2088,2063,2067,2045
2063,2052,2071,2031,2064,2058,2050,2047
2061,2049,2070,2013,2030,2042,2053,2051
2061,2053,2074,1988,2017,2033,2050,2054
2062,2064,2084,1989,2026,2035,2051,2051
2056,2069,2082,1982,2011,2027,2061,2057
2060,2062,2063,1977,2040,2036,2059,2066
2054,2044,2043,1979,2053,2049,2051,2072
2049,2046,2037,1990,2050,2074,2085,2085
2052,2051,2046,2001,2050,2088,2074,2091
2052,2052,2045,2015,2059,2110,2071,2091
2055,2054,2047,2026,2051,2104,2065,2090
2051,2056,2052,2026,2044,2089,2056,2089
2051,2049,2047,2033,2061,2083,2056,2084
2049,2048,2052,2044,2069,2049,2062,2089
2054,2061,2057,2045,2056,2008,2057,2086
2055,2060,2057,2044,2057,2016,2050,2075
2050,2058,2056,2048,2049,2031,2051,2075
2051,2060,2056,2043,2053,2044,2040,2070
2056,2061,2065,2049,2053,2048,2055,2065
2058,2068,2083,2056,2056,2057,2065,2057
2056,2066,2087,2047,2057,2055,2053,2050
2058,2066,2076,2045,2053,2053,2063,2048
2056,2061,2061,2036,2040,2047,2064,2045
2056,2055,2056,2027,2033,2047,2037,2049
2055,2055,2058,2031,2033,2046,2036,2040
2054,2058,2062,2031,2029,2046,2060,2036
2060,2053,2057,2022,2026,2043,2055,2029
2062,2056,2051,2025,2037,2045,2072,2038
2061,2053,2046,2018,2035,2042,2066,2029
2048,2035,2039,2021,2040,2038,2068,2023
2041,2043,2039,2025,2045,2045,2050,2031
2044,2050,2040,2034,2044,2048,2067,2034
2049,2044,2047,2040,2062,2058,2068,2030
2044,2042,2044,2045,2082,2067,2064,2035
2046,2042,2039,2040,2083,2063,2054,2037
2040,2040,2042,2041,2082,2057,2058,2035
2039,2038,2044,2044,2083,2054,2058,2047
2040,2037,2050,2047,2074,2052,2060,2050
2045,2039,2052,2050,2072,2051,2067,2053
2041,2044,2049,2049,2069,2051,2072,2064
2040,2050,2047,2045,2072,2059,2072,2068
2051,2042,2048,2049,2067,2056,2060,2074
2045,2041,2042,2044,2053,2058,2060,2078
2048,2043,2043,2040,2057,2051,2070,2080
2047,2042,2039,2044,2054,2046,2071,2081
2038,2030,2031,2034,2040,2042,2044,2079
2037,2029,2032,2029,2037,2046,2056,2088
2039,2044,2041,2036,2042,2048,2068,2082
2043,2043,2041,2036,2046,2048,2070,2081
2052,2042,2043,2033,2049,2047,2050,2071
2053,2046,2047,2035,2048,2047,2058,2072
2049,2049,2040,2033,2044,2043,2062,2068
2057,2053,2042,2033,2044,2045,2072,2060
2051,2051,2038,2030,2045,2044,2069,2054
2050,2052,2025,2037,2060,2053,2071,2048
2054,2049,2026,2047,2088,2066,2067,2043
2051,2042,2029,2053,2098,2068,2069,2040
2051,2038,2030,2045,2087,2061,2061,2036
2055,2042,2036,2040,2076,2058,2067,2036
2054,2040,2037,2040,2066,2055,2053,2030
2051,2038,2031,2039,2060,2050,2067,2038
2048,2043,2033,2034,2053,2039,2051,2026
2041,2032,2030,2032,2037,2026,2051,2022
2040,2038,2027,2032,2035,2033,2068,2031
2052,2043,2037,2045,2047,2039,2065,2032
2055,2048,2048,2050,2055,2044,2072,2032
2053,2044,2047,2054,2053,2042,2066,2035
2055,2047,2050,2053,2059,2050,2067,2040
2057,2047,2053,2053,2062,2047,2041,2047
2057,2047,2055,2048,2056,2048,2046,2045
2051,2043,2059,2053,2068,2041,2052,2047
2051,2043,2063,2050,2064,2046,2048,2056
2048,2042,2057,2051,2068,2040,2062,2060
2047,2038,2050,2058,2068,2047,2064,2067
2046,2039,2049,2059,2061,2047,2048,2067
2045,2037,2044,2048,2059,2044,2041,2079
2042,2039,2049,2054,2063,2040,2063,2082
2046,2042,2053,2054,2059,2046,2080,2084
2046,2038,2052,2049,2058,2041,2059,2079
2040,2035,2042,2049,2051,2041,2061,2081
2038,2034,2048,2047,2049,2042,2067,2086
2049,2045,2056,2052,2053,2045,2062,2083
2045,2045,2059,2058,2055,2045,2065,2087
2058,2044,2049,2052,2054,2055,2068,2077
2051,2049,2047,2045,2055,2053,2060,2067
2056,2051,2050,2045,2052,2051,2059,2064
2052,2047,2050,2044,2052,2054,2068,2064
2052,2047,2052,2047,2053,2050,2069,2059
2052,2046,2053,2051,2056,2049,2059,2054
2056,2050,2050,2050,2060,2051,2054,2049
2057,2049,2054,2051,2067,2055,2059,2046
2055,2046,2047,2051,2066,2061,2048,2054
2056,2047,2052,2051,2076,2058,2050,2050
2054,2049,2046,2053,2077,2058,2056,2042
2051,2042,2043,2050,2068,2056,2064,2040
2055,2036,2039,2045,2054,2042,2042,2034
2057,2027,2033,2039,2045,2044,2045,2044
2059,2040,2045,2047,2056,2059,2051,2045
2065,2050,2052,2052,2053,2052,2053,2039
2054,2047,2053,2056,2050,2032,2043,2033
2044,2037,2048,2054,2051,2030,2043,2040
2052,2026,2047,2054,2066,2053,2046,2048
2049,2023,2050,2056,2072,2077,2068,2056
2051,2026,2047,2058,2067,2077,2078,2053
2054,2027,2047,2058,2056,2059,2041,2055
2055,2030,2037,2056,2044,2040,2036,2039
2037,2032,2035,2054,2024,2024,2028,2035
2037,2026,2042,2050,2010,2011,2044,2046
2039,2030,2046,2054,2010,2022,2045,2051
2050,2028,2046,2064,2008,2048,2054,2065
2045,2029,2048,2068,2017,2065,2057,2068
2038,2024,2048,2072,2058,2070,2034,2079
2034,2014,2038,2061,2063,2046,2055,2089
2039,2006,2031,2060,2037,2027,2045,2088
2046,2014,2032,2065,2041,2046,2064,2082
2052,2021,2027,2061,2032,2045,2057,2079
2051,2024,2022,2054,2014,2041,2043,2066
2060,2028,2023,2055,2025,2052,2053,2056
2060,2022,2021,2060,2019,2037,2040,2058
2057,2025,2010,2042,1948,1998,2029,2053
2044,2009,1990,1995,1842,1956,2007,2031
2022,2000,1995,1981,1867,1985,2010,2004
2015,2032,2036,2014,1948,2033,2023,2011
2035,2060,2059,2038,2035,2056,2044,2022
2054,2066,2052,2036,2112,2076,2055,2031
2061,2063,2046,2048,2169,2091,2073,2041
2058,2060,2045,2051,2166,2092,2057,2037
2049,2050,2040,2040,2135,2070,2044,2025
2045,2044,2039,2033,2118,2058,2034,2016
2037,2039,2046,2046,2139,2067,2041,2023
2042,2040,2058,2067,2160,2074,2048,2034
2049,2059,2061,2076,2156,2070,2052,2027
2048,2055,2053,2060,2116,2060,2068,2028
2049,2061,2062,2051,2094,2037,2053,2034
2052,2060,2068,2050,2088,2027,2044,2044
2052,2057,2069,2048,2079,2026,2052,2045
2048,2053,2063,2045,2064,2040,2058,2053
2058,2058,2064,2045,2024,2037,2049,2047
2051,2054,2056,2028,1901,2040,2020,2044
2055,2053,2056,2027,1887,2034,2031,2052
2050,2051,2057,2039,1958,2000,2030,2058
2050,2053,2061,2056,2022,2019,2049,2072
2050,2055,2060,2069,2081,2042,2048,2080
2050,2053,2053,2065,2080,2051,2061,2080
2051,2047,2042,2060,2063,2049,2062,2082
2047,2050,2039,2055,2056,2042,2052,2080
2041,2041,2022,2047,2047,2040,2039,2069
2037,2042,2033,2051,2050,2047,2054,2075
2046,2051,2038,2047,2047,2054,2045,2075
2053,2048,2037,2045,2043,2048,2051,2064
2050,2054,2026,2034,2023,2046,2054,2067
2055,2053,2021,2033,2026,2048,2060,2058
2062,2050,2019,2026,2022,2042,2023,2056
2059,2047,2022,2032,2014,2038,2033,2055
2055,2052,2035,2037,2014,2039,2050,2047
2057,2051,2048,2037,2010,2041,2039,2042
2057,2047,2048,2028,2022,2045,2036,2038
2049,2049,2044,2030,2019,2038,2047,2034
2045,2049,2055,2031,2017,2040,2038,2033
2047,2048,2055,2027,2018,2040,2045,2026
2049,2047,2058,2030,2047,2043,2044,2029
2048,2048,2053,2039,2055,2042,2047,2024
2050,2038,2050,2030,2026,2025,2014,2018
2039,2033,2043,2028,2021,2036,2026,2025
2049,2041,2048,2040,2050,2049,2061,2030
2049,2040,2056,2040,2059,2050,2060,2032
