CH1,CH2,CH3,CH4,CH5,CH6,CH7,CH8
2052,2060,2040,2025,2026,2049,2044,2056
2055,2064,2044,2018,2052,2052,2052,2060
2060,2063,2045,2033,2044,2045,2032,2066
2070,2076,2064,2045,2032,2054,2056,2072
2071,2078,2069,2053,2044,2065,2046,2071
2073,2078,2082,2058,2055,2073,2047,2066
2076,2081,2081,2055,2063,2063,2060,2062
2069,2077,2081,2053,2048,2052,2065,2057
2070,2075,2080,2052,2032,2043,2060,2052
2070,2076,2085,2050,2049,2042,2045,2053
2063,2071,2077,2048,2080,2038,2055,2044
2065,2071,2089,2061,2110,2042,2045,2036
2060,2062,2102,2074,2123,2042,2060,2031
2049,2070,2107,2080,2120,2053,2065,2030
2051,2063,2098,2079,2098,2048,2046,2032
2054,2058,2090,2076,2085,2047,2048,2038
2056,2064,2091,2083,2103,2064,2044,2036
2064,2059,2076,2084,2110,2058,2033,2041
2060,2060,2064,2063,2019,2051,2030,2046
2060,2052,2059,2051,1987,2050,2042,2048
2061,2054,2054,2062,2030,2050,2044,2050
2057,2050,2042,2066,2101,2058,2046,2045
2056,2043,2040,2066,2144,2065,2050,2043
2051,2044,2029,2058,2120,2063,2049,2050
2052,2045,2029,2044,2077,2057,2053,2046
2049,2033,2020,2021,1951,2046,2054,2049
2041,2024,2017,2007,1922,2049,2063,2060
2051,2031,2011,2012,1979,2060,2057,2058
2052,2036,2016,2017,2001,2053,2049,2060
2045,2044,2015,2016,2011,2049,2047,2064
2046,2037,2009,2008,2012,2039,2040,2064
2044,2037,2004,2021,2018,2047,2044,2057
2051,2045,2013,2035,2025,2051,2056,2065
2057,2047,2008,2042,2031,2046,2059,2059
2063,2047,2006,2049,2029,2045,2046,2052
2058,2044,2005,2046,2023,2042,2046,2045
2049,2037,2009,2042,2033,2044,2051,2039
2051,2036,2016,2043,2028,2039,2043,2035
2057,2045,2027,2052,2031,2048,2047,2039
2060,2055,2050,2057,2035,2053,2041,2039
2062,2055,2055,2050,2039,2057,2045,2042
2067,2052,2053,2050,2043,2059,2048,2039
2071,2059,2051,2047,2042,2055,2053,2036
2063,2056,2052,2041,2042,2050,2048,2037
2064,2056,2049,2046,2037,2056,2043,2034
2056,2060,2048,2044,2036,2058,2063,2033
2058,2055,2044,2041,2037,2052,2055,2019
2042,2047,2043,2041,2033,2049,2047,2022
2049,2053,2047,2044,2043,2057,2050,2036
2052,2055,2042,2044,2045,2060,2046,2030
2053,2050,2031,2041,2046,2060,2036,2039
2058,2047,2023,2044,2042,2057,2038,2039
2057,2043,2015,2047,2048,2054,2043,2041
2051,2041,2023,2042,2046,2058,2046,2045
2055,2040,2027,2049,2052,2057,2051,2044
2053,2036,2020,2050,2041,2058,2046,2044
2049,2043,2026,2050,2045,2060,2038,2045
2049,2044,2032,2050,2048,2060,2051,2058
2046,2052,2045,2056,2049,2062,2046,2058
2047,2053,2056,2054,2048,2050,2030,2064
2047,2046,2057,2045,2034,2045,2046,2061
2043,2050,2059,2044,2026,2044,2058,2063
2045,2051,2074,2038,2026,2036,2053,2060
2048,2060,2084,2050,2027,2041,2057,2067
2046,2068,2101,2066,2058,2048,2061,2063
2049,2077,2094,2071,2055,2055,2067,2066
2058,2073,2083,2063,2053,2050,2061,2059
2061,2059,2062,2049,2038,2048,2065,2055
2052,2056,2062,2049,2043,2052,2066,2053
2058,2056,2054,2052,2040,2058,2052,2051
2053,2051,2043,2047,2030,2049,2057,2047
2051,2044,2036,2044,2027,2057,2065,2039
2056,2046,2045,2039,1993,2066,2072,2031
2047,2051,2040,2033,2008,2079,2068,2036
2048,2049,2038,2036,2044,2079,2060,2029
2052,2043,2027,2033,2045,2077,2061,2025
2048,2040,2021,2041,2049,2074,2055,2030
2045,2038,2018,2042,2043,2067,2054,2028
2046,2044,2012,2043,2034,2051,2036,2023
2037,2036,2005,2034,2025,2043,2040,2019
2035,2034,2013,2046,2037,2058,2055,2021
2043,2047,2023,2052,2051,2060,2054,2021
2048,2050,2026,2053,2046,2049,2037,2023
2044,2044,2031,2063,2053,2050,2042,2026
2040,2051,2036,2064,2044,2044,2040,2025
2042,2044,2038,2062,2036,2033,2036,2032
2046,2040,2043,2056,2036,2023,2016,2037
2049,2044,2051,2055,2036,2027,2012,2041
2046,2048,2058,2056,2041,2033,2028,2038
2045,2051,2064,2062,2042,2039,2057,2046
2044,2051,2069,2062,2047,2043,2041,2057
2046,2045,2072,2064,2040,2040,2026,2056
2047,2044,2060,2056,2044,2034,2017,2053
2047,2045,2060,2055,2044,2038,2038,2064
2050,2052,2059,2053,2040,2030,2034,2056
2045,2049,2043,2042,2042,2028,2032,2049
2040,2044,2030,2040,2046,2034,2021,2056
2045,2045,2036,2040,2041,2041,2037,2048
2040,2040,2038,2044,2043,2034,2042,2055
2052,2045,2053,2057,2041,2038,2045,2047
2051,2057,2057,2064,2048,2035,2033,2048
2048,2061,2062,2073,2046,2035,2033,2058
2059,2064,2061,2070,2044,2034,2056,2044
2055,2061,2056,2073,2047,2047,2044,2044
2056,2065,2054,2074,2048,2050,2064,2042
2057,2068,2049,2070,2048,2058,2050,2030
2046,2056,2041,2064,2050,2060,2070,2031
2040,2054,2023,2060,2048,2058,2038,2034
2046,2041,2022,2058,2049,2061,2060,2035
2048,2031,2019,2064,2046,2063,2067,2029
2045,2032,2019,2067,2051,2064,2059,2025
2042,2026,2012,2062,2045,2058,2042,2024
2036,2019,2006,2055,2047,2060,2031,2022
2036,2019,2003,2052,2048,2067,2031,2024
2046,2027,2005,2047,2046,2056,2046,2032
2049,2034,2006,2044,2042,2054,2034,2035
2046,2031,2010,2036,2042,2053,2061,2045
2051,2041,2025,2042,2039,2049,2042,2049
2056,2047,2031,2045,2040,2044,2048,2050
2057,2048,2018,2040,2047,2040,2034,2056
2052,2046,2013,2045,2045,2040,2031,2052
2046,2046,2017,2052,2044,2041,2019,2048
2042,2043,2023,2044,2045,2046,2032,2050
2044,2042,2018,2032,2034,2042,2029,2045
2038,2031,2013,2015,2024,2037,2033,2050
2034,2037,2028,2017,2024,2039,2037,2050
2038,2037,2041,2020,2025,2039,2063,2057
2037,2045,2045,2025,2036,2043,2055,2045
2029,2044,2045,2029,2036,2056,2051,2045
2035,2043,2054,2038,2046,2072,2068,2059
2043,2058,2063,2047,2049,2072,2064,2053
2049,2059,2063,2049,2044,2072,2065,2049
2048,2056,2062,2048,2044,2059,2055,2040
2048,2065,2066,2056,2045,2059,2065,2049
2049,2072,2075,2058,2042,2056,2053,2049
2056,2076,2086,2066,2046,2047,2060,2049
2069,2082,2094,2071,2049,2044,2045,2044
2064,2074,2087,2064,2037,2048,2050,2039
2060,2072,2075,2054,2036,2053,2037,2039
2060,2066,2068,2037,2032,2058,2038,2036
2056,2063,2076,2043,2028,2052,2065,2043
2056,2071,2069,2046,2036,2055,2063,2047
2062,2074,2072,2053,2037,2052,2053,2044
2062,2076,2073,2051,2045,2057,2053,2046
2056,2064,2068,2049,2038,2049,2056,2036
2054,2064,2069,2048,2034,2043,2046,2049
2064,2077,2076,2057,2037,2046,2056,2045
2068,2069,2074,2050,2043,2044,2051,2044
2064,2070,2077,2054,2041,2050,2041,2047
2063,2071,2068,2052,2039,2052,2037,2046
2062,2069,2061,2053,2035,2051,2044,2050
2060,2064,2060,2051,2039,2051,2036,2053
2058,2060,2053,2045,2036,2050,2035,2054
2058,2056,2051,2053,2040,2052,2025,2046
2054,2050,2059,2051,2046,2057,2033,2047
2049,2051,2053,2049,2046,2062,2043,2049
2046,2052,2048,2050,2051,2064,2068,2058
2049,2056,2045,2046,2050,2064,2066,2067
2049,2056,2055,2045,2047,2062,2054,2059
2050,2049,2056,2048,2043,2062,2053,2064
2052,2048,2039,2046,2040,2060,2052,2062
2045,2039,2034,2043,2044,2057,2047,2062
2046,2044,2042,2048,2050,2064,2053,2066
2049,2050,2042,2043,2042,2056,2057,2065
2055,2053,2042,2050,2041,2054,2043,2055
2060,2058,2043,2048,2051,2052,2032,2058
2057,2049,2038,2047,2045,2049,2019,2045
2055,2047,2039,2047,2046,2045,2047,2042
2054,2044,2033,2038,2048,2048,2059,2045
2052,2045,2037,2043,2041,2049,2050,2044
2052,2055,2043,2045,2034,2047,2053,2040
2055,2064,2050,2041,2019,2042,2043,2042
2054,2053,2040,2044,2024,2042,2053,2036
2062,2052,2049,2043,2034,2047,2062,2035
2059,2051,2050,2050,2037,2046,2057,2040
2058,2052,2047,2046,2033,2043,2049,2043
2057,2051,2049,2040,2034,2034,2043,2033
2046,2042,2042,2036,2037,2029,2050,2026
2046,2037,2047,2031,2030,2029,2056,2030
2044,2053,2051,2043,2044,2033,2047,2030
2052,2056,2055,2048,2054,2042,2069,2035
2048,2052,2051,2055,2051,2040,2044,2035
2050,2049,2044,2044,2050,2034,2052,2042
2052,2051,2039,2040,2052,2033,2047,2042
2058,2055,2052,2046,2061,2043,2059,2044
2066,2058,2053,2045,2059,2044,2056,2052
2066,2041,2049,2043,2048,2042,2049,2050
2050,2041,2043,2040,2046,2040,2049,2056
2044,2034,2045,2039,2044,2044,2057,2055
2042,2041,2045,2042,2054,2044,2053,2052
2037,2040,2044,2047,2059,2051,2051,2061
2032,2037,2048,2040,2055,2050,2054,2060
2039,2038,2041,2035,2049,2050,2044,2064
2044,2039,2038,2032,2031,2039,2027,2065
2040,2040,2037,2033,2037,2045,2036,2065
2045,2042,2041,2034,2037,2047,2054,2065
2051,2058,2052,2038,2043,2051,2065,2066
2058,2066,2056,2045,2047,2058,2070,2063
2067,2061,2055,2042,2050,2063,2066,2062
2061,2060,2047,2043,2045,2058,2072,2059
2056,2058,2053,2041,2050,2057,2066,2049
2059,2057,2058,2045,2045,2057,2070,2052
2058,2051,2053,2046,2047,2054,2071,2051
2055,2058,2048,2042,2050,2058,2059,2045
2052,2054,2049,2049,2045,2057,2056,2040
2050,2054,2049,2054,2048,2056,2057,2043
2052,2060,2049,2053,2045,2061,2056,2040
2054,2053,2050,2054,2042,2054,2048,2029
2050,2050,2046,2049,2042,2046,2062,2026
2044,2053,2046,2048,2042,2042,2052,2033
2051,2048,2044,2046,2036,2035,2053,2033
2052,2050,2042,2044,2038,2043,2049,2032
2055,2056,2044,2049,2049,2045,2033,2032
2053,2052,2042,2048,2042,2031,2055,2036
2048,2047,2042,2043,2042,2034,2037,2039
2050,2053,2045,2047,2034,2034,2033,2035
2049,2050,2041,2041,2039,2036,2033,2040
2047,2044,2041,2039,2038,2038,2050,2048
2048,2043,2042,2040,2049,2046,2044,2052
2052,2044,2043,2034,2057,2047,2070,2051
2045,2049,2046,2037,2050,2044,2070,2055
2052,2048,2046,2040,2051,2047,2065,2056
2050,2051,2046,2043,2058,2055,2064,2062
2054,2046,2042,2043,2053,2053,2050,2070
2055,2049,2040,2039,2047,2054,2055,2068
2050,2043,2031,2036,2042,2048,2048,2071
2040,2052,2036,2036,2048,2050,2049,2065
2045,2037,2032,2030,2045,2052,2045,2060
2050,2038,2035,2033,2042,2051,2046,2069
2050,2051,2041,2040,2048,2055,2044,2064
2050,2048,2043,2039,2052,2050,2053,2061
2048,2047,2043,2045,2046,2050,2053,2062
2053,2052,2044,2044,2049,2046,2055,2058
2048,2053,2043,2044,2044,2041,2038,2056
2050,2053,2049,2041,2042,2043,2032,2052
2048,2048,2049,2035,2042,2041,2024,2051
2051,2044,2048,2047,2045,2043,2027,2046
2047,2043,2050,2044,2051,2044,2014,2031
2043,2046,2052,2040,2048,2043,2025,2034
2042,2050,2059,2045,2046,2043,2027,2045
2049,2051,2061,2048,2041,2044,2041,2047
2060,2056,2069,2044,2046,2047,2071,2050
2059,2058,2071,2047,2044,2050,2069,2050
2058,2058,2070,2047,2044,2052,2060,2042
2052,2046,2057,2041,2045,2053,2061,2046
2052,2046,2049,2040,2050,2059,2061,2050
2049,2045,2057,2043,2050,2057,2065,2050
2053,2045,2049,2046,2039,2052,2048,2052
2052,2043,2053,2044,2044,2049,2048,2052
2043,2038,2048,2040,2048,2042,2046,2047
2045,2036,2048,2048,2049,2042,2032,2052
2045,2040,2050,2040,2043,2037,2051,2045
2045,2044,2048,2037,2042,2036,2061,2046
2044,2045,2050,2041,2046,2046,2041,2042
2036,2043,2052,2047,2058,2064,2049,2041
2039,2052,2056,2048,2062,2061,2031,2047
2040,2049,2055,2047,2050,2040,2042,2058
2040,2043,2050,2044,2048,2033,2036,2061
2039,2045,2052,2038,2040,2034,2035,2064
2043,2048,2050,2040,2041,2039,2051,2067
2048,2044,2047,2027,2036,2035,2018,2060
2037,2036,2037,2028,2037,2035,2032,2065
2033,2042,2050,2039,2044,2046,2034,2060
2052,2047,2050,2039,2040,2044,2042,2061
2046,2045,2045,2036,2041,2043,2034,2060
2045,2042,2049,2042,2039,2043,2047,2058
2054,2044,2048,2042,2045,2044,2040,2053
2059,2051,2049,2040,2045,2044,2057,2055
2054,2047,2047,2037,2046,2051,2049,2058
2050,2041,2049,2039,2046,2049,2056,2053
2049,2049,2046,2044,2044,2050,2057,2050
2054,2054,2049,2042,2044,2054,2058,2049
2047,2051,2047,2037,2043,2047,2056,2046
2048,2050,2045,2033,2046,2047,2051,2048
2046,2048,2045,2036,2040,2048,2058,2039
2044,2049,2047,2036,2042,2052,2038,2045
2050,2047,2051,2037,2037,2045,2035,2048
2036,2041,2042,2036,2035,2043,2036,2049
2043,2036,2041,2035,2040,2044,2042,2046
2039,2039,2046,2039,2040,2048,2043,2047
2046,2041,2048,2042,2037,2043,2043,2051
2053,2038,2045,2042,2038,2048,2043,2053
2047,2037,2047,2044,2045,2047,2054,2045
2049,2043,2049,2043,2046,2053,2054,2050
2042,2045,2048,2040,2049,2052,2060,2055
2043,2042,2051,2039,2051,2054,2063,2053
2043,2044,2050,2041,2053,2048,2047,2056
2047,2043,2051,2044,2052,2044,2060,2059
2053,2043,2040,2037,2057,2039,2058,2059
2048,2041,2051,2045,2046,2040,2065,2064
2045,2035,2044,2043,2045,2034,2068,2068
2038,2041,2050,2042,2044,2035,2068,2071
2046,2042,2047,2044,2046,2038,2056,2068
2038,2040,2045,2037,2045,2033,2047,2063
2030,2030,2032,2034,2037,2030,2026,2062
2026,2029,2027,2030,2034,2034,2037,2064
2034,2037,2039,2029,2036,2045,2059,2058
2036,2044,2039,2032,2042,2046,2064,2047
2037,2050,2044,2038,2040,2044,2060,2046
2042,2048,2047,2030,2030,2038,2047,2047
2047,2045,2051,2035,2028,2042,2046,2052
2042,2052,2049,2040,2033,2062,2072,2055
2049,2043,2047,2042,2037,2060,2071,2045
2048,2048,2048,2043,2043,2061,2067,2049
2049,2053,2057,2052,2040,2056,2061,2054
2050,2049,2061,2045,2034,2046,2062,2050
2053,2054,2051,2043,2038,2046,2065,2042
2056,2060,2052,2044,2042,2044,2058,2044
2058,2060,2054,2044,2043,2047,2058,2053
2057,2055,2051,2044,2047,2047,2052,2054
2060,2060,2046,2043,2040,2041,2043,2051
2044,2043,2046,2041,2036,2036,2036,2047
2046,2035,2044,2040,2049,2041,2049,2055
2050,2051,2054,2044,2047,2040,2053,2063
2050,2060,2052,2046,2048,2042,2059,2055
2056,2058,2055,2047,2044,2043,2071,2052
2057,2063,2059,2042,2046,2044,2058,2058
2056,2053,2058,2044,2045,2047,2045,2056
2058,2055,2055,2041,2050,2057,2068,2056
2050,2052,2050,2038,2046,2053,2046,2052
2048,2043,2047,2038,2043,2053,2039,2059
2053,2046,2044,2037,2038,2052,2058,2060
2049,2047,2047,2035,2050,2053,2058,2062
2052,2047,2049,2040,2044,2048,2058,2066
2054,2047,2050,2035,2048,2047,2036,2071
2051,2045,2047,2032,2042,2050,2038,2069
2047,2046,2049,2032,2043,2053,2060,2067
2048,2043,2044,2031,2036,2049,2048,2051
2048,2031,2038,2027,2036,2049,2054,2052
2045,2039,2043,2031,2037,2051,2052,2059
2045,2045,2048,2037,2031,2046,2043,2065
2045,2043,2038,2034,2032,2049,2051,2069
2054,2046,2039,2027,2030,2055,2056,2059
2053,2045,2040,2030,2047,2058,2073,2053
2057,2042,2042,2037,2047,2057,2054,2049
2050,2040,2042,2035,2045,2060,2063,2043
2045,2038,2040,2041,2049,2057,2064,2042
2046,2041,2044,2040,2057,2068,2074,2046
2057,2042,2039,2038,2055,2069,2067,2045
2052,2042,2039,2038,2042,2064,2066,2043
2043,2036,2038,2037,2045,2056,2067,2044
2039,2037,2042,2039,2041,2054,2061,2036
2041,2039,2037,2036,2045,2049,2054,2047
2043,2041,2043,2034,2043,2044,2052,2034
2040,2026,2035,2026,2034,2033,2043,2032
2038,2029,2041,2027,2039,2034,2047,2049
2041,2040,2055,2037,2050,2039,2045,2049
2052,2049,2054,2036,2046,2045,2050,2055
2062,2053,2051,2036,2044,2048,2053,2065
2055,2049,2050,2037,2046,2054,2044,2064
2059,2050,2052,2039,2059,2062,2052,2069
2060,2054,2052,2040,2058,2056,2036,2061
2054,2040,2048,2040,2043,2047,2024,2061
2049,2041,2046,2038,2040,2047,2056,2070
2054,2043,2044,2036,2039,2047,2041,2072
2053,2041,2046,2035,2030,2042,2041,2070
2052,2044,2048,2029,2029,2037,2056,2071
2047,2041,2051,2032,2029,2037,2042,2063
2047,2047,2057,2030,2033,2048,2052,2069
2049,2042,2053,2028,2034,2056,2057,2071
2043,2035,2047,2027,2033,2053,2043,2063
2038,2034,2046,2026,2036,2054,2041,2063
2036,2047,2048,2024,2039,2064,2060,2065
2046,2044,2055,2026,2042,2062,2061,2071
2047,2046,2059,2032,2048,2071,2043,2064
2058,2054,2062,2037,2050,2062,2071,2066
2053,2054,2061,2037,2050,2064,2063,2057
2056,2054,2057,2032,2043,2057,2055,2051
2054,2047,2052,2029,2040,2057,2059,2049
2049,2042,2049,2031,2035,2049,2057,2047
2048,2041,2047,2032,2031,2052,2059,2049
2038,2035,2047,2026,2028,2050,2051,2044
2041,2038,2042,2031,2025,2037,2030,2039
2041,2036,2042,2026,2028,2041,2033,2040
2045,2033,2041,2031,2036,2056,2047,2040
2042,2033,2040,2032,2044,2058,2038,2041
2037,2034,2038,2028,2036,2051,2018,2040
2036,2023,2030,2025,2033,2052,2009,2040
2044,2022,2038,2027,2042,2058,2044,2049
2048,2041,2047,2035,2042,2063,2028,2057
2053,2044,2047,2037,2052,2066,2034,2066
2051,2049,2045,2032,2049,2062,2039,2067
2047,2046,2047,2034,2055,2059,2062,2066
2048,2046,2047,2029,2046,2062,2065,2066
2050,2045,2047,2028,2042,2057,2071,2067
2047,2043,2053,2031,2040,2052,2032,2070
2050,2045,2057,2027,2035,2055,2038,2073
2047,2043,2057,2026,2032,2052,2057,2074
2056,2049,2050,2032,2033,2054,2053,2071
2055,2045,2053,2029,2041,2052,2046,2072
2054,2044,2054,2037,2046,2065,2036,2071
2053,2040,2047,2039,2055,2071,2045,2068
2050,2042,2046,2039,2053,2056,2037,2067
2036,2028,2040,2025,2039,2034,2022,2062
2031,2026,2036,2021,2032,2029,2036,2068
2043,2044,2046,2033,2042,2039,2037,2074
2042,2038,2053,2030,2043,2048,2044,2074
2045,2042,2054,2039,2048,2052,2043,2071
2051,2050,2058,2038,2051,2057,2051,2068
2058,2051,2058,2037,2050,2057,2055,2070
2048,2053,2056,2035,2048,2060,2056,2073
2050,2050,2062,2040,2045,2052,2055,2067
2057,2053,2064,2037,2032,2046,2052,2064
2054,2050,2058,2032,2041,2044,2052,2056
2053,2050,2054,2037,2039,2044,2062,2060
2054,2054,2052,2037,2042,2044,2053,2059
2054,2050,2050,2038,2027,2039,2048,2059
2054,2043,2052,2037,2026,2030,2060,2059
2053,2050,2051,2037,2025,2030,2036,2056
2058,2044,2043,2028,2021,2028,2027,2053
2048,2037,2044,2026,2024,2031,2053,2051
2049,2046,2051,2035,2033,2043,2064,2063
2064,2049,2055,2032,2036,2040,2063,2064
2056,2053,2061,2037,2033,2046,2073,2066
2061,2048,2057,2038,2036,2048,2073,2063
2062,2054,2062,2033,2038,2052,2066,2068
2064,2053,2066,2036,2035,2053,2061,2068
2056,2058,2063,2038,2038,2060,2070,2067
2055,2057,2062,2044,2044,2045,2050,2061
2056,2050,2064,2041,2048,2047,2046,2061
2056,2048,2060,2044,2047,2041,2046,2051
2047,2049,2061,2047,2044,2036,2043,2054
2036,2044,2058,2042,2030,2045,2056,2060
2037,2038,2054,2034,2036,2057,2034,2072
2039,2041,2051,2028,2032,2039,2037,2070
2045,2038,2050,2024,2021,2027,2028,2064
2038,2033,2035,2023,2028,2029,2035,2068
2044,2033,2039,2024,2034,2046,2053,2078
2052,2046,2045,2033,2034,2047,2055,2073
2052,2046,2047,2034,2029,2048,2046,2066
2048,2042,2042,2027,2023,2043,2045,2066
2049,2047,2047,2025,2038,2050,2054,2066
2045,2049,2049,2031,2033,2043,2041,2058
2048,2046,2050,2038,2040,2053,2071,2057
2037,2045,2043,2036,2041,2057,2053,2053
2038,2040,2045,2039,2040,2051,2061,2041
2037,2038,2048,2040,2038,2052,2034,2050
2041,2041,2050,2039,2039,2051,2038,2047
2042,2040,2049,2036,2035,2054,2045,2050
2047,2043,2044,2037,2032,2049,2044,2053
2047,2045,2046,2036,2040,2050,2044,2055
2052,2042,2049,2043,2043,2056,2053,2052
2057,2041,2040,2032,2038,2058,2021,2050
2047,2027,2038,2028,2029,2041,2036,2039
2046,2034,2043,2044,2041,2031,2048,2050
2052,2035,2052,2038,2043,2044,2049,2054
2048,2036,2042,2038,2034,2049,2040,2051
2047,2030,2047,2033,2035,2042,2035,2052
2047,2037,2042,2029,2036,2044,2036,2049
2047,2040,2044,2035,2026,2044,2033,2064
2047,2042,2043,2038,2037,2049,2032,2059
2053,2043,2045,2042,2033,2048,2022,2070
2049,2041,2045,2039,2040,2050,2028,2068
2054,2044,2050,2041,2042,2046,2045,2072
2053,2047,2054,2042,2044,2042,2037,2080
2052,2045,2047,2038,2041,2040,2044,2076
2059,2046,2055,2039,2043,2037,2024,2083
2060,2041,2046,2038,2042,2038,2026,2079
2057,2040,2039,2034,2029,2030,2025,2072
2037,2029,2037,2026,2027,2028,2015,2064
2041,2034,2041,2031,2033,2029,2019,2067
2047,2037,2045,2033,2029,2033,2009,2076
2049,2040,2047,2027,2021,2034,2033,2073
2048,2043,2056,2034,2015,2038,2054,2068
2045,2044,2059,2038,2019,2039,2044,2068
2053,2042,2060,2037,2014,2030,2033,2068
2049,2050,2059,2037,2017,2043,2036,2054
2049,2045,2059,2038,2020,2055,2067,2060
2053,2045,2060,2037,2022,2067,2059,2052
2052,2049,2061,2041,2024,2063,2052,2059
2061,2052,2068,2045,2015,2061,2075,2059
2065,2057,2066,2042,2018,2060,2042,2057
2068,2064,2056,2044,2016,2061,2044,2052
2068,2057,2061,2045,2026,2068,2042,2052
2059,2052,2052,2039,2022,2070,2038,2048
2046,2030,2042,2037,2027,2072,2046,2048
2044,2026,2041,2039,2031,2077,2053,2052
2053,2042,2048,2038,2037,2077,2056,2058
2049,2043,2047,2044,2045,2089,2055,2061
2052,2053,2048,2047,2042,2053,2058,2069
2049,2046,2053,2049,2047,2035,2057,2069
2050,2051,2048,2037,2048,2035,2076,2065
2047,2045,2050,2033,2064,2047,2042,2059
2041,2038,2046,2037,2070,2048,2045,2049
2035,2039,2048,2040,2066,2055,2056,2062
2041,2033,2048,2044,2061,2058,2053,2068
2039,2024,2034,2040,2061,2056,2062,2065
2035,2026,2035,2040,2055,2059,2046,2063
2033,2021,2033,2034,2057,2060,2046,2065
2032,2025,2032,2034,2051,2058,2049,2070
2030,2025,2033,2033,2048,2044,2033,2058
2027,2015,2032,2024,2043,2042,2038,2065
2029,2020,2032,2024,2038,2053,2031,2072
2045,2033,2040,2030,2051,2049,2040,2070
2041,2038,2038,2032,2046,2050,2062,2070
2050,2039,2049,2034,2040,2050,2050,2061
2045,2044,2048,2034,2035,2052,2052,2070
2050,2045,2051,2034,2039,2054,2049,2070
2048,2049,2058,2037,2048,2056,2038,2065
2057,2049,2053,2036,2044,2057,2051,2062
2048,2053,2052,2041,2053,2056,2060,2054
2053,2045,2058,2044,2054,2059,2047,2065
2055,2051,2060,2044,2051,2063,2056,2065
2065,2053,2058,2046,2049,2063,2061,2074
2068,2060,2059,2050,2056,2054,2067,2064
2064,2063,2061,2047,2045,2063,2052,2063
2054,2060,2058,2049,2043,2065,2045,2060
2056,2048,2053,2040,2042,2067,2042,2051
2057,2040,2047,2043,2043,2069,2068,2051
2060,2045,2055,2055,2038,2060,2072,2066
2062,2050,2056,2051,2029,2051,2046,2065
2065,2054,2052,2049,2030,2043,2039,2065
2068,2055,2047,2051,2024,2035,2038,2062
2063,2061,2053,2042,2001,2020,2054,2054
2062,2056,2045,2045,2007,2029,2050,2053
2060,2054,2053,2054,2036,2045,2052,2058
2054,2053,2051,2053,2035,2044,2052,2045
2053,2044,2045,2050,2045,2046,2060,2051
2047,2043,2042,2053,2055,2061,2046,2053
2051,2042,2040,2045,2059,2066,2066,2056
2044,2045,2041,2044,2045,2061,2074,2061
2050,2039,2040,2043,2044,2057,2065,2064
2050,2036,2043,2040,2043,2055,2061,2073
2049,2039,2044,2039,2028,2043,2059,2075
2044,2039,2040,2037,2034,2044,2067,2076
2045,2039,2043,2039,2026,2053,2080,2075
2049,2046,2049,2039,2023,2058,2068,2071
2047,2049,2049,2041,2024,2049,2066,2059
2037,2044,2044,2041,2035,2051,2039,2049
2030,2036,2041,2037,2064,2049,2028,2044
2035,2035,2040,2037,2105,2051,2020,2049
2042,2040,2048,2051,2144,2060,2021,2051
2043,2041,2045,2054,2150,2063,2030,2045
2045,2043,2049,2055,2154,2079,2019,2041
2055,2041,2046,2062,2134,2088,2031,2040
2056,2042,2047,2058,2091,2087,2041,2038
2058,2047,2045,2054,2053,2082,2033,2027
2048,2048,2042,2050,2039,2062,2042,2014
2045,2047,2038,2039,1953,2016,2033,2017
2046,2048,2046,2021,1845,1970,2015,2020
2037,2039,2039,2018,1872,1966,2013,2026
2039,2042,2047,2038,1980,1999,2029,2047
2049,2050,2056,2049,2016,2031,2068,2047
2043,2041,2042,2039,2017,2045,2084,2044
2035,2034,2036,2033,2000,2042,2068,2042
2040,2039,2032,2027,2011,2043,2076,2044
2042,2041,2031,2031,2024,2046,2081,2054
2046,2039,2039,2035,2026,2054,2077,2058
2041,2042,2039,2034,2025,2050,2071,2046
2036,2034,2032,2036,2033,2051,2074,2054
2037,2030,2030,2036,2031,2058,2073,2052
2031,2027,2027,2040,2038,2057,2068,2054
2039,2028,2023,2039,2037,2057,2045,2066
2037,2030,2017,2036,2043,2068,2065,2064
2029,2026,2010,2038,2058,2064,2064,2054
2032,2016,2005,2034,2044,2059,2035,2057
2021,2003,1987,2024,2032,2067,2026,2047
2020,2002,1990,2019,2033,2054,2024,2055
2028,2015,1999,2029,2039,2045,2017,2046
2033,2023,2000,2031,2041,2035,2025,2042
2025,2017,2000,2036,2047,2050,2032,2043
2028,2020,2005,2041,2045,2056,2037,2052
2029,2012,2001,2030,2026,2058,2042,2044
2030,2018,2011,2034,2005,2055,2060,2045
2039,2028,2019,2042,2011,2064,2058,2052
2044,2047,2037,2049,2012,2060,2049,2042
2043,2058,2053,2049,2006,2050,2036,2043
2041,2051,2053,2053,2005,2047,2043,2034
2037,2043,2053,2051,1986,2035,2035,2025
2038,2050,2055,2049,1990,2038,2041,2026
2041,2054,2059,2049,1990,2030,2039,2024
2039,2051,2062,2039,1983,2032,2058,2027
2044,2044,2052,2029,1976,2031,2043,2032
2034,2043,2053,2030,1989,2034,2047,2031
2042,2062,2081,2050,2050,2058,2052,2036
2051,2076,2098,2049,2077,2050,2058,2038
2058,2076,2092,2060,2066,2040,2045,2047
2059,2076,2081,2048,2019,2030,2056,2060
2060,2076,2082,2047,1997,2032,2067,2064
2071,2086,2084,2053,2012,2044,2090,2062
2072,2086,2085,2063,2052,2040,2070,2060
2063,2075,2067,2059,2065,2045,2059,2059
2050,2063,2061,2063,2084,2041,2046,2046
2046,2062,2058,2062,2088,2048,2057,2053
2045,2054,2059,2067,2082,2055,2049,2057
2046,2059,2066,2068,2085,2047,2050,2061
2045,2056,2067,2068,2070,2038,2030,2056
2043,2062,2064,2060,2056,2033,2028,2054
2044,2046,2052,2049,2070,2026,2035,2052
2037,2044,2045,2048,2073,2023,2032,2046
2033,2040,2042,2046,2036,2028,2021,2049
2033,2037,2040,2038,2037,2035,2024,2048
2034,2048,2038,2033,2044,2032,2033,2049
2041,2050,2045,2032,2067,2036,2040,2045
2049,2056,2044,2038,2082,2038,2047,2044
2048,2056,2046,2044,2071,2034,2050,2039
2043,2053,2044,2041,2070,2031,2049,2043
2046,2051,2049,2041,2054,2033,2051,2040
2044,2056,2048,2046,2055,2048,2055,2033
2052,2052,2046,2046,2058,2056,2028,2032
2045,2059,2050,2043,2072,2064,2032,2039
2044,2060,2049,2045,2107,2085,2048,2039
2056,2059,2052,2060,2141,2094,2053,2040
2054,2058,2050,2061,2149,2086,2062,2049
2048,2057,2037,2054,2132,2069,2044,2044
2045,2047,2034,2046,2141,2074,2062,2039
2032,2042,2035,2057,2146,2091,2058,2036
2038,2049,2040,2062,2144,2087,2056,2043
2040,2050,2046,2067,2127,2082,2075,2043
2035,2045,2038,2067,2100,2073,2070,2045
2029,2035,2030,2052,2006,2055,2054,2042
2025,2025,2017,2029,1912,2036,2059,2041
2025,2018,2015,2027,1956,2034,2040,2047
2024,2014,2011,2032,1997,2031,2008,2049
2028,2016,2008,2033,2050,2032,2010,2049
2037,2033,2026,2040,2086,2053,2028,2053
2034,2046,2029,2044,2077,2051,2054,2045
2039,2041,2024,2035,2024,2050,2042,2045
2031,2038,2030,2043,2024,2054,2047,2053
2033,2040,2031,2056,2051,2068,2066,2058
2045,2053,2040,2041,2017,2052,2056,2056
2035,2040,2035,2024,1984,2057,2062,2057
2038,2044,2042,2049,2068,2091,2075,2066
2049,2057,2045,2057,2098,2111,2085,2061
2045,2055,2046,2053,2097,2110,2073,2061
2044,2055,2043,2048,2080,2102,2077,2058
2045,2044,2045,2052,2108,2110,2072,2043
2044,2044,2048,2064,2130,2114,2068,2040
2044,2047,2051,2064,2128,2096,2047,2039
2052,2047,2045,2058,2103,2078,2039,2048
2057,2051,2048,2049,2070,2061,2053,2048
2060,2050,2037,2044,2025,2020,2012,2036
2055,2032,2022,2028,1970,1964,2023,2023
2042,2025,2019,2019,1936,1958,2010,2014
2036,2030,2022,2021,1942,1970,2012,2008
2029,2030,2018,2015,1961,1980,2014,2017
2029,2030,2018,2008,1955,1990,2016,2014
2014,2010,1996,2000,1927,2004,2025,2009
2009,2011,2005,2024,1990,2024,2033,2028
2020,2035,2027,2041,2050,2031,2028,2025
2030,2040,2033,2047,2085,2045,2027,2037
2042,2045,2049,2061,2098,2059,2037,2042
2042,2056,2055,2068,2099,2058,2034,2042
2051,2054,2062,2067,2112,2063,2052,2046
2056,2065,2065,2061,2105,2079,2064,2054
2062,2065,2066,2064,2066,2080,2058,2051
2055,2059,2060,2059,2038,2067,2049,2052
2051,2061,2063,2051,2020,2047,2047,2057
2056,2065,2065,2052,2005,2019,2038,2057
2057,2062,2067,2054,2016,1999,2036,2063
2053,2061,2069,2055,2041,1994,2036,2064
2047,2066,2064,2057,2051,2018,2056,2070
2054,2074,2068,2065,2069,2056,2048,2061
2052,2068,2075,2081,2133,2096,2047,2052
2052,2075,2088,2077,2158,2120,2038,2045
2059,2080,2089,2072,2098,2111,2071,2044
2055,2068,2073,2054,2014,2110,2063,2040
2043,2056,2063,2031,1969,2105,2043,2046
2043,2055,2058,2041,1977,2119,2057,2056
2047,2056,2062,2054,1992,2133,2066,2060
2058,2061,2064,2054,1989,2080,2062,2056
2057,2068,2054,2044,1978,2024,2044,2041
2053,2055,2045,2039,1978,2012,2017,2037
2048,2056,2046,2051,1977,2047,2066,2039
2055,2059,2054,2061,1963,2073,2061,2030
2052,2055,2045,2045,1909,2042,2042,2004
2039,2046,2039,2038,1979,2023,2036,2010
2045,2048,2045,2060,2121,2049,2032,2015
2044,2040,2043,2061,2181,2046,2048,2004
2028,2021,2022,2056,2184,2027,2040,2014
2030,2025,2021,2052,2184,2009,2039,2018
2043,2033,2031,2056,2146,1985,2024,2021
2042,2038,2032,2045,2075,1990,2031,2024
2050,2058,2041,2053,2075,2014,2040,2034
2057,2072,2060,2077,2103,2045,2050,2038
2054,2079,2056,2078,2096,2044,2045,2051
2052,2071,2052,2072,2106,2042,2059,2049
2041,2055,2049,2067,2093,2025,2038,2057
2036,2050,2039,2068,2071,2019,2050,2059
2039,2046,2033,2049,1994,2020,2053,2062
2038,2046,2029,2032,1870,2012,2041,2068
2038,2040,2029,2031,1870,2014,2023,2062
2036,2036,2020,2038,1924,2016,2039,2059
2032,2046,2026,2046,1967,2032,2044,2050
2040,2047,2027,2046,1983,2031,2054,2052
2047,2034,2023,2044,2048,2036,2039,2056
2058,2038,2024,2040,2076,2044,2049,2069
2067,2062,2039,2040,2067,2083,2074,2076
2068,2064,2044,2029,2028,2097,2086,2062
2055,2060,2048,2018,2031,2096,2092,2075
2064,2062,2054,2018,2067,2093,2084,2072
2082,2070,2059,2034,2124,2077,2089,2072
2083,2068,2062,2049,2136,2075,2071,2046
2061,2071,2065,2034,2058,2064,2074,2041
2072,2088,2074,2042,2039,2067,2071,2038
2083,2078,2071,2047,1982,2038,2055,2031
2071,2067,2061,2028,1901,1991,2026,2024
2047,2056,2052,2017,1936,1964,2012,2014
2040,2048,2047,2036,2084,1988,2010,2012
2027,2041,2046,2069,2161,2053,2032,2016
2037,2040,2046,2074,2136,2066,2030,2035
2043,2031,2038,2051,2114,2056,2045,2028
2041,2024,2033,2067,2189,2076,2069,2029
2037,2037,2050,2077,2202,2095,2068,2016
2019,2053,2066,2080,2194,2099,2068,2021
2026,2047,2052,2073,2185,2095,2090,2038
2038,2029,2042,2070,2155,2096,2095,2043
2053,2017,2031,2070,2129,2078,2074,2031
2027,2002,2007,2064,2099,2038,2051,2002
1994,2002,2004,2042,2015,2004,2010,1980
1986,2029,2023,2017,1850,1988,2026,1984
2010,2062,2050,2042,1881,2018,2042,2012
2031,2070,2068,2074,2021,2037,2051,2030
2042,2062,2060,2062,2069,2042,2058,2048
2055,2054,2048,2055,2077,2044,2049,2047
2050,2058,2039,2042,2083,2040,2035,2042
2030,2062,2033,2037,2059,2032,2024,2039
2024,2048,2028,2013,1973,2030,2027,2038
2035,2037,2029,2026,1988,2047,2024,2040
2039,2058,2051,2053,2037,2050,2026,2035
2044,2063,2047,2063,2065,2042,2022,2032
2043,2052,2047,2062,2089,2042,2028,2034
2042,2050,2047,2066,2114,2045,2039,2031
2039,2052,2045,2063,2068,2031,2030,2033
2041,2052,2049,2066,2059,2034,2043,2031
2040,2048,2041,2077,2077,2050,2047,2030
2036,2030,2033,2062,2073,2061,2050,2030
2046,2027,2035,2054,2044,2067,2053,2022
2035,2019,2021,2043,2015,2056,2036,2014
2021,2010,2018,2039,2008,2045,2042,1994
2011,2016,2030,2052,2032,2044,2013,1991
2024,2044,2055,2080,2153,2050,2040,2013
2049,2070,2078,2088,2166,2054,2033,2027
2044,2057,2060,2076,2090,2047,2039,2033
2040,2058,2056,2077,2098,2064,2056,2044
2055,2068,2065,2090,2098,2084,2056,2034
2046,2069,2064,2094,2102,2083,2054,2044
2054,2058,2055,2079,2094,2066,2076,2029
2043,2037,2040,2045,1967,2017,2063,2028
2057,2038,2038,2019,1842,1976,2073,2060
2080,2033,2033,2015,1841,1974,2068,2047
2074,2030,2042,2027,1957,2009,2057,2044
2057,2027,2047,2049,2109,2044,2068,2040
2048,2018,2043,2069,2227,2071,2061,2063
2064,2024,2046,2072,2131,2084,2072,2074
2069,2034,2048,2072,2118,2082,2068,2071
2077,2039,2041,2065,2092,2076,2080,2059
2064,2044,2034,2054,2072,2078,2068,2030
2063,2039,2025,2049,2069,2069,2044,2022
2041,2024,2019,2044,2073,2055,2033,2046
2055,2025,2022,2043,2067,2048,2034,2035
2052,2048,2037,2054,2073,2049,2024,2026
2030,2048,2030,2052,2061,2043,2048,2028
2032,2050,2029,2052,2040,2027,2036,2023
2043,2056,2036,2048,2034,2011,2024,2026
2050,2051,2040,2053,2040,2018,2020,2018
2056,2044,2041,2063,2067,2037,2029,2025
2064,2047,2043,2066,2092,2051,2040,2039
2061,2047,2040,2073,2090,2058,2020,2029
2044,2031,2029,2068,2096,2061,2056,2020
2029,2022,2030,2076,2085,2054,2042,2006
2015,2023,2028,2076,2068,2054,2042,1977
2005,2028,2034,2079,2075,2055,2059,1995
2019,2037,2042,2086,2078,2058,2059,2018
2037,2034,2046,2077,2054,2046,2052,2008
2018,2024,2028,2064,2034,2038,2062,2005
2017,2025,2034,2071,2068,2061,2067,2013
2028,2040,2043,2065,2052,2062,2072,2016
2038,2045,2041,2043,1972,2066,2062,2022
2035,2050,2050,2039,1978,2068,2069,2023
2043,2063,2056,2046,2048,2062,2068,2013
2055,2056,2047,2047,2026,2035,2044,2007
2038,2040,2038,2047,2033,2032,2051,2019
2028,2030,2033,2059,2068,2008,2058,2024
2030,2043,2043,2066,2124,2029,2078,2026
2032,2040,2050,2066,2140,2041,2067,2027
2039,2044,2050,2059,2103,2052,2070,2040
2065,2045,2049,2058,2086,2058,2068,2058
2083,2039,2035,2052,2074,2067,2078,2051
2091,2047,2037,2061,2085,2071,2073,2046
2092,2069,2051,2064,2094,2060,2074,2036
2090,2054,2048,2055,2124,2059,2063,2031
2062,2042,2041,2040,2130,2056,2073,2053
2059,2038,2037,2024,2067,2034,2063,2057
2059,2043,2041,2016,2001,2025,2059,2058
2044,2053,2039,2013,1959,2007,2045,2050
2046,2069,2054,2029,1946,1995,2034,2039
2045,2078,2051,2018,1944,1990,2016,2028
2044,2063,2043,2014,1962,1982,2035,2030
2051,2050,2034,2013,1967,1970,2003,2036
2055,2050,2038,1991,1931,1954,2000,2025
2044,2047,2028,1998,1985,1970,2038,2012
2030,2037,2025,2039,2114,2014,2046,2002
2037,2038,2029,2062,2201,2054,2052,2001
2038,2035,2050,2082,2212,2069,2060,2022
2053,2052,2072,2093,2174,2083,2060,2031
2060,2047,2074,2096,2162,2086,2053,2040
2064,2054,2077,2092,2093,2080,2052,2041
2055,2043,2060,2056,1999,2068,2049,2030
2045,2030,2048,2059,2085,2091,2068,2014
2049,2045,2061,2072,2113,2106,2093,2014
2048,2061,2074,2069,2064,2104,2079,2016
2032,2054,2071,2052,2031,2101,2071,2005
2032,2053,2078,2049,2020,2102,2061,2018
2038,2077,2087,2055,2018,2089,2044,2015
2034,2077,2074,2048,1982,2056,2012,2007
2022,2062,2054,2035,1937,2001,2022,2013
2032,2060,2067,2042,1941,1945,2032,2028
2047,2071,2076,2070,2018,1954,2062,2061
2069,2071,2087,2061,2046,1993,2047,2067
2064,2063,2080,2068,2135,2053,2063,2074
2062,2052,2072,2052,2149,2079,2050,2054
2057,2046,2054,2042,2155,2083,2049,2035
2037,2028,2039,2028,2109,2061,2041,2039
2026,2018,2032,2036,2111,2059,2044,2041
2047,2044,2054,2061,2135,2064,2042,2036
2035,2060,2067,2067,2131,2073,2055,2016
2006,2058,2073,2072,2089,2064,2062,2014
2031,2070,2077,2073,2061,2034,2053,2033
2058,2073,2067,2066,2004,2003,2021,2033
2062,2079,2073,2071,1919,2017,2016,2034
2061,2077,2068,2081,1976,2036,2021,2020
2062,2052,2058,2098,2100,2064,2052,2010
2058,2029,2037,2077,2096,2071,2041,2002
2047,2004,2014,2042,2040,2049,2051,2006
2040,2011,2013,2054,2114,2069,2054,2023
2066,2038,2031,2091,2206,2080,2066,2040
2095,2050,2037,2105,2234,2088,2059,2048
2105,2059,2039,2083,2120,2056,2040,2001
2041,2023,2009,2056,2089,2031,2022,1976
2008,2002,1995,2021,2002,2035,2033,1993
1999,2002,1988,2010,1946,2053,2036,2019
2001,2011,1998,2030,2015,2081,2042,2037
2027,2044,2037,2067,2056,2094,2068,2050
2044,2064,2053,2063,2049,2062,2064,2052
2045,2052,2030,2037,2013,2030,2043,2042
2035,2037,2038,2026,1992,2020,2021,2037
2030,2036,2049,2012,1931,2003,2022,2026
2027,2054,2065,2008,1949,2025,2045,2043
2032,2065,2073,2022,2043,2052,2063,2049
2047,2068,2069,2036,2063,2077,2066,2055
2065,2090,2080,2048,2071,2099,2050,2065
2074,2088,2086,2055,2085,2102,2079,2067
2076,2088,2087,2063,2106,2100,2086,2070
2080,2082,2088,2062,2132,2064,2058,2054
2075,2053,2064,2037,2140,2009,2038,2029
2053,2037,2049,2035,2161,1994,2039,2025
2042,2021,2039,2028,2113,1981,2021,2004
2007,2033,2051,2055,2119,2000,2037,2001
2000,2056,2069,2107,2227,2065,2064,2035
2026,2058,2073,2139,2290,2125,2080,2041
2024,2045,2062,2129,2271,2153,2082,2032
2017,2038,2051,2108,2216,2140,2082,2025
2029,2032,2040,2095,2177,2131,2072,2022
2040,2038,2032,2080,2152,2136,2056,2011
2034,2028,2024,2047,2031,2082,2049,2019
2047,2045,2043,2025,1788,2007,2053,2024
2051,2062,2063,2020,1704,1973,2047,2036
2053,2060,2061,2033,1808,1959,2047,2034
2054,2057,2066,2060,1907,2000,2056,2047
2055,2061,2057,2082,2050,2048,2078,2046
2054,2050,2042,2054,2061,2059,2078,2041
2047,2052,2030,2035,2028,2056,2088,2022
2036,2046,2036,2034,2048,2049,2085,2019
2034,2060,2047,2048,2058,2008,2082,2010
2026,2062,2046,2060,2096,2004,2059,2004
2022,2053,2028,2047,2123,2030,2057,2039
2055,2047,2021,2044,2170,2067,2077,2064
2077,2056,2038,2058,2160,2077,2063,2053
2077,2064,2040,2053,2069,2073,2045,2040
2078,2065,2051,2041,2006,2084,2033,2030
2041,2056,2042,2021,1943,2053,2042,2029
2022,2038,2030,2004,1922,2022,2043,2024
2005,2021,2023,1999,1930,2012,2057,2030
1988,2032,2036,2005,1953,2005,2042,2032
1993,2038,2037,1992,1971,2002,2052,2044
2011,2028,2018,1993,2001,1999,2049,2047
2016,2012,2013,2020,2098,2032,2008,2045
2024,2020,2031,2057,2196,2052,2032,2033
2032,2022,2047,2080,2190,2035,2040,2029
2026,2011,2050,2087,2161,2028,2029,2016
2026,2026,2066,2104,2152,2039,2036,2033
2050,2059,2093,2141,2210,2052,2061,2045
2041,2060,2089,2152,2273,2069,2053,2033
2038,2069,2086,2151,2279,2073,2064,2024
2046,2078,2065,2138,2251,2062,2052,2026
2052,2069,2056,2135,2240,2057,2049,2025
2043,2045,2035,2118,2175,2052,2037,2026
2041,2038,2021,2101,2008,2036,2046,2028
2049,2040,2005,2088,1986,2031,2055,2028
2045,2033,1979,2074,1966,2020,2053,2032
2045,2030,1958,2058,1933,2012,2056,2028
2036,2019,1934,2054,1962,2026,2042,2030
2030,2017,1919,2060,2028,2042,2042,2017
2023,2015,1911,2055,2101,2056,2038,2011
2023,2016,1893,2033,2098,2063,2058,2004
2023,2022,1898,1998,2061,2060,2065,2006
2015,2026,1908,1957,2016,2068,2047,2025
2022,2028,1926,1946,2007,2057,2039,2031
2017,2030,1951,1953,2009,2057,2031,2033
2026,2054,2007,1990,2025,2046,2041,2027
2030,2063,2044,2002,2051,2013,2017,2033
2029,2060,2070,2020,2102,2001,2037,2053
2038,2062,2096,2028,2131,2009,2043,2058
2042,2064,2119,2030,2113,2012,2043,2067
2035,2067,2132,2036,2070,2025,2043,2063
2038,2075,2152,2052,2060,2040,2063,2061
2050,2081,2154,2054,2070,2059,2043,2047
2037,2074,2137,2067,2070,2072,2065,2047
2044,2060,2123,2066,2095,2096,2040,2044
2054,2054,2119,2070,2096,2113,2056,2050
2057,2060,2110,2069,2056,2102,2056,2033
2049,2067,2105,2063,2042,2071,2019,2028
2042,2048,2082,2049,2024,2041,2022,2038
2043,2021,2061,2050,2018,2008,2040,2058
2043,2010,2052,2056,2044,1996,2017,2054
2048,2020,2050,2050,2035,2014,2027,2025
2058,2044,2061,2037,1978,2046,2032,2016
2065,2064,2072,2035,2011,2083,2040,2015
2045,2074,2093,2057,2084,2089,2062,2029
2029,2063,2085,2060,2114,2082,2052,2043
2039,2056,2068,2054,2119,2069,2053,2054
2039,2069,2075,2079,2125,2071,2039,2044
2025,2065,2086,2069,1984,2016,2032,2028
2015,2051,2066,2037,1904,1991,2000,2009
2020,2054,2064,2041,1957,2006,2009,2034
2052,2073,2067,2066,2088,2029,2038,2045
2053,2055,2056,2085,2203,2054,2048,2042
2058,2045,2060,2093,2197,2072,2054,2038
2057,2047,2070,2098,2169,2086,2054,2026
2054,2054,2075,2103,2145,2077,2049,2045
2065,2058,2066,2092,2086,2066,2058,2066
2078,2052,2053,2070,1981,2040,2011,2052
2031,2039,2038,2062,1985,2039,2016,2027
2006,2036,2041,2075,2044,2060,2045,2018
2012,2051,2051,2102,2072,2081,2048,2032
2019,2056,2048,2109,2089,2084,2071,2050
2014,2069,2047,2109,2131,2094,2063,2050
2016,2062,2042,2104,2145,2087,2068,2050
2009,2051,2051,2103,2162,2082,2046,2055
2019,2051,2064,2111,2149,2059,2067,2061
2030,2051,2071,2091,2096,2048,2056,2058
2033,2054,2065,2088,2001,2044,2059,2057
2038,2067,2070,2070,1928,2023,2049,2044
2040,2074,2070,2058,1963,2013,2043,2036
2053,2067,2085,2046,1961,2019,2040,2035
2050,2058,2090,2040,1968,2011,2029,2026
2043,2052,2086,2039,1975,1999,2045,2033
2030,2039,2077,2029,1987,1990,2041,2025
2019,2028,2064,2021,1997,1981,2028,2013
2013,2043,2064,2013,2030,2000,2014,2020
2042,2058,2079,2026,2064,2037,2059,2052
2063,2068,2090,2041,2079,2073,2068,2049
2061,2078,2085,2040,2094,2080,2071,2049
2073,2083,2092,2058,2101,2095,2083,2060
2080,2082,2067,2060,2109,2086,2074,2055
2051,2045,2047,2057,2091,2074,2047,2030
2031,2033,2052,2062,2070,2074,2043,2042
2050,2034,2046,2079,2062,2062,2043,2058
2067,2016,2033,2056,2024,2063,2037,2034
2041,2016,2036,2066,2035,2065,2031,2014
2037,2027,2049,2089,2042,2054,2043,2023
2047,2049,2069,2116,2103,2044,2039,2030
2034,2062,2066,2112,2102,2015,2010,2020
2005,2057,2057,2102,2138,1987,2029,2036
2012,2068,2057,2122,2251,2014,2052,2036
2032,2089,2071,2126,2249,2056,2081,2045
2044,2093,2076,2107,2151,2058,2072,2059
2050,2074,2062,2093,2128,2061,2069,2064
2034,2065,2056,2080,2106,2048,2070,2065
2025,2063,2046,2061,2084,2051,2054,2063
2028,2052,2039,2046,2071,2048,2048,2057
2023,2044,2032,2039,2059,2039,2048,2044
2010,2036,2029,2032,2065,2042,2050,2035
2015,2045,2045,2036,2080,2047,2029,2034
2018,2046,2049,2034,2105,2056,2041,2034
2011,2037,2057,2052,2122,2063,2051,2033
2020,2043,2073,2055,2105,2059,2072,2044
2028,2043,2078,2055,2094,2066,2071,2050
2040,2044,2077,2061,2089,2058,2067,2056
2043,2051,2073,2073,2087,2024,2073,2049
2044,2053,2067,2073,1996,2019,2044,2033
2035,2062,2052,2064,1916,2033,2040,2002
2010,2048,2038,2082,1990,2056,2042,2000
2032,2026,2012,2080,2024,2068,2044,2009
2022,1974,1970,2066,2024,2051,2026,2004
2009,1971,1956,2075,2026,2019,2036,2015
2023,2009,1980,2106,2051,2035,2036,2020
2035,2036,1986,2118,2068,2049,2041,2006
2049,2041,1979,2118,2082,2050,2041,2011
2071,2039,1963,2100,2077,2038,2023,2017
2071,2042,1937,2074,2101,2030,2012,2026
2054,2037,1939,2062,2115,2045,2024,2021
2043,2033,1942,2057,2119,2069,2064,2018
2029,2033,1953,2056,2140,2088,2046,2025
2012,2034,1970,2041,2120,2077,2043,2008
2003,2037,1983,2023,2086,2061,2047,2019
2026,2058,2001,2026,2080,2047,2050,2033
2038,2056,2025,2014,2070,2031,2047,2046
2040,2052,2038,1991,2068,2018,2018,2050
2030,2036,2062,1976,2082,2005,1993,2057
2032,2056,2101,1993,2092,2011,2007,2074
2059,2088,2141,2004,2068,2026,2022,2082
2056,2096,2158,2015,2033,2058,2014,2066
2076,2088,2149,2023,2031,2075,2008,2046
2043,2075,2138,2048,2026,2083,2033,2037
2034,2080,2146,2056,1996,2071,2062,2052
2052,2082,2139,2061,1980,2038,2060,2065
2044,2066,2120,2065,2004,2007,2052,2053
2031,2048,2082,2052,2036,1987,2036,2056
2031,2044,2064,2039,2078,1997,2004,2044
2021,2057,2080,2068,2137,2037,2023,2045
2027,2070,2096,2078,2149,2065,2045,2038
2032,2079,2101,2076,2153,2089,2059,2040
2046,2081,2090,2072,2151,2102,2042,2040
2040,2089,2091,2060,2099,2094,2068,2036
2051,2094,2077,2044,2054,2072,2064,2022
2049,2089,2066,2044,2055,2058,2047,2022
2036,2072,2068,2046,2065,2049,2046,2012
2044,2075,2078,2057,2070,2044,2036,2025
2040,2081,2073,2060,2067,2039,2042,2026
2027,2071,2066,2061,2070,2041,2028,2023
2033,2071,2063,2070,2090,2052,2036,2021
2036,2057,2056,2070,2132,2050,2049,2008
2026,2047,2046,2058,2135,2041,2047,2022
2032,2060,2052,2081,2173,2054,2047,2032
2032,2076,2074,2106,2187,2063,2050,2028
2029,2071,2066,2101,2150,2052,2045,2043
2033,2055,2052,2089,2104,2039,2029,2037
2030,2053,2047,2082,2051,2035,2030,2042
2018,2044,2037,2063,1951,2024,2023,2045
2018,2034,2015,2057,1988,2027,2011,2048
2028,2029,2003,2065,2045,2037,2028,2050
2031,2031,2001,2077,2065,2041,2020,2044
2011,2016,2015,2075,2069,2035,2013,2040
2018,2022,2036,2083,2066,2041,2050,2047
2058,2048,2062,2097,2054,2036,2051,2046
2057,2063,2070,2102,2047,2040,2013,2042
2055,2066,2065,2111,2070,2046,2023,2025
2033,2046,2065,2121,2093,2047,2035,2018
2014,2035,2066,2129,2099,2041,2031,2024
2014,2043,2058,2138,2073,2017,2049,2039
2025,2060,2066,2136,2068,2017,2031,2030
2025,2070,2073,2146,2069,2014,2024,2020
2028,2074,2057,2130,2060,2009,2024,2011
2048,2076,2048,2137,2072,2027,2048,2022
2048,2083,2046,2134,2091,2033,2044,2032
2040,2058,2023,2116,2084,2032,2040,2019
2024,2039,2010,2083,2087,2057,2029,2013
2037,2057,2003,2053,2076,2059,2041,2027
2050,2068,1990,2039,2076,2044,2028,2033
2029,2043,1971,2024,2072,2036,2041,2031
2026,2034,1956,2014,2063,2032,2045,2036
2034,2040,1968,2017,2066,2043,2052,2026
2035,2067,1986,2022,2078,2049,2063,2025
2027,2062,1997,2020,2067,2042,2060,2042
2032,2048,2011,2011,2060,2046,2053,2050
2036,2052,2042,1998,2041,2041,2042,2029
2033,2068,2056,1998,2039,2027,2049,2048
2040,2080,2075,2014,2045,2037,2069,2059
2059,2083,2067,2033,2078,2053,2045,2057
2055,2072,2058,2036,2076,2046,2075,2050
2044,2064,2056,2034,2052,2038,2038,2042
2030,2048,2050,2031,2045,2031,2027,2040
2031,2040,2061,2047,2053,2051,2038,2054
2042,2060,2090,2068,2067,2072,2047,2059
2056,2075,2100,2079,2073,2084,2055,2073
2062,2066,2088,2093,2066,2078,2031,2073
2051,2071,2074,2089,2066,2062,2055,2064
2054,2062,2061,2082,2054,2030,2022,2055
2059,2055,2066,2071,2044,2015,2012,2048
2061,2054,2055,2056,2032,2000,2008,2029
2044,2040,2047,2055,2041,1994,2008,2031
2064,2064,2057,2073,2063,2008,2014,2027
2072,2082,2060,2075,2065,1998,1999,2036
2063,2050,2051,2067,2060,2016,2016,2035
2052,2042,2062,2079,2072,2044,2026,2021
2021,2046,2080,2093,2089,2056,2029,2016
2011,2059,2079,2090,2085,2056,2010,2016
2029,2064,2060,2086,2077,2049,2032,2013
2043,2065,2046,2082,2073,2051,2058,2020
2036,2058,2028,2069,2070,2045,2053,2024
2041,2051,2010,2061,2069,2055,2052,2034
2043,2049,1999,2068,2081,2059,2062,2034
2052,2051,2039,2091,2080,2061,2049,2016
2048,2051,2063,2104,2069,2054,2047,2015
2041,2042,2066,2114,2070,2054,2063,2020
2042,2044,2058,2119,2078,2060,2023,2018
2044,2044,2057,2127,2080,2063,2050,2028
2046,2038,2055,2119,2082,2057,2035,2032
2039,2031,2041,2104,2073,2055,2029,2039
2044,2038,2034,2092,2070,2051,2052,2048
2042,2030,2022,2082,2062,2043,2055,2046
2045,2028,2023,2071,2046,2035,2033,2041
2034,2044,2025,2088,2054,2042,2033,2032
2034,2060,2047,2116,2060,2044,2047,2048
2030,2070,2036,2112,2067,2049,2043,2042
2026,2059,2016,2116,2061,2048,2050,2049
2043,2073,2036,2122,2065,2058,2048,2061
2053,2080,2055,2118,2042,2052,2044,2070
2047,2064,2045,2078,2015,2034,2012,2070
2038,2060,2045,2045,1998,2027,2031,2068
2046,2085,2091,2026,2003,2037,2039,2076
2054,2098,2123,2002,1997,2026,2037,2076
2071,2085,2124,1995,1989,2033,2043,2065
2063,2079,2130,2000,1988,2038,2022,2057
2058,2081,2121,2006,2007,2048,2028,2048
2048,2093,2112,2012,2009,2047,2057,2054
2051,2094,2096,2025,2013,2028,2054,2050
2053,2104,2096,2043,2047,2032,2054,2040
2056,2102,2105,2055,2098,2041,2064,2039
2059,2106,2099,2059,2108,2038,2061,2039
2055,2098,2091,2052,2075,2031,2057,2051
2054,2095,2082,2055,2069,2035,2060,2052
2049,2083,2072,2047,2060,2015,2069,2050
2039,2062,2051,2037,2038,1994,2037,2036
2034,2053,2036,2028,1996,1990,2033,2017
2029,2042,2032,2014,1968,1992,2024,2014
2038,2048,2045,2038,2084,2030,2040,2030
2052,2066,2059,2071,2162,2073,2047,2028
2042,2062,2048,2075,2146,2060,2037,2029
2042,2053,2041,2061,2103,2025,2032,2034
2050,2045,2038,2056,2090,2021,2015,2040
2049,2042,2028,2055,2074,2024,2043,2034
2038,2038,2024,2053,2063,2033,2038,2038
2032,2034,2015,2041,2050,2033,2030,2048
2040,2028,2005,2048,2054,2038,2026,2049
2042,2036,2008,2051,2061,2044,2033,2059
2028,2047,2013,2047,2055,2054,2053,2056
2042,2052,2015,2051,2056,2052,2046,2053
2050,2066,2023,2065,2057,2037,2043,2054
2049,2062,2021,2072,2053,2038,2049,2059
2040,2065,2019,2069,2064,2044,2050,2063
2032,2049,2007,2060,2062,2034,2039,2055
2032,2037,2004,2063,2052,2028,2045,2053
2034,2052,2007,2070,2048,2032,2040,2056
2037,2056,2012,2074,2052,2037,2036,2054
2043,2067,2032,2080,2055,2044,2046,2048
2050,2074,2039,2083,2067,2046,2053,2060
2058,2068,2049,2088,2066,2045,2049,2054
2051,2056,2046,2091,2061,2042,2045,2034
2043,2056,2050,2095,2078,2036,2037,2041
2047,2053,2048,2094,2085,2036,2028,2034
2045,2040,2042,2080,2072,2042,2041,2030
2052,2044,2055,2070,2067,2035,2041,2020
2061,2041,2061,2075,2072,2032,2041,2024
2048,2029,2045,2076,2072,2034,2050,2027
2039,2035,2042,2080,2076,2043,2038,2039
2041,2042,2048,2086,2076,2047,2048,2051
2049,2046,2053,2092,2078,2040,2039,2046
2045,2042,2042,2086,2079,2041,2037,2047
2046,2040,2040,2081,2073,2045,2073,2045
2050,2048,2062,2081,2068,2043,2059,2044
2046,2045,2066,2082,2064,2041,2054,2047
2046,2040,2051,2064,2065,2031,2029,2042
2044,2030,2032,2050,2045,2025,2028,2034
2037,2017,2002,2029,2035,2023,2032,2032
2037,2015,1998,2028,2026,2021,2016,2043
2054,2046,2037,2053,2000,2029,2043,2051
2056,2069,2068,2072,2029,2032,2045,2066
2069,2085,2076,2076,2032,2041,2049,2064
2081,2106,2097,2100,2036,2052,2041,2072
2078,2106,2094,2099,2039,2057,2044,2078
2054,2090,2077,2085,2044,2059,2073,2089
2035,2084,2053,2057,2051,2054,2055,2090
2037,2072,2028,2026,2024,2028,2033,2078
2029,2050,1999,1993,2021,2015,2037,2069
2036,2050,2014,2014,2053,2032,2022,2061
2032,2057,2040,2024,2062,2034,2022,2062
2048,2070,2082,2038,2051,2039,2031,2067
2050,2084,2107,2052,2054,2040,2047,2060
2051,2089,2123,2069,2069,2054,2076,2060
2062,2093,2131,2078,2080,2051,2074,2066
2071,2095,2118,2086,2090,2051,2037,2060
2059,2088,2103,2092,2090,2056,2038,2050
2060,2079,2098,2099,2088,2059,2062,2044
2045,2066,2082,2097,2094,2058,2062,2044
2049,2063,2073,2109,2100,2062,2054,2047
2050,2060,2071,2119,2099,2064,2051,2048
2045,2051,2047,2120,2089,2055,2040,2045
2043,2042,2031,2111,2070,2049,2026,2041
2040,2041,2024,2113,2050,2043,2050,2043
2046,2036,2013,2099,2044,2043,2033,2037
2044,2028,1997,2091,2043,2030,2036,2038
2044,2034,2004,2096,2046,2035,2016,2041
2039,2033,2008,2105,2049,2035,2024,2035
2040,2044,2013,2114,2068,2044,2056,2037
2043,2043,1975,2089,2058,2037,2040,2041
2040,2030,1944,2064,2046,2038,2042,2046
2042,2033,1927,2053,2036,2032,2041,2050
2051,2043,1932,2054,2046,2036,2048,2053
2059,2049,1944,2065,2053,2034,2014,2051
2048,2045,1933,2038,2043,2024,2007,2048
2034,2043,1929,2001,2022,2020,2017,2052
2037,2055,1964,1992,2013,2016,2048,2059
2044,2077,2034,1991,2010,2015,2021,2064
2054,2089,2080,1988,2008,2019,2036,2065
2051,2097,2121,2003,2018,2022,2050,2068
2060,2103,2138,2013,2020,2018,2049,2067
2050,2084,2126,2012,2025,2013,2028,2071
2054,2081,2116,2015,2034,2027,2041,2070
2059,2085,2108,2025,2034,2041,2050,2068
2061,2079,2094,2031,2037,2041,2052,2066
2056,2080,2101,2041,2033,2036,2054,2060
2060,2085,2115,2058,2040,2032,2045,2060
2062,2086,2112,2057,2042,2036,2057,2051
2059,2080,2110,2061,2039,2036,2055,2048
2063,2087,2101,2061,2044,2041,2057,2054
2062,2083,2092,2060,2051,2035,2057,2056
2063,2080,2091,2069,2043,2043,2055,2058
2067,2092,2093,2071,2050,2038,2030,2058
2066,2091,2093,2068,2046,2025,2039,2049
2068,2090,2096,2069,2049,2020,2043,2046
2066,2090,2096,2063,2044,2035,2039,2050
2070,2089,2099,2072,2047,2038,2030,2044
2059,2076,2085,2063,2037,2039,2050,2031
2045,2071,2082,2058,2039,2038,2038,2035
2054,2073,2083,2072,2046,2036,2059,2044
2054,2074,2082,2066,2040,2042,2055,2052
2053,2078,2081,2069,2053,2048,2077,2061
2056,2083,2082,2072,2052,2046,2072,2071
2061,2081,2082,2076,2042,2039,2080,2067
2060,2076,2069,2064,2038,2028,2072,2067
2063,2071,2062,2057,2028,2031,2061,2061
2054,2068,2056,2058,2023,2033,2068,2062
2053,2066,2051,2058,2027,2036,2068,2061
2061,2062,2055,2055,2028,2046,2073,2072
2056,2051,2041,2050,2035,2045,2055,2062
2037,2037,2026,2040,2030,2043,2048,2063
2038,2037,2027,2041,2030,2057,2048,2066
2051,2048,2032,2048,2041,2073,2057,2062
2055,2056,2045,2062,2042,2083,2048,2048
2060,2066,2057,2072,2064,2088,2059,2054
2047,2064,2054,2076,2072,2073,2051,2054
2044,2072,2049,2070,2066,2021,2047,2059
2043,2068,2043,2070,2055,1991,2041,2057
2048,2069,2034,2069,2054,1993,2017,2053
2054,2067,2038,2078,2053,2011,2043,2051
2052,2070,2037,2090,2055,2023,2038,2043
2053,2061,2040,2091,2056,2030,2034,2038
2055,2063,2039,2084,2030,2036,2044,2044
2060,2065,2043,2078,1980,2031,2058,2036
2050,2064,2040,2069,1990,2025,2042,2035
2051,2053,2035,2067,2027,2024,2043,2034
2053,2062,2039,2086,2045,2037,2038,2032
2054,2067,2059,2091,2042,2037,2058,2031
2062,2071,2080,2096,2033,2036,2057,2036
2064,2077,2092,2097,2023,2028,2060,2029
2059,2075,2095,2101,2028,2023,2060,2027
2055,2068,2092,2083,2020,2018,2043,2028
2054,2071,2088,2076,2027,2024,2045,2023
2054,2072,2078,2072,2028,2052,2035,2030
2051,2065,2067,2071,2020,2072,2053,2030
2053,2061,2054,2066,2043,2078,2052,2040
2058,2053,2046,2057,2044,2069,2048,2046
2040,2050,2031,2042,2025,2032,2041,2045
2057,2055,2033,2050,2038,2010,2039,2054
2059,2054,2035,2038,2009,2015,2046,2067
2059,2058,2032,2017,1957,2014,2016,2059
2056,2048,2030,2001,1922,2003,2030,2058
2041,2059,2044,1999,1894,1983,2012,2056
2043,2050,2042,2001,1889,1945,2037,2069
2044,2046,2028,2004,1915,1930,2040,2070
2040,2032,2015,2017,1957,1957,2050,2060
2052,2046,2043,2047,2030,2002,2061,2073
2051,2054,2046,2051,2092,2034,2074,2083
2060,2055,2044,2056,2104,2063,2081,2066
2056,2049,2041,2044,2075,2068,2056,2064
2056,2051,2045,2038,2052,2069,2059,2064
2061,2056,2044,2032,2024,2048,2047,2060
2061,2054,2036,2020,2013,2012,2034,2062
2053,2051,2029,2034,2045,2002,2053,2065
2054,2047,2027,2042,2080,2025,2042,2054
2058,2048,2029,2057,2085,2035,2063,2051
2056,2053,2037,2062,2080,2046,2062,2050
2054,2052,2032,2058,2066,2046,2078,2049
2056,2043,2024,2050,2049,2064,2074,2045
2064,2051,2023,2047,2055,2064,2071,2051
2067,2055,2018,2055,2050,2055,2062,2056
2070,2049,2014,2048,2045,2050,2048,2040
2041,2024,1994,2040,2035,2041,2060,2034
2041,2016,1987,2045,2034,2034,2059,2044
2047,2027,1990,2058,2035,2033,2054,2052
2044,2032,1993,2058,2051,2041,2044,2058
2041,2030,2000,2068,2059,2050,2047,2056
2033,2031,1998,2064,2066,2054,2055,2060
2039,2024,1987,2057,2060,2051,2056,2056
2043,2017,1986,2059,2057,2039,2023,2049
2048,2031,1997,2065,2065,2048,2041,2050
2045,2039,2002,2073,2078,2066,2066,2044
2040,2034,1991,2067,2069,2060,2044,2048
2032,2022,1968,2049,2048,2043,2047,2047
2034,2019,1956,2054,2047,2040,2059,2052
2040,2022,1957,2056,2041,2034,2040,2052
2031,2008,1966,2060,2034,2036,2042,2056
2028,2009,1981,2052,2038,2030,2052,2059
2031,1996,1987,2035,2023,2018,2026,2070
2032,2005,2002,2030,2003,2017,2037,2066
2035,2016,2033,2036,2007,2029,2035,2061
2041,2016,2047,2030,2009,2028,2029,2051
2035,2012,2042,2020,1999,2027,2035,2060
2039,2020,2068,2023,2002,2029,2039,2066
2051,2040,2100,2039,2005,2033,2058,2060
2062,2074,2152,2068,2027,2040,2046,2070
2076,2087,2177,2086,2032,2039,2060,2080
2079,2096,2177,2091,2041,2039,2060,2087
2073,2094,2144,2079,2039,2033,2067,2073
2069,2088,2120,2060,2031,2031,2054,2074
2072,2080,2082,2039,2035,2029,2051,2060
2061,2072,2064,2036,2028,2030,2049,2053
2061,2072,2068,2032,2036,2029,2055,2046
2065,2084,2072,2032,2033,2038,2056,2064
2090,2093,2084,2033,2030,2040,2059,2064
2082,2087,2084,2022,2020,2038,2042,2054
2082,2083,2077,2018,2017,2039,2063,2060
2078,2081,2075,2019,2012,2039,2053,2061
2061,2081,2085,2014,2014,2038,2055,2057
2054,2084,2095,2024,2025,2039,2060,2057
2045,2084,2102,2029,2026,2041,2073,2057
2040,2075,2096,2034,2020,2039,2061,2070
2042,2074,2087,2026,2025,2038,2060,2077
2047,2066,2075,2032,2032,2045,2051,2085
2051,2077,2087,2044,2036,2044,2059,2086
2060,2092,2098,2042,2029,2043,2048,2085
2064,2094,2101,2049,2029,2048,2057,2080
2054,2074,2089,2039,2012,2041,2052,2084
2053,2070,2068,2049,2014,2040,2053,2080
2057,2069,2073,2056,2025,2038,2064,2080
2059,2063,2056,2048,2033,2032,2035,2074
2051,2047,2047,2042,2025,2029,2034,2077
2046,2051,2051,2043,2028,2035,2057,2080
2046,2057,2056,2047,2032,2034,2060,2068
2050,2054,2051,2046,2032,2036,2045,2063
2044,2049,2052,2049,2029,2042,2035,2060
2044,2049,2051,2049,2035,2044,2047,2056
2047,2057,2050,2049,2037,2042,2043,2055
2053,2056,2052,2046,2034,2043,2049,2053
2049,2057,2056,2052,2025,2045,2046,2054
2055,2064,2061,2060,2038,2049,2048,2056
2063,2075,2073,2064,2038,2047,2061,2059
2068,2073,2081,2064,2039,2045,2054,2058
2070,2071,2074,2068,2038,2051,2050,2060
2068,2074,2070,2063,2035,2049,2052,2054
2069,2077,2067,2068,2036,2048,2059,2062
2067,2078,2060,2058,2029,2042,2035,2056
2057,2057,2053,2045,2023,2048,2050,2056
2056,2053,2053,2047,2032,2054,2051,2062
2063,2066,2054,2044,2028,2053,2058,2063
2058,2063,2051,2044,2021,2045,2049,2066
2065,2065,2056,2038,2019,2048,2073,2066
2060,2062,2050,2038,2021,2049,2084,2071
2060,2067,2055,2038,2022,2051,2081,2077
2057,2064,2051,2034,2024,2050,2072,2077
2057,2063,2045,2037,2026,2050,2058,2077
2059,2060,2042,2041,2026,2046,2057,2083
2059,2062,2036,2049,2022,2042,2058,2081
2061,2062,2038,2054,2029,2048,2074,2086
2064,2060,2032,2047,2028,2042,2072,2085
2062,2059,2028,2044,2028,2052,2068,2088
2052,2060,2027,2049,2029,2046,2069,2097
2060,2061,2026,2046,2022,2037,2058,2090
2049,2047,2029,2050,2016,2026,2047,2083
2049,2044,2040,2052,2019,2023,2051,2080
2058,2054,2060,2062,2025,2032,2057,2077
2054,2063,2064,2071,2033,2046,2067,2082
2064,2074,2075,2073,2032,2055,2069,2081
2066,2077,2068,2075,2038,2045,2069,2074
2063,2074,2066,2075,2027,2046,2069,2074
2059,2069,2061,2065,2018,2040,2075,2066
2070,2067,2064,2056,2025,2042,2070,2064
2070,2062,2068,2061,2022,2045,2068,2061
2057,2066,2078,2062,2023,2037,2065,2053
2052,2056,2070,2055,2023,2039,2053,2055
2059,2059,2057,2046,2027,2041,2062,2064
2056,2051,2043,2030,2022,2046,2065,2064
2057,2052,2036,2019,2022,2047,2058,2065
2060,2056,2028,2009,2015,2036,2062,2062
2056,2054,2024,2002,2008,2034,2056,2061
2059,2050,2022,1992,2008,2039,2068,2066
2061,2060,2024,2003,2016,2046,2063,2058
2046,2054,2021,2015,2025,2052,2068,2053
2054,2055,2032,2018,2048,2061,2080,2064
2066,2068,2052,2037,2048,2066,2081,2081
2078,2072,2064,2032,2042,2065,2068,2082
2079,2064,2051,2027,2032,2058,2057,2080
2060,2055,2031,2016,2028,2053,2049,2070
2060,2042,2033,2022,2032,2053,2064,2071
2058,2047,2038,2030,2031,2052,2040,2075
2052,2049,2037,2030,2033,2053,2050,2082
2054,2043,2046,2034,2029,2048,2045,2078
2050,2037,2050,2034,2040,2052,2040,2080
2052,2039,2044,2040,2039,2045,2034,2080
2046,2051,2072,2047,2041,2039,2033,2080
2041,2042,2081,2056,2031,2036,2050,2081
2046,2046,2083,2061,2030,2045,2038,2086
2059,2053,2080,2066,2038,2050,2043,2086
2060,2034,2066,2058,2034,2044,2037,2081
2048,2040,2056,2066,2036,2052,2046,2075
2054,2048,2054,2066,2028,2046,2024,2073
2055,2054,2049,2062,2023,2049,2023,2076
2053,2047,2038,2056,2031,2054,2045,2072
2053,2032,2023,2044,2022,2048,2045,2064
2037,2005,1992,2033,2011,2045,2039,2061
2036,2002,1986,2029,2020,2056,2054,2059
2044,2028,1997,2041,2030,2057,2037,2065
2048,2029,1986,2030,2026,2054,2034,2068
2054,2034,1981,2032,2032,2063,2035,2078
2066,2041,1983,2028,2036,2057,2038,2069
2065,2047,1993,2020,2036,2058,2029,2066
2054,2035,1981,2006,2018,2044,2021,2068
2053,2036,1993,2004,2014,2048,2039,2073
2062,2055,2029,2020,2015,2049,2057,2068
2062,2061,2046,2018,2011,2047,2037,2070
2061,2060,2058,2019,2010,2044,2049,2071
2063,2064,2065,2011,2007,2044,2066,2078
2065,2058,2059,1988,2001,2037,2036,2080
2060,2051,2053,1990,1990,2023,2034,2084
2053,2050,2065,2007,1996,2026,2051,2090
2062,2061,2079,2024,2001,2030,2042,2091
2071,2076,2102,2031,2006,2039,2041,2096
2071,2094,2122,2053,2017,2051,2053,2108
2076,2101,2131,2063,2038,2066,2056,2113
2088,2104,2126,2059,2043,2065,2074,2123
2085,2093,2104,2045,2033,2062,2071,2114
2074,2074,2083,2033,2030,2059,2072,2109
2070,2056,2058,2014,2030,2054,2041,2092
2068,2053,2062,2022,2025,2059,2049,2095
2070,2071,2076,2040,2042,2065,2058,2093
2066,2069,2067,2038,2048,2069,2050,2091
2063,2070,2072,2053,2046,2084,2056,2085
2068,2072,2075,2052,2043,2078,2036,2077
2056,2067,2067,2050,2045,2064,2049,2085
2059,2061,2061,2047,2044,2047,2044,2073
2060,2059,2049,2046,2032,2049,2038,2076
2057,2054,2040,2045,2026,2038,2039,2071
2060,2053,2050,2050,2027,2040,2060,2073
2065,2064,2052,2049,2024,2037,2041,2068
2071,2064,2057,2042,2022,2025,2040,2069
2063,2048,2042,2032,2013,2021,2047,2068
2065,2050,2045,2026,2012,2021,2058,2070
2064,2062,2053,2026,1995,2021,2046,2071
2055,2047,2045,2015,1981,2010,2041,2057
2043,2030,2024,2000,1972,2001,2037,2059
2046,2048,2042,2014,1990,2014,2049,2061
2057,2053,2053,2039,2024,2032,2074,2069
2057,2059,2067,2056,2028,2041,2076,2070
2060,2059,2075,2061,2030,2052,2073,2076
2058,2058,2062,2048,2027,2065,2064,2076
2062,2050,2047,2042,2025,2070,2075,2079
2065,2044,2041,2049,2042,2076,2077,2078
2062,2040,2050,2062,2044,2078,2083,2085
2065,2037,2045,2063,2052,2074,2069,2078
2058,2036,2036,2065,2048,2069,2059,2073
2055,2032,2030,2065,2047,2087,2061,2076
2056,2031,2018,2059,2032,2082,2061,2073
2044,2021,2006,2058,2028,2059,2049,2071
2034,2014,2001,2051,2022,2053,2052,2076
2043,2014,1994,2042,2011,2045,2042,2065
2039,2007,1991,2036,2000,2037,2040,2072
2044,2028,2013,2041,2007,2049,2047,2069
2052,2043,2040,2054,2016,2052,2057,2067
2056,2046,2042,2051,2021,2052,2061,2071
2057,2037,2031,2040,2013,2043,2049,2067
2044,2034,2016,2028,1996,2043,2048,2060
2040,2038,2024,2015,1989,2044,2066,2062
2055,2051,2050,2004,1983,2043,2062,2063
2057,2063,2080,2000,1980,2047,2059,2069
2062,2068,2086,1999,1969,2037,2060,2071
2058,2070,2090,2001,1983,2039,2046,2066
2066,2072,2096,2022,2022,2046,2055,2068
2081,2088,2114,2039,2049,2056,2074,2077
2074,2083,2098,2050,2043,2062,2069,2079
2071,2074,2076,2050,2054,2064,2071,2076
2069,2064,2066,2043,2053,2058,2066,2063
2055,2047,2057,2048,2049,2056,2060,2058
2047,2048,2063,2050,2062,2062,2058,2063
2062,2046,2055,2046,2064,2062,2059,2064
2054,2055,2057,2052,2036,2053,2069,2067
2058,2054,2054,2045,2014,2046,2068,2074
2059,2052,2050,2038,1997,2045,2068,2073
2057,2040,2047,2022,1960,2029,2058,2068
2047,2041,2040,2013,1938,2046,2058,2078
2054,2048,2051,2029,1966,2064,2065,2084
2060,2056,2045,2046,2002,2071,2075,2088
2061,2057,2044,2046,2028,2086,2072,2088
2064,2053,2034,2048,2030,2078,2082,2093
2068,2049,2022,2036,2031,2052,2075,2093
2065,2037,2014,2044,2024,2061,2087,2091
2061,2034,2009,2055,2064,2074,2089,2084
2057,2032,1996,2052,2087,2063,2059,2084
2051,2019,1988,2036,2103,2061,2074,2086
2049,2024,1985,2040,2131,2070,2076,2090
2058,2030,2002,2035,2121,2069,2077,2079
2040,2034,2001,2020,2115,2088,2080,2056
2023,2019,1990,2013,2115,2100,2080,2049
2025,2015,1992,2009,2089,2097,2058,2058
2040,2022,1988,1992,2023,2085,2056,2065
2056,2018,1997,1974,1900,2054,2058,2062
2052,2013,2013,1962,1909,2024,2054,2068
2058,2042,2057,2011,1970,2056,2045,2056
2058,2070,2090,2045,1984,2059,2062,2066
2055,2062,2099,2047,1960,2022,2054,2061
2058,2060,2091,2053,2004,2012,2055,2063
2065,2068,2090,2081,2068,2039,2045,2063
2080,2069,2082,2105,2086,2053,2051,2070
2069,2064,2077,2120,2051,2052,2069,2073
2063,2058,2066,2108,2006,2034,2053,2062
2059,2058,2080,2112,1990,2039,2065,2064
2064,2077,2083,2092,1944,2013,2066,2064
2057,2072,2081,2041,1866,1998,2040,2069
2061,2071,2090,2046,1916,2018,2042,2070
2058,2070,2086,2074,1985,2035,2033,2062
2063,2063,2086,2080,2038,2049,2039,2065
2057,2056,2090,2100,2076,2052,2054,2066
2059,2058,2084,2089,2070,2047,2036,2075
2058,2063,2091,2085,2074,2058,2050,2081
2065,2061,2074,2072,2072,2052,2056,2084
2063,2062,2068,2055,2050,2053,2052,2085
2058,2049,2057,2044,2036,2045,2051,2083
2055,2042,2051,2043,2047,2051,2047,2084
2060,2049,2050,2044,2047,2056,2039,2087
2057,2041,2040,2036,2047,2042,2049,2085
2048,2029,2011,2030,2027,2042,2054,2080
2046,2029,2008,2020,2023,2045,2059,2078
2051,2044,2024,2004,2014,2050,2060,2070
2053,2047,2029,2002,2011,2046,2053,2073
2055,2042,2033,2008,2015,2051,2064,2066
2058,2041,2030,2034,2025,2055,2066,2071
2061,2041,2036,2049,2029,2056,2052,2066
2071,2041,2042,2053,2028,2055,2045,2073
2073,2043,2044,2072,2032,2056,2064,2060
2072,2041,2042,2080,2036,2056,2062,2053
2058,2037,2038,2076,2031,2051,2050,2044
2042,2031,2023,2070,2015,2047,2039,2043
2041,2029,2015,2064,2014,2035,2048,2043
2048,2043,2014,2053,2017,2037,2052,2049
2046,2049,2006,2036,2018,2037,2051,2047
2043,2040,2001,2022,2010,2028,2036,2049
2039,2029,1990,1991,1994,2023,2038,2043
2041,2027,1988,1971,2011,2033,2052,2055
2057,2048,2027,1976,2042,2049,2052,2064
2061,2068,2061,1983,2042,2060,2054,2072
2073,2080,2090,1997,2028,2064,2077,2075
2075,2085,2109,2005,2024,2078,2076,2078
2072,2079,2106,2011,2038,2085,2074,2084
2073,2076,2098,2012,2034,2080,2072,2090
2076,2070,2090,2020,2023,2065,2068,2091
2074,2062,2074,2020,2016,2046,2053,2092
2062,2052,2060,2015,2009,2038,2054,2091
2067,2057,2058,2012,1955,2030,2055,2092
2064,2045,2039,1996,1877,2018,2051,2081
2059,2042,2033,2011,1945,2037,2046,2090
2051,2030,2027,2029,2020,2051,2045,2077
2043,2022,2024,2039,2060,2076,2035,2075
2038,2022,2025,2045,2109,2087,2054,2078
2038,2033,2029,2058,2156,2100,2068,2090
2060,2046,2041,2062,2165,2099,2076,2097
2060,2033,2031,2063,2156,2094,2078,2100
2065,2034,2034,2052,2117,2093,2090,2090
2067,2034,2036,2054,2065,2090,2078,2080
2070,2031,2031,2051,2031,2081,2058,2070
2069,2032,2038,2045,2029,2066,2061,2055
2051,2024,2037,2030,2012,2044,2052,2046
2048,2018,2037,1994,1879,1997,2035,2050
2045,2032,2038,1983,1820,1991,2038,2049
2044,2041,2059,2005,1930,2017,2040,2045
2046,2047,2054,2017,2029,2035,2049,2049
2043,2039,2036,2028,2083,2030,2050,2042
2038,2036,2032,2039,2106,2024,2033,2044
2033,2018,2021,2034,2065,2014,2019,2023
2025,1998,2013,2029,2023,2024,2024,2025
2030,2011,2018,2049,2025,2043,2028,2035
2049,2021,2026,2064,2011,2059,2030,2046
2040,2017,2031,2070,2012,2078,2040,2051
2040,2021,2024,2057,2022,2083,2057,2059
2050,2024,2014,2046,2024,2081,2060,2064
2056,2028,2008,2032,2010,2063,2054,2071
2058,2030,2008,2021,2009,2030,2037,2069
2054,2042,2020,2035,2071,2020,2037,2069
2064,2050,2031,2063,2136,2044,2054,2061
2054,2044,2030,2064,2158,2060,2060,2063
2047,2034,2023,2045,2116,2051,2045,2064
2045,2019,2027,2023,2029,2023,2029,2065
2039,2028,2040,2028,1996,2024,2043,2069
2047,2044,2060,2020,1946,2019,2026,2078
2056,2042,2054,2023,1950,2033,2032,2080
2051,2038,2051,2033,1979,2039,2047,2074
2049,2034,2049,2037,1968,2028,2042,2078
2047,2040,2053,2035,1979,2039,2043,2082
2052,2043,2068,2041,2031,2046,2065,2080
2063,2062,2080,2051,2069,2051,2062,2082
2072,2073,2083,2045,2075,2046,2059,2076
2068,2067,2080,2030,2046,2036,2061,2061
2057,2060,2069,2005,1921,2022,2037,2058
2048,2056,2068,1998,1866,2030,2046,2055
2044,2048,2060,2012,2003,2050,2060,2054
2045,2051,2064,2030,2113,2068,2057,2060
2052,2058,2061,2042,2130,2082,2061,2053
2059,2064,2062,2050,2115,2081,2058,2052
2066,2064,2065,2050,2096,2081,2051,2047
2077,2052,2052,2049,2084,2082,2046,2048
2069,2046,2048,2045,2076,2082,2038,2037
2057,2028,2037,2032,2064,2075,2045,2028
2054,2028,2038,2033,2052,2068,2031,2029
2045,2039,2034,2034,2037,2058,2052,2041
2039,2029,2024,2027,2025,2043,2044,2042
2042,2038,2024,2046,2037,2052,2052,2051
2052,2034,2022,2053,2045,2065,2056,2052
2048,2036,2028,2051,2036,2061,2054,2047
2047,2037,2030,2050,2027,2042,2042,2052
2058,2042,2038,2049,2002,2018,2031,2062
2054,2056,2043,2051,2026,2033,2035,2063
2061,2058,2050,2072,2073,2053,2045,2071
2058,2060,2039,2070,2071,2073,2070,2075
2056,2052,2030,2070,2066,2082,2058,2080
2055,2042,2030,2060,2040,2091,2064,2080
2049,2043,2029,2041,1966,2085,2065,2076
2053,2038,2042,2032,1982,2073,2080,2081
2047,2033,2041,2023,2026,2076,2063,2074
2038,2029,2045,2044,2081,2092,2057,2076
2039,2046,2063,2067,2105,2111,2063,2072
2053,2057,2070,2073,2092,2107,2062,2080
2064,2057,2068,2065,2072,2089,2060,2082
2070,2051,2065,2057,2030,2065,2062,2076
2058,2044,2059,2038,2006,2044,2056,2063
2050,2031,2041,2032,2014,2046,2046,2051
2051,2027,2032,2028,2035,2044,2045,2046
2054,2037,2047,2025,2038,2050,2050,2048
2056,2042,2057,2035,2072,2040,2039,2050
2067,2057,2097,2040,2062,2041,2040,2048
2072,2077,2108,2036,1983,2052,2031,2045
2072,2080,2100,2012,1886,2060,2041,2046
2070,2070,2071,1979,1766,2051,2046,2047
2061,2060,2054,1974,1824,2044,2037,2053
2052,2056,2048,1979,1869,1979,2036,2057
2047,2049,2056,2017,1967,1976,2048,2053
2046,2055,2072,2073,2135,2016,2067,2065
2060,2061,2098,2126,2303,2070,2078,2067
2057,2063,2102,2145,2319,2096,2084,2054
2046,2053,2085,2134,2292,2090,2072,2050
2045,2042,2072,2113,2297,2062,2071,2063
2055,2051,2065,2101,2266,2051,2052,2069
2063,2058,2062,2102,2223,2075,2057,2053
2051,2058,2068,2087,2075,2091,2072,2054
2056,2061,2059,2057,1954,2066,2064,2051
2049,2052,2030,1983,1763,2030,2026,2054
2044,2036,2016,1953,1740,2024,2036,2058
2048,2043,2037,2021,1996,2074,2069,2070
2061,2057,2045,2073,2122,2133,2081,2072
2054,2053,2046,2098,2125,2161,2070,2066
2049,2044,2037,2068,2076,2132,2052,2056
2033,2019,2023,2036,2014,2085,2028,2055
2036,2029,2029,2036,1991,2070,2033,2061
2048,2048,2040,2043,1991,2084,2040,2062
2052,2050,2033,2038,1995,2074,2020,2061
2051,2048,2033,2042,1992,2029,2030,2062
2060,2045,2040,2053,2077,2010,2042,2055
2056,2036,2037,2066,2149,2036,2055,2053
2053,2046,2047,2071,2117,2048,2050,2045
2049,2049,2053,2063,2079,2036,2038,2032
2043,2045,2037,2052,2042,2015,2050,2029
2035,2045,2044,2057,2080,2014,2042,2027
2040,2052,2042,2055,2115,2023,2026,2023
2038,2043,2023,2025,2065,2017,2022,2035
2042,2036,2019,2015,2016,2029,2049,2030
2037,2033,2025,2013,2007,2038,2033,2028
2035,2037,2043,2015,2006,2032,2008,2024
2036,2035,2043,2001,1983,2034,2018,2032
2032,2040,2048,1979,1974,2027,2042,2035
2035,2045,2059,1989,2004,2043,2035,2028
2042,2045,2075,2018,2036,2073,2069,2049
2061,2062,2094,2049,2060,2071,2064,2061
2064,2067,2088,2051,2056,2056,2055,2062
2060,2063,2074,2061,2045,2056,2052,2064
2057,2056,2071,2064,2047,2059,2056,2062
2060,2058,2057,2061,2050,2059,2070,2067
2060,2054,2036,2047,2040,2044,2055,2077
2060,2052,2039,2039,2001,2038,2054,2066
2054,2059,2040,2027,1978,2047,2070,2058
2044,2053,2046,2040,1997,2045,2051,2055
2043,2046,2031,2013,1882,2027,2053,2060
2039,2044,2031,2009,1895,2031,2036,2061
2035,2050,2033,2029,1956,2024,2030,2045
2024,2034,2034,2029,1956,2014,2049,2051
2034,2044,2042,2016,1948,2013,2053,2049
2049,2054,2039,2020,1968,2026,2041,2059
2045,2052,2021,2035,2056,2049,2054,2053
2050,2044,2027,2073,2177,2076,2040,2037
2041,2038,2034,2103,2213,2102,2044,2032
2041,2041,2032,2111,2189,2107,2042,2035
2046,2046,2042,2113,2148,2110,2054,2038
2053,2048,2051,2116,2167,2111,2070,2033
2054,2059,2054,2113,2174,2099,2071,2040
2052,2047,2052,2099,2132,2082,2072,2035
2050,2046,2042,2094,2084,2069,2062,2034
2050,2045,2049,2108,2076,2071,2094,2038
2056,2053,2059,2110,2073,2089,2074,2041
2053,2054,2060,2077,1993,2055,2065,2036
2043,2042,2050,2037,1874,2023,2049,2026
2029,2022,2041,1999,1794,1994,2026,2021
2039,2024,2045,2011,1880,2008,2044,2030
2045,2035,2067,2041,2034,2039,2052,2033
2041,2030,2062,2078,2133,2068,2064,2036
2048,2043,2062,2078,2156,2085,2061,2038
2049,2034,2047,2032,2097,2053,2047,2030
2045,2025,2035,1979,1982,2026,2039,2033
2036,2022,2031,1970,1995,2009,2048,2041
2043,2029,2027,1983,2084,2024,2051,2050
2037,2044,2036,2004,2132,2031,2052,2042
2036,2046,2051,2013,2100,2032,2058,2052
2051,2044,2053,2005,2074,2032,2046,2056
2052,2032,2042,1982,1979,2002,2040,2059
2049,2033,2036,1974,1960,2003,2044,2058
2040,2032,2036,1979,1964,2003,2036,2047
2046,2038,2037,1968,1957,2006,2041,2042
2041,2038,2040,1976,1989,2014,2024,2040
2045,2054,2064,2018,2040,2025,2040,2055
2051,2073,2084,2042,2062,2030,2054,2053
2055,2056,2063,2023,2042,2035,2053,2070
2064,2062,2052,2016,2019,2031,2057,2069
2063,2070,2063,2032,2055,2039,2047,2061
2053,2070,2066,2048,2097,2058,2054,2056
2056,2062,2070,2063,2134,2067,2041,2056
2057,2058,2063,2066,2139,2070,2049,2049
2055,2059,2064,2062,2115,2071,2058,2045
2058,2060,2066,2067,2101,2067,2045,2042
2053,2054,2063,2072,2111,2083,2063,2046
2053,2052,2062,2073,2087,2095,2043,2040
2057,2050,2059,2045,1909,2086,2049,2032
2050,2046,2048,2014,1786,2081,2048,2021
2054,2044,2049,2018,1806,2058,2025,2026
2044,2030,2036,1993,1759,2007,2002,2036
2050,2031,2039,2008,1861,1999,2018,2045
2058,2033,2044,2037,1982,2036,2013,2052
2053,2034,2042,2050,1996,2046,2038,2058
2070,2046,2052,2043,1994,2085,2041,2048
2081,2054,2053,2034,2016,2101,2041,2042
2070,2048,2070,2056,2092,2100,2033,2049
2067,2054,2079,2083,2156,2064,2059,2051
2052,2055,2076,2089,2173,2043,2049,2051
2034,2053,2078,2079,2145,2048,2052,2044
2032,2046,2061,2069,2113,2047,2052,2039
2033,2036,2057,2079,2163,2067,2062,2044
2034,2039,2055,2084,2184,2068,2068,2059
2060,2047,2061,2062,2104,2051,2035,2059
2057,2035,2040,2042,2084,2034,2038,2059
2046,2018,2028,2042,2096,2044,2031,2054
2045,2015,2034,2039,2135,2055,2026,2053
2045,2018,2028,2040,2148,2065,2027,2058
2042,2028,2035,2051,2147,2077,2030,2052
2049,2043,2036,2060,2132,2072,2053,2044
2045,2044,2033,2061,2108,2062,2052,2047
2049,2044,2024,2053,2096,2043,2032,2047
2037,2028,2007,2039,2078,2037,2018,2045
2038,2020,2000,2030,2065,2043,2008,2037
2035,2036,2023,2035,2056,2037,2027,2027
2042,2038,2036,2039,2044,2039,2042,2028
2045,2056,2044,2056,2096,2065,2036,2036
2049,2062,2045,2067,2122,2065,2016,2043
2056,2057,2044,2083,2162,2039,2024,2043
2055,2056,2039,2088,2176,2041,2034,2046
2056,2046,2035,2094,2187,2053,2043,2049
2069,2039,2031,2094,2197,2060,2047,2048
2063,2030,2018,2086,2167,2052,2039,2034
2056,2021,2019,2075,2122,2042,2023,2029
2046,2029,2034,2095,2084,2036,2024,2037
2052,2040,2058,2106,2038,2034,2033,2043
2062,2046,2062,2082,1920,2034,2050,2046
2047,2042,2055,2064,1849,2042,2035,2034
2033,2041,2045,2048,1816,2031,2021,2033
2032,2035,2034,2040,1856,2017,2025,2047
2040,2036,2032,2033,1933,2022,2061,2058
2058,2056,2042,2049,1968,2047,2073,2067
2066,2072,2051,2072,2017,2067,2094,2076
2070,2074,2058,2075,2057,2062,2072,2072
2078,2073,2062,2084,2066,2053,2067,2072
2066,2069,2060,2063,2033,2038,2062,2070
2062,2073,2060,2061,2078,2037,2050,2060
2064,2068,2058,2066,2148,2053,2047,2049
2054,2055,2040,2069,2228,2082,2044,2044
2046,2049,2029,2045,2205,2063,2013,2032
2033,2030,2003,2002,2144,2053,2017,2036
2036,2028,2013,1992,2104,2044,2026,2045
2049,2040,2031,2005,2067,2012,2020,2043
2049,2033,2028,2007,2040,2007,2019,2040
2046,2036,2032,2001,2033,2011,2020,2038
2043,2044,2040,2002,2038,2017,2037,2040
2049,2053,2057,2008,1958,2021,2024,2037
2053,2053,2062,2003,1902,2013,2016,2028
2053,2049,2060,2021,1964,2022,2010,2032
2050,2056,2063,2030,1979,2030,2041,2030
2056,2053,2060,2032,1984,2035,2047,2036
2056,2058,2059,2046,2039,2052,2054,2043
2060,2064,2060,2063,2082,2083,2068,2044
2058,2063,2062,2078,2097,2097,2064,2043
2057,2049,2048,2072,2098,2099,2045,2035
2048,2033,2041,2064,2102,2088,2057,2030
2047,2026,2032,2059,2115,2066,2045,2031
2051,2031,2037,2057,2141,2070,2049,2042
2062,2044,2049,2059,2120,2068,2063,2042
2064,2047,2045,2037,2123,2047,2066,2026
2041,2036,2031,2014,2119,2015,2032,2028
2043,2032,2031,2004,2054,1998,2019,2038
2049,2030,2033,2026,2024,2024,2043,2035
2051,2036,2033,2050,2041,2047,2048,2041
2057,2047,2049,2049,1968,2048,2047,2056
2067,2045,2047,2045,1944,2044,2041,2066
2067,2047,2054,2045,1968,2052,2054,2073
2066,2053,2062,2057,1969,2064,2056,2071
2068,2060,2066,2053,1978,2060,2053,2060
2061,2058,2055,2040,1956,2065,2050,2052
2054,2049,2049,2036,1939,2061,2050,2062
2052,2049,2053,2024,1911,2047,2054,2064
2046,2052,2056,2040,1971,2038,2034,2067
2044,2055,2061,2052,2060,2056,2061,2070
2055,2057,2059,2048,2047,2048,2062,2070
2058,2052,2033,2017,1970,2002,2056,2051
2038,2035,2015,1986,1955,1984,2015,2036
2035,2031,2021,2013,2059,2024,2022,2032
2039,2036,2029,2051,2090,2045,2050,2038
2037,2032,2029,2038,2058,2043,2024,2027
2047,2037,2028,2044,2089,2053,2037,2026
2052,2042,2036,2054,2119,2047,2031,2024
2052,2043,2035,2046,2066,2033,2014,2020
2044,2038,2027,2022,1991,2041,2022,2024
2052,2033,2018,2025,2018,2061,2009,2026
2057,2040,2018,2056,2101,2088,2045,2024
2055,2033,2030,2066,2145,2065,2041,2028
2051,2037,2035,2059,2122,2036,2060,2032
2049,2034,2038,2053,2099,2035,2042,2021
2049,2034,2038,2048,2070,2045,2051,2031
2046,2040,2045,2047,2067,2055,2055,2037
2048,2046,2053,2049,2055,2051,2043,2030
2045,2042,2044,2040,2034,2038,2054,2022
2034,2037,2038,2045,2030,2056,2053,2026
2037,2040,2036,2042,2033,2068,2053,2038
2046,2043,2044,2051,2033,2086,2032,2036
2044,2046,2036,2045,2036,2094,2041,2036
2046,2039,2029,2033,2031,2084,2014,2020
2033,2029,2025,2030,2030,2057,2014,2023
2038,2025,2032,2039,2051,2022,2018,2037
2045,2035,2041,2065,2071,2025,2058,2055
2040,2034,2044,2068,2071,2040,2067,2061
2048,2038,2047,2062,2059,2051,2062,2054
2036,2036,2042,2055,2029,2062,2037,2055
2035,2034,2046,2051,2024,2062,2037,2054
2035,2032,2044,2040,2026,2054,2036,2054
2040,2027,2045,2037,2010,2057,2041,2061
2046,2031,2041,2041,1993,2056,2049,2054
2043,2031,2038,2038,1948,2050,2047,2060
2050,2034,2039,2037,1998,2069,2040,2047
2049,2039,2043,2060,2131,2095,2052,2044
2065,2051,2053,2076,2183,2111,2036,2042
2063,2057,2048,2076,2176,2101,2053,2038
2062,2043,2044,2093,2154,2114,2058,2031
2057,2043,2040,2082,2116,2124,2058,2026
2058,2035,2031,2064,2034,2103,2065,2026
2047,2030,2021,2028,1931,2068,2030,2022
2045,2023,2019,2021,1919,2013,2017,2025
2058,2043,2064,2053,1979,1983,2034,2042
2067,2066,2081,2070,1986,1998,2035,2046
2058,2069,2082,2064,2009,2039,2040,2041
2046,2060,2057,2045,2014,2030,2040,2035
2044,2048,2053,2060,2088,2029,2032,2042
2043,2060,2058,2063,2047,2030,2039,2036
2050,2061,2060,2041,1996,2036,2027,2044
2056,2059,2063,2053,2062,2046,2036,2038
2060,2053,2052,2030,2036,2025,2015,2028
2044,2031,2040,2024,2129,2040,1998,2029
2044,2037,2038,2055,2209,2063,2036,2037
2044,2046,2053,2063,2141,2048,2038,2045
2053,2050,2055,2050,2064,2023,2045,2042
2048,2041,2039,2018,1993,1998,2008,2036
2039,2026,2027,2007,2061,2027,2027,2039
2037,2034,2032,2030,2174,2052,2041,2052
2044,2041,2046,2049,2177,2054,2043,2060
2052,2052,2063,2056,2133,2058,2052,2068
2056,2056,2065,2060,2120,2067,2037,2057
2046,2048,2049,2053,2113,2060,2029,2049
2047,2040,2038,2050,2100,2057,2025,2055
2051,2047,2040,2057,2102,2056,2044,2047
2043,2042,2043,2046,2076,2052,2027,2043
2038,2042,2027,2025,1953,2036,2039,2039
2036,2033,2031,2020,1946,2053,2045,2032
2040,2034,2026,2015,1997,2054,2048,2030
2032,2026,2022,2013,2019,2048,2032,2030
2034,2030,2035,2026,2042,2052,2047,2022
2044,2055,2045,2030,2056,2057,2045,2023
2054,2058,2046,2030,2061,2061,2042,2032
2049,2047,2041,2025,2056,2058,2057,2033
2039,2043,2040,2033,2063,2061,2047,2037
2040,2048,2050,2048,2061,2066,2043,2030
2049,2044,2050,2054,2057,2060,2049,2026
2042,2035,2039,2060,2050,2056,2036,2033
2035,2017,2028,2051,2032,2040,2030,2026
2030,2013,2021,2049,2033,2034,2033,2026
2041,2022,2025,2056,2058,2047,2045,2035
2039,2030,2034,2063,2046,2046,2041,2034
2042,2037,2043,2068,2042,2046,2040,2035
2042,2045,2042,2072,2041,2060,2052,2030
2042,2051,2043,2065,2023,2074,2063,2034
2046,2045,2028,2047,2001,2069,2050,2042
2041,2035,2013,2035,1997,2066,2040,2040
2043,2032,2006,2026,2013,2064,2042,2047
2046,2042,2010,2022,2044,2027,2044,2052
2044,2037,2021,2024,2097,2019,2046,2054
2051,2047,2035,2028,2154,2059,2066,2059
2050,2048,2058,2026,2156,2081,2047,2057
2049,2056,2074,2032,2120,2086,2053,2056
2051,2063,2081,2027,2078,2056,2040,2054
2040,2043,2062,2021,2017,1996,2016,2050
2030,2033,2060,2032,1987,1996,2018,2058
2044,2046,2075,2061,1972,2036,2028,2067
2051,2060,2072,2075,2013,2055,2043,2058
2045,2053,2064,2077,2038,2061,2041,2043
2039,2049,2061,2079,2066,2063,2046,2042
2041,2046,2058,2093,2096,2083,2041,2041
2050,2045,2056,2086,2068,2084,2036,2042
2048,2042,2046,2070,2053,2075,2046,2044
2045,2046,2039,2050,2064,2048,2036,2040
2050,2038,2044,2037,2024,2013,2034,2029
2038,2029,2037,2023,1982,2004,2035,2022
2038,2034,2046,2019,1999,2025,2026,2021
2044,2046,2048,2022,2036,2042,2026,2018
2049,2049,2049,2026,2053,2044,2017,2024
2043,2042,2043,2027,2059,2051,2029,2023
2039,2042,2029,2021,2063,2051,2026,2018
2038,2030,2009,2012,2033,2044,2011,2020
2036,2026,2006,2009,2016,2046,2029,2028
2040,2032,2015,2016,2009,2047,2039,2029
2045,2055,2045,2031,2030,2057,2051,2031
2048,2052,2046,2034,2060,2057,2046,2033
2050,2046,2053,2038,2081,2065,2043,2032
2054,2047,2050,2047,2105,2068,2039,2030
2044,2045,2042,2053,2100,2069,2047,2029
2037,2042,2044,2051,2088,2064,2040,2026
2040,2045,2048,2052,2089,2071,2040,2026
2038,2038,2049,2052,2097,2072,2041,2029
2034,2021,2040,2048,2093,2067,2039,2033
2023,2025,2045,2057,2086,2063,2038,2049
2038,2033,2042,2057,2087,2054,2048,2048
2044,2042,2041,2058,2082,2056,2048,2050
2050,2041,2038,2062,2074,2053,2044,2054
2051,2034,2018,2049,2063,2041,2036,2049
2038,2036,2018,2046,2049,2025,2038,2052
2049,2051,2023,2060,2034,2032,2048,2042
2051,2044,2017,2055,2039,2040,2023,2043
2049,2045,2015,2053,2032,2036,2032,2038
2041,2044,2016,2049,2030,2026,2024,2022
2045,2036,2009,2040,2030,2030,2020,2031
2043,2021,2002,2020,2028,2026,2015,2026
2035,2013,2009,2009,2024,2027,2020,2027
2036,2016,2021,2001,2015,2027,2021,2028
2042,2034,2046,2007,2018,2028,2025,2027
2052,2058,2083,2018,2031,2033,2024,2025
2050,2085,2128,2046,2052,2042,2035,2026
2047,2086,2141,2054,2059,2049,2028,2028
2053,2073,2131,2057,2061,2042,2045,2030
2054,2070,2114,2056,2054,2050,2049,2030
2059,2065,2095,2046,2045,2050,2051,2030
2049,2054,2076,2043,2048,2032,2043,2026
2043,2043,2060,2043,2048,2033,2042,2029
2049,2049,2055,2041,2044,2036,2034,2033
2046,2043,2056,2037,2045,2051,2044,2029
2039,2045,2065,2043,2049,2069,2056,2020
2046,2055,2077,2050,2057,2073,2066,2032
2054,2055,2066,2048,2060,2080,2045,2034
2055,2051,2062,2048,2057,2081,2056,2041
2047,2053,2060,2051,2089,2084,2053,2042
2054,2057,2054,2054,2116,2084,2056,2048
2051,2048,2058,2053,2116,2085,2053,2055
2054,2048,2050,2038,2105,2080,2071,2050
2046,2037,2047,2046,2120,2083,2063,2044
2043,2034,2045,2058,2150,2092,2062,2037
2050,2037,2046,2057,2142,2091,2068,2038
2047,2046,2047,2065,2150,2098,2060,2050
2042,2035,2043,2039,2032,2057,2043,2039
2028,2023,2031,2004,1882,2024,2031,2024
2027,2026,2033,2014,1934,2030,2012,2028
2036,2023,2038,2035,2008,2046,2025,2030
2035,2023,2039,2050,2095,2061,2033,2028
2033,2033,2034,2052,2096,2054,2023,2021
2028,2030,2030,2034,2038,2035,2037,2022
2034,2036,2029,2025,2022,2014,2027,2024
2044,2031,2025,2033,2028,2008,2033,2019
2046,2029,2025,2038,2033,2016,2035,2016
2035,2022,2027,2035,2019,2016,2028,2003
2033,2025,2030,2036,2024,2026,2029,2004
2039,2040,2049,2045,2033,2040,2041,2012
2051,2044,2051,2041,2043,2043,2044,2015
2054,2046,2044,2039,2039,2042,2045,2017
2055,2049,2035,2034,2039,2038,2041,2020
2053,2043,2028,2037,2042,2044,2028,2013
2049,2042,2032,2038,2045,2040,2038,2011
2051,2048,2039,2041,2048,2030,2049,2016
2057,2041,2038,2043,2051,2035,2060,2023
2054,2036,2031,2036,2043,2023,2049,2017
2052,2036,2025,2032,2043,2025,2044,2023
2052,2036,2026,2027,2051,2035,2057,2026
2046,2033,2033,2030,2054,2038,2060,2021
2050,2027,2038,2028,2050,2035,2042,2025
2044,2015,2032,2027,2046,2041,2054,2033
2039,2023,2042,2030,2052,2050,2041,2038
2046,2030,2055,2035,2056,2059,2060,2038
2056,2038,2059,2044,2065,2065,2033,2040
2057,2039,2054,2050,2070,2064,2056,2039
2050,2031,2049,2047,2065,2069,2076,2046
2051,2031,2048,2041,2068,2080,2080,2047
2040,2028,2050,2037,2055,2090,2057,2043
2034,2037,2063,2041,2045,2094,2059,2034
2026,2054,2076,2046,2050,2082,2051,2033
2032,2062,2073,2050,2055,2061,2030,2041
2044,2069,2081,2055,2050,2051,2050,2034
2047,2062,2071,2048,2038,2043,2022,2036
2044,2052,2048,2038,2028,2045,2025,2034
2037,2052,2045,2042,2020,2043,2030,2026
2042,2050,2050,2044,2033,2040,2017,2020
2039,2050,2048,2044,2033,2046,2028,2027
2044,2057,2058,2043,2036,2054,2049,2035
2051,2064,2061,2051,2028,2044,2044,2034
2059,2065,2063,2049,2018,2043,2051,2032
2055,2066,2061,2045,2021,2047,2056,2026
2058,2057,2059,2043,2024,2053,2047,2031
2053,2061,2059,2048,2034,2059,2054,2039
2052,2056,2063,2058,2056,2069,2066,2040
2053,2057,2061,2060,2077,2070,2063,2030
2050,2054,2057,2049,2054,2063,2025,2027
2045,2045,2054,2030,2006,2054,2035,2024
2044,2049,2056,2033,2014,2064,2044,2022
2051,2054,2063,2040,2080,2073,2035,2009
2043,2043,2055,2044,2102,2078,2053,2021
2040,2043,2058,2049,2085,2072,2054,2029
2039,2044,2052,2055,2067,2064,2047,2028
2029,2048,2058,2060,2058,2050,2034,2015
2031,2054,2063,2060,2057,2043,2046,2020
2026,2043,2062,2068,2046,2033,2019,2021
2033,2043,2070,2069,2035,2024,2015,2019
2033,2038,2062,2064,2022,2021,2016,2021
2032,2032,2060,2057,2020,2019,2038,2025
2031,2030,2057,2060,2052,2033,2041,2024
2028,2031,2058,2068,2070,2040,2038,2038
2032,2023,2056,2066,2053,2046,2046,2034
2035,2027,2049,2064,2050,2050,2057,2042
2038,2025,2052,2060,2046,2055,2031,2045
2036,2018,2047,2059,2047,2056,2051,2041
2037,2025,2045,2060,2060,2062,2052,2037
2037,2040,2047,2061,2052,2060,2052,2026
2039,2043,2039,2058,2055,2056,2020,2034
2042,2039,2027,2044,2048,2055,2028,2037
2041,2032,2013,2026,2037,2050,2049,2035
2052,2037,2012,2013,2038,2043,2050,2033
2060,2052,2034,2023,2051,2050,2045,2029
2056,2061,2056,2033,2057,2053,2063,2019
2049,2055,2051,2026,2048,2058,2042,2017
2043,2046,2030,2007,2027,2051,2041,2022
2040,2043,2022,2000,2022,2045,2041,2026
2049,2054,2041,2017,2022,2052,2052,2031
2049,2063,2073,2046,2041,2059,2032,2028
2057,2066,2091,2062,2052,2056,2057,2026
2053,2061,2095,2061,2063,2061,2040,2029
2050,2053,2080,2059,2061,2053,2041,2028
2041,2040,2073,2054,2067,2058,2048,2024
2049,2045,2074,2068,2090,2084,2066,2035
2051,2056,2066,2074,2113,2098,2078,2044
2054,2051,2064,2060,2083,2080,2054,2035
2054,2051,2050,2038,1990,2054,2049,2031
2050,2044,2042,2013,1965,2039,2034,2036
2048,2036,2030,2016,2026,2042,2047,2035
2050,2035,2017,2017,2044,2044,2045,2039
2053,2029,2006,2026,2060,2062,2055,2041
2048,2032,2012,2039,2054,2069,2064,2045
2055,2033,2026,2044,2061,2068,2064,2049
2047,2033,2030,2056,2086,2076,2065,2052
2049,2031,2034,2067,2098,2074,2049,2056
2044,2026,2034,2052,2114,2065,2064,2053
2044,2026,2017,2038,2085,2048,2049,2050
2039,2028,2008,2031,2032,2045,2036,2046
2040,2013,2000,2026,1998,2062,2036,2037
2035,2016,1992,2026,2002,2087,2039,2042
2049,2032,1996,2044,2018,2082,2032,2040
2051,2027,1987,2045,2021,2038,2029,2035
2052,2031,1986,2050,2027,2000,2038,2038
2052,2036,1998,2057,2043,1985,2044,2039
2048,2024,2008,2053,2050,2008,2037,2034
2041,2030,2018,2046,2043,2016,2046,2025
2044,2027,2034,2037,2035,2017,2018,2020
2036,2028,2031,2027,2026,2016,2028,2021
2039,2033,2042,2011,2018,2021,2040,2027
2041,2036,2058,2004,2019,2017,2032,2026
2049,2053,2085,2012,2015,2017,2044,2027
2050,2064,2110,2020,2008,2009,2035,2026
2054,2063,2117,2018,1997,2005,2041,2026
2054,2065,2105,2020,2002,2016,2057,2033
2056,2060,2079,2016,2001,2014,2042,2022
2047,2040,2065,2022,2029,2036,2036,2030
2049,2047,2078,2050,2071,2063,2070,2040
2063,2064,2090,2058,2110,2072,2054,2044
2058,2062,2098,2066,2116,2081,2066,2042
2058,2069,2099,2066,2110,2075,2064,2038
2048,2068,2090,2058,2082,2054,2056,2042
2055,2061,2086,2050,2061,2049,2055,2045
2057,2061,2082,2048,2076,2051,2037,2045
2045,2061,2074,2055,2104,2050,2038,2040
2056,2056,2076,2058,2115,2058,2065,2043
2056,2056,2078,2054,2111,2058,2060,2047
2050,2055,2077,2049,2101,2047,2047,2052
2042,2050,2071,2045,2080,2046,2029,2048
2043,2045,2064,2039,2066,2039,2029,2043
2042,2045,2062,2043,2032,2040,2018,2053
2042,2052,2065,2038,1913,2024,2039,2059
2037,2042,2053,2025,1889,2017,2030,2056
2035,2035,2050,2035,1925,2020,2048,2056
2042,2050,2058,2041,1967,2035,2044,2051
2041,2047,2062,2053,2010,2043,2038,2049
2043,2052,2054,2058,2031,2049,2017,2047
2044,2051,2052,2060,2023,2054,2038,2041
2042,2043,2052,2063,2043,2047,2051,2043
2042,2038,2055,2051,2057,2046,2040,2039
2039,2042,2052,2054,2058,2066,2048,2035
2045,2045,2054,2059,2065,2085,2060,2031
2043,2044,2046,2057,2054,2086,2046,2028
2043,2035,2045,2055,2059,2079,2063,2022
2038,2035,2041,2048,2065,2067,2034,2025
2034,2036,2042,2051,2042,2023,2039,2034
2047,2046,2061,2050,2051,2024,2061,2035
2043,2057,2079,2071,2056,2039,2066,2033
2047,2056,2074,2068,2026,2043,2044,2031
2043,2045,2065,2054,1999,2038,2048,2030
2047,2046,2058,2050,1975,2023,2043,2038
2055,2048,2050,2033,1962,2023,2044,2032
2055,2049,2051,2018,1991,2037,2052,2031
2056,2053,2058,2031,2069,2074,2052,2039
2053,2050,2053,2056,2087,2084,2033,2044
2057,2054,2054,2074,2098,2069,2034,2047
2065,2053,2055,2084,2120,2050,2034,2052
2067,2049,2052,2089,2176,2061,2031,2044
2059,2043,2050,2092,2183,2066,2050,2041
2048,2044,2050,2090,2164,2065,2067,2044
2045,2040,2042,2064,2060,2047,2054,2044
2049,2040,2031,2040,1992,2037,2056,2051
2046,2038,2024,2036,1953,2035,2050,2046
2041,2033,2022,2026,1964,2011,2053,2061
2040,2039,2020,2012,1946,1988,2038,2041
2042,2044,2029,1996,1903,1993,2047,2036
2037,2032,2032,2013,1989,2021,2054,2047
2040,2033,2041,2029,2040,2057,2049,2060
2041,2047,2053,2049,2101,2077,2063,2054
2040,2041,2059,2030,2086,2047,2043,2040
2035,2040,2054,2011,2047,2019,2032,2028
2030,2038,2051,2017,2083,2023,2037,2029
2031,2038,2051,2035,2128,2046,2036,2027
2035,2043,2056,2039,2114,2048,2017,2025
2038,2043,2058,2036,2096,2048,2047,2028
2039,2036,2046,2029,2062,2045,2036,2026
2041,2032,2040,2024,2055,2046,2046,2032
2041,2043,2048,2029,2050,2049,2036,2034
2042,2058,2050,2036,2054,2056,2056,2042
2049,2063,2055,2044,2046,2054,2059,2042
2049,2056,2047,2038,2046,2060,2064,2040
2055,2054,2034,2032,2050,2064,2060,2032
2052,2039,2017,2032,2046,2056,2059,2025
2042,2027,2018,2036,2061,2062,2051,2024
2044,2023,2027,2044,2072,2071,2039,2020
2039,2040,2033,2050,2061,2063,2060,2022
2041,2051,2041,2047,2036,2065,2056,2023
2044,2057,2042,2064,2088,2073,2063,2030
2049,2051,2035,2069,2150,2083,2041,2032
2045,2046,2033,2070,2156,2078,2034,2038
2051,2046,2035,2073,2157,2076,2064,2041
2049,2059,2041,2062,2134,2062,2036,2040
2054,2054,2041,2042,2041,2040,2028,2047
2045,2055,2048,2040,2018,2020,2029,2045
2054,2053,2054,2037,2026,2010,2028,2053
2043,2043,2047,2016,1972,1993,2034,2047
2039,2044,2049,1999,1984,1998,2035,2042
2039,2045,2057,2023,2066,2013,2031,2037
2034,2044,2064,2036,2064,2014,2029,2035
2027,2051,2077,2026,2004,1996,2037,2040
2033,2063,2080,2027,1992,2012,2044,2049
2054,2071,2086,2036,2013,2026,2048,2051
2053,2067,2082,2037,2030,2024,2052,2049
2050,2054,2068,2038,2034,2034,2047,2046
2048,2050,2061,2041,2053,2045,2052,2045
2043,2063,2073,2057,2056,2052,2084,2050
2053,2068,2071,2061,2057,2053,2059,2040
2057,2068,2072,2055,2040,2059,2072,2033
2052,2061,2063,2040,2038,2067,2066,2028
2053,2058,2061,2045,1995,2068,2047,2034
2056,2061,2068,2048,2017,2074,2060,2033
2055,2053,2069,2050,2035,2072,2068,2038
2054,2054,2060,2051,2034,2063,2056,2035
2056,2052,2062,2061,2039,2059,2041,2035
2056,2056,2066,2056,2034,2066,2043,2036
2058,2056,2060,2051,2047,2067,2037,2026
2048,2044,2051,2045,2055,2067,2043,2021
2041,2036,2043,2034,2034,2059,2050,2024
2052,2048,2054,2042,2066,2071,2057,2040
2050,2053,2059,2049,2108,2077,2070,2042
2050,2053,2054,2060,2169,2074,2059,2045
2050,2052,2054,2067,2169,2078,2056,2049
2052,2052,2052,2071,2196,2072,2046,2046
2048,2051,2055,2051,2163,2050,2038,2047
2045,2049,2047,2024,2008,2024,2032,2041
2046,2045,2043,2006,1914,2009,2034,2040
2044,2038,2049,2018,1960,2006,2045,2045
2045,2045,2045,2028,1991,2011,2042,2048
2042,2045,2039,2042,2013,2017,2046,2052
2053,2043,2050,2043,2022,2023,2020,2053
2043,2043,2046,2039,2011,2018,2020,2047
2039,2045,2042,2039,2016,2018,2027,2040
2043,2040,2040,2038,2022,2021,2021,2036
2032,2033,2035,2040,2029,2022,2024,2029
2026,2030,2035,2043,2027,2021,2032,2033
2039,2046,2034,2037,2025,2026,2025,2035
2042,2053,2035,2038,2018,2034,2019,2043
2062,2050,2040,2033,2024,2044,2057,2041
2061,2049,2035,2033,2029,2044,2042,2037
2054,2044,2032,2035,2045,2046,2049,2030
2039,2040,2026,2027,2047,2045,2039,2028
2046,2047,2036,2025,2041,2049,2026,2016
2040,2043,2038,2028,2031,2056,2046,2013
2041,2032,2039,2025,2032,2057,2049,2020
2027,2035,2040,2038,2041,2064,2045,2026
2038,2044,2053,2054,2049,2066,2068,2032
2050,2042,2074,2072,2056,2063,2065,2031
2052,2048,2084,2082,2058,2059,2032,2027
2053,2043,2079,2085,2052,2056,2026,2028
2051,2034,2068,2078,2041,2050,2022,2022
2041,2035,2064,2082,2040,2051,2039,2022
2033,2038,2058,2085,2052,2063,2056,2033
2039,2032,2051,2087,2052,2057,2054,2031
2047,2044,2053,2088,2048,2061,2065,2034
2052,2051,2048,2088,2052,2057,2061,2035
2051,2052,2038,2088,2053,2043,2053,2036
2045,2041,2028,2076,2046,2039,2044,2037
2040,2040,2018,2065,2048,2038,2056,2038
2032,2023,1995,2040,2044,2043,2044,2034
2026,2009,1982,2014,2036,2045,2051,2029
2026,2017,1979,1995,2041,2052,2040,2039
2031,2013,1982,1989,2048,2057,2046,2040
2030,2017,1993,1983,2040,2055,2034,2040
2034,2023,1999,1981,2037,2050,2052,2049
2047,2035,1997,1975,2048,2048,2036,2044
2050,2035,2009,1980,2044,2044,2029,2047
2043,2031,2017,1990,2034,2038,2022,2051
2041,2033,2045,2014,2036,2044,2031,2057
2049,2057,2069,2032,2050,2056,2057,2056
2050,2063,2075,2040,2090,2056,2050,2049
2047,2070,2079,2033,2102,2051,2043,2046
2053,2062,2070,2030,2100,2048,2057,2040
2057,2066,2078,2036,2112,2045,2052,2041
2055,2084,2096,2043,2104,2052,2057,2041
2055,2083,2100,2042,2098,2056,2061,2037
2062,2079,2101,2032,2083,2060,2044,2037
2061,2069,2094,2024,2058,2058,2058,2043
2056,2066,2087,2009,1946,2046,2052,2040
2057,2060,2074,2004,1918,2042,2041,2038
2047,2056,2071,2016,1963,2049,2055,2037
2046,2059,2063,2024,1999,2047,2039,2030
2059,2054,2065,2028,2020,2054,2052,2032
2071,2061,2059,2029,2029,2049,2032,2036
2057,2056,2050,2025,2029,2046,2040,2037
2055,2054,2053,2024,2042,2053,2052,2040
2060,2062,2059,2034,2049,2052,2049,2036
