CH1,CH2,CH3,CH4,CH5,CH6,CH7,CH8
2044,2049,2049,2061,2047,2039,2007,2018
2034,2044,2040,2058,2038,2030,2006,2009
2033,2033,2031,2054,2040,2031,2018,2014
2031,2029,2025,2057,2031,2035,2025,2020
2045,2046,2037,2078,2042,2056,2049,2031
2056,2059,2040,2082,2042,2072,2064,2028
2053,2057,2040,2073,2044,2068,2059,2032
2056,2059,2043,2075,2060,2060,2040,2038
2055,2060,2051,2072,2093,2060,2026,2039
2053,2060,2061,2070,2123,2056,2017,2047
2049,2056,2069,2076,2143,2059,2040,2049
2052,2052,2064,2072,2136,2051,2040,2051
2044,2052,2053,2053,2116,2046,2033,2055
2040,2048,2050,2054,2111,2056,2037,2065
2050,2045,2053,2061,2096,2065,2068,2071
2046,2045,2050,2064,2068,2061,2055,2068
2045,2041,2042,2048,1960,2044,2059,2073
2043,2035,2049,2047,1940,2036,2072,2075
2043,2037,2052,2046,1964,2044,2030,2070
2039,2035,2051,2047,1995,2045,2026,2065
2038,2039,2049,2055,2024,2045,2031,2073
2049,2049,2062,2072,2021,2050,2044,2068
2049,2042,2056,2079,2064,2052,2047,2060
2047,2034,2051,2076,2100,2058,2040,2056
2053,2043,2056,2083,2094,2060,2040,2053
2054,2055,2062,2076,2084,2061,2046,2051
2057,2061,2070,2067,2055,2062,2034,2041
2059,2059,2076,2065,2044,2057,2057,2039
2056,2056,2074,2060,2027,2051,2034,2034
2055,2058,2068,2042,1994,2036,2035,2034
2056,2047,2044,2018,1906,1998,2037,2024
2051,2036,2030,2005,1911,1999,2025,2021
2055,2019,2016,2013,1934,2017,2041,2029
2053,2013,2013,2026,1967,2032,2036,2031
2046,2012,2005,2035,1999,2045,2034,2023
2047,2019,2001,2041,2020,2040,2036,2004
2043,2019,2006,2022,2010,2043,2018,1989
2042,2029,2017,2022,2007,2044,2045,1999
2053,2040,2020,2022,2024,2049,2049,2010
2043,2040,2015,2040,2122,2064,2032,2013
2024,2034,2014,2066,2201,2085,2051,2030
2028,2056,2029,2073,2147,2078,2052,2045
2036,2059,2027,2060,2067,2070,2045,2042
2037,2058,2034,2064,2093,2073,2060,2046
2045,2058,2037,2076,2115,2073,2048,2051
2050,2044,2036,2063,2107,2054,2045,2048
2041,2039,2029,2041,2075,2042,2037,2059
2035,2031,2032,2036,2072,2042,2037,2061
2041,2034,2034,2029,2050,2045,2045,2073
2054,2052,2040,2023,1981,2038,2057,2087
2065,2064,2045,2017,1972,2036,2058,2080
2059,2050,2029,2012,2005,2033,2060,2071
2054,2032,2018,2011,2023,2037,2039,2064
2041,2023,2010,2022,2030,2045,2041,2070
2040,2030,2006,2032,2036,2048,2052,2076
2050,2042,2015,2044,2034,2054,2046,2074
2070,2064,2023,2051,2043,2053,2043,2061
2063,2065,2020,2056,2059,2057,2022,2050
2065,2060,2025,2058,2060,2054,2021,2048
2062,2057,2033,2049,2047,2049,2027,2037
2060,2062,2040,2054,2047,2057,2026,2037
2065,2064,2039,2057,2052,2057,2042,2030
2060,2061,2030,2058,2044,2058,2040,2024
2054,2052,2027,2049,2035,2058,2046,2032
2044,2054,2028,2041,2011,2046,2030,2025
2038,2046,2021,2034,2006,2034,2036,2031
2039,2044,2029,2030,2015,2040,2031,2030
2042,2047,2044,2036,2015,2041,2040,2030
2054,2057,2067,2034,2017,2033,2038,2025
2044,2062,2082,2034,2034,2040,2010,2026
2049,2062,2093,2044,2065,2050,2018,2027
2055,2067,2107,2054,2066,2046,2037,2024
2045,2061,2098,2052,2048,2047,2037,2022
2044,2059,2085,2057,2060,2057,2046,2021
2039,2045,2070,2058,2067,2056,2057,2031
2043,2046,2074,2064,2071,2056,2057,2034
2046,2048,2065,2065,2059,2058,2056,2043
2048,2052,2061,2066,2057,2056,2055,2056
2052,2056,2064,2064,2062,2056,2057,2053
2056,2045,2057,2065,2061,2060,2043,2066
2051,2054,2066,2069,2054,2056,2047,2066
2049,2046,2080,2075,2046,2044,2055,2068
2046,2041,2093,2067,2054,2041,2059,2070
2048,2039,2092,2076,2069,2044,2061,2071
2049,2043,2100,2089,2066,2046,2032,2068
2043,2044,2099,2094,2062,2043,2046,2062
2045,2042,2096,2093,2062,2048,2038,2057
2043,2045,2108,2101,2064,2052,2035,2061
2052,2053,2109,2105,2064,2054,2043,2058
2047,2056,2088,2098,2055,2055,2047,2045
2042,2055,2078,2103,2073,2060,2047,2048
2040,2048,2062,2110,2080,2060,2049,2045
2048,2048,2050,2102,2078,2057,2058,2044
2055,2040,2033,2094,2054,2054,2036,2044
2054,2037,2024,2089,2048,2049,2049,2043
2058,2036,2007,2075,2041,2049,2050,2041
2056,2036,2001,2074,2045,2048,2053,2030
2061,2031,1979,2051,2035,2041,2045,2021
2055,2024,1962,2030,2022,2037,2020,2024
2047,2016,1963,2028,2022,2040,2021,2022
2046,2019,1969,2027,2029,2040,2038,2019
2044,2025,1975,2031,2038,2046,2036,2011
2037,2029,1982,2027,2041,2046,2028,2014
2040,2027,1984,2018,2051,2046,2032,2012
2031,2033,1993,2015,2045,2049,2040,2020
2034,2040,2017,2034,2047,2045,2042,2025
2028,2043,2038,2044,2049,2050,2048,2033
2034,2057,2058,2054,2051,2055,2049,2033
2047,2061,2074,2067,2056,2058,2065,2037
2049,2070,2096,2080,2057,2063,2072,2045
2051,2067,2099,2073,2058,2057,2051,2046
2043,2059,2083,2058,2046,2053,2050,2040
2033,2046,2062,2045,2051,2054,2047,2045
2035,2044,2053,2036,2054,2061,2024,2056
2034,2047,2056,2044,2062,2064,2040,2049
2032,2056,2064,2046,2051,2058,2023,2064
2043,2059,2061,2042,2052,2056,2042,2070
2047,2061,2057,2045,2058,2063,2046,2082
2057,2070,2076,2046,2051,2057,2038,2074
2055,2063,2076,2051,2050,2056,2040,2071
2055,2065,2075,2057,2060,2057,2043,2069
2059,2072,2066,2063,2056,2062,2052,2071
2067,2064,2053,2052,2052,2064,2050,2067
2071,2053,2053,2049,2052,2061,2058,2062
2063,2052,2047,2051,2054,2058,2063,2056
2050,2046,2039,2059,2053,2059,2058,2047
2046,2042,2049,2057,2046,2047,2043,2040
2053,2050,2042,2065,2047,2047,2044,2044
2067,2055,2046,2078,2053,2049,2054,2036
2064,2064,2069,2089,2051,2046,2052,2032
2062,2074,2064,2092,2055,2044,2037,2031
2058,2065,2056,2092,2061,2044,2046,2028
2054,2058,2052,2093,2067,2053,2051,2024
2056,2053,2047,2096,2055,2056,2024,2021
2059,2055,2049,2099,2051,2054,2031,2021
2052,2040,2046,2088,2050,2043,2041,2023
2050,2040,2042,2087,2049,2041,2011,2030
2060,2056,2055,2088,2055,2036,2051,2032
2058,2047,2051,2080,2056,2037,2035,2029
2057,2048,2052,2080,2057,2044,2031,2036
2046,2049,2051,2065,2059,2052,2032,2036
2051,2042,2042,2043,2051,2045,2037,2035
2050,2041,2033,2024,2043,2044,2044,2046
2049,2039,2024,2016,2033,2039,2037,2048
2050,2027,2022,2010,2028,2034,2024,2052
2048,2044,2028,2010,2037,2046,2045,2067
2059,2058,2045,2022,2050,2052,2054,2078
2063,2057,2058,2033,2060,2053,2043,2084
2059,2050,2058,2040,2060,2050,2052,2076
2052,2050,2055,2045,2057,2058,2061,2076
2056,2063,2058,2048,2058,2057,2045,2074
2050,2051,2054,2045,2047,2050,2048,2062
2046,2047,2062,2039,2044,2051,2056,2069
2049,2051,2057,2039,2043,2055,2051,2056
2050,2047,2054,2042,2049,2053,2054,2062
2052,2050,2055,2044,2047,2057,2048,2062
2053,2045,2052,2049,2051,2054,2035,2066
2056,2054,2057,2055,2049,2055,2034,2048
2060,2053,2055,2047,2049,2046,2025,2038
2052,2045,2046,2044,2047,2045,2025,2035
2053,2036,2036,2044,2041,2051,2047,2032
2055,2042,2039,2058,2049,2056,2058,2026
2058,2047,2052,2072,2046,2054,2064,2030
2055,2044,2051,2078,2043,2059,2021,2027
2049,2043,2044,2074,2045,2055,2034,2020
2049,2037,2042,2074,2041,2050,2047,2019
2050,2028,2045,2068,2043,2044,2044,2014
2051,2027,2031,2064,2050,2050,2042,2015
2050,2020,2017,2065,2059,2047,2046,2014
2057,2033,2011,2070,2060,2058,2053,2020
2055,2027,1991,2070,2060,2058,2061,2023
2049,2024,1993,2068,2070,2060,2044,2029
2062,2031,1995,2059,2083,2060,2054,2038
2059,2028,1993,2070,2105,2069,2053,2034
2061,2039,1999,2062,2109,2071,2064,2025
2054,2040,1995,2051,2100,2068,2055,2031
2041,2033,1987,2039,2081,2072,2058,2040
2040,2031,1987,2024,2073,2073,2078,2047
2039,2029,1990,2016,2064,2063,2079,2045
2042,2029,1985,2016,2034,2046,2059,2051
2041,2029,1995,2007,1995,2018,2045,2054
2045,2034,2010,2010,1972,2013,2052,2056
2044,2036,2025,2020,1991,2027,2048,2060
2044,2046,2044,2042,2005,2036,2065,2064
2042,2026,2056,2046,2016,2048,2051,2056
2044,2020,2068,2050,2026,2061,2042,2050
2052,2038,2097,2063,2036,2067,2050,2045
2048,2052,2117,2075,2053,2067,2058,2044
2053,2056,2116,2078,2055,2075,2047,2047
2059,2057,2110,2082,2055,2074,2052,2048
2056,2052,2095,2076,2060,2073,2056,2042
2050,2054,2087,2072,2063,2075,2050,2027
2045,2047,2084,2055,2055,2069,2057,2017
2040,2052,2076,2055,2049,2064,2051,2018
2040,2054,2071,2061,2064,2061,2052,2016
2040,2054,2074,2074,2089,2047,2053,2014
2054,2063,2071,2078,2142,2031,2043,2018
2043,2059,2072,2082,2168,2018,2048,2027
2051,2060,2066,2077,2164,2008,2056,2025
2049,2054,2062,2070,2164,2016,2027,2018
2038,2041,2055,2056,2160,2017,2006,2006
2033,2029,2050,2056,2139,2033,2033,2012
2042,2040,2064,2067,2141,2059,2049,2012
2050,2055,2077,2068,2104,2065,2055,2014
2048,2049,2067,2060,2054,2052,2047,2025
2047,2042,2067,2039,1898,2030,2040,2021
2046,2050,2075,2036,1809,2018,2057,2029
2048,2050,2087,2048,1875,2032,2049,2036
2048,2056,2085,2057,1947,2039,2050,2041
2045,2050,2082,2066,1979,2044,2058,2041
2045,2055,2073,2066,2000,2047,2057,2050
2042,2048,2071,2068,2015,2043,2050,2048
2047,2051,2069,2065,2019,2038,2071,2050
2044,2053,2055,2061,2029,2031,2069,2061
2042,2043,2053,2069,2043,2034,2063,2065
2042,2047,2043,2071,2063,2040,2055,2070
2046,2047,2037,2058,2045,2030,2041,2069
2041,2038,2025,2045,2043,2022,2046,2064
2044,2040,2031,2037,2029,2028,2053,2073
2060,2050,2034,2035,2024,2025,2044,2071
2055,2051,2033,2026,2023,2023,2038,2058
2059,2054,2033,2027,2024,2025,2062,2057
2056,2063,2036,2025,2022,2029,2055,2053
2057,2054,2028,2023,1999,2027,2054,2046
2054,2049,2030,2018,1965,2018,2050,2042
2052,2049,2035,2016,1940,2035,2050,2036
2044,2048,2044,2028,1975,2056,2052,2036
2053,2052,2033,2037,2011,2074,2049,2030
2054,2043,2030,2032,1989,2090,2051,2032
2057,2047,2033,2031,1987,2100,2069,2019
2054,2037,2025,2020,1963,2096,2073,2012
2055,2043,2024,2019,1949,2103,2074,2013
2052,2043,2029,2028,1952,2101,2073,2019
2048,2037,2033,2038,1963,2058,2065,2010
2047,2041,2044,2031,1963,2000,2059,2014
2048,2050,2047,2042,2025,1999,2054,2006
2037,2044,2044,2041,2037,1995,2037,2010
2035,2041,2038,2045,2037,2016,2049,2011
2032,2040,2034,2056,2086,2034,2050,2020
2048,2042,2038,2064,2102,2042,2070,2024
2050,2047,2044,2062,2092,2037,2062,2031
2048,2049,2051,2058,2068,2042,2054,2040
2050,2051,2055,2064,2072,2050,2053,2044
2053,2053,2062,2073,2095,2055,2056,2049
2056,2056,2049,2070,2114,2046,2055,2058
2054,2058,2045,2061,2104,2040,2049,2063
2057,2054,2037,2050,2083,2034,2044,2064
2051,2049,2028,2045,2061,2031,2036,2061
2049,2054,2027,2039,2073,2035,2048,2064
2046,2041,2017,2034,2080,2040,2029,2062
2045,2038,2024,2037,2081,2035,2017,2066
2047,2043,2040,2042,2093,2039,2021,2065
2055,2047,2046,2052,2098,2039,2055,2058
2053,2047,2056,2062,2086,2039,2061,2061
2056,2050,2063,2064,2083,2040,2048,2045
2058,2053,2066,2071,2085,2037,2050,2039
2046,2051,2069,2073,2086,2036,2051,2023
2041,2052,2069,2078,2068,2034,2055,2022
2041,2047,2053,2060,2006,2030,2043,2015
2039,2044,2034,2061,2001,2033,2041,2011
2046,2042,2028,2070,2022,2038,2010,2011
2036,2031,2025,2075,2041,2034,2007,1993
2028,2031,2038,2065,2048,2023,1993,1993
2031,2039,2041,2059,2048,2036,2026,2005
2040,2042,2032,2040,2032,2050,2027,2012
2045,2045,2017,2016,1995,2055,2032,2013
2046,2033,2009,2002,1983,2072,2024,2014
2048,2040,2010,2013,2013,2102,2037,2030
2058,2058,2013,2011,2016,2098,2047,2030
2063,2060,2011,2006,2008,2072,2045,2029
2052,2049,2013,2015,2002,2021,2029,2028
2051,2044,2023,2023,1997,2007,2049,2030
2052,2045,2038,2030,1995,2019,2045,2042
2056,2047,2048,2027,1994,2030,2031,2032
2050,2045,2048,2033,2017,2037,2050,2041
2053,2043,2049,2046,2078,2056,2058,2055
2061,2041,2053,2054,2099,2061,2072,2057
2068,2043,2053,2052,2088,2056,2071,2067
2072,2048,2054,2049,2068,2051,2068,2069
2070,2052,2041,2042,2054,2037,2038,2063
2060,2050,2034,2044,2040,2030,2033,2051
2058,2047,2025,2039,2040,2031,2017,2047
2046,2027,2017,2042,2053,2030,2014,2048
2039,2022,2021,2045,2057,2030,2029,2061
2043,2029,2020,2044,2044,2028,2028,2058
2036,2023,2020,2043,2038,2030,2031,2045
2023,2028,2039,2043,2042,2039,2044,2045
2036,2047,2058,2056,2054,2047,2046,2049
2051,2052,2063,2065,2046,2047,2052,2041
2054,2060,2062,2065,2039,2041,2066,2039
2058,2053,2062,2067,2036,2037,2048,2035
2044,2051,2060,2063,2046,2040,2048,2032
2056,2056,2068,2070,2046,2041,2045,2036
2058,2060,2051,2069,2048,2040,2041,2031
2055,2051,2047,2071,2044,2033,2048,2024
2048,2052,2055,2066,2050,2032,2037,2020
2043,2050,2060,2061,2053,2033,2051,2026
2045,2058,2059,2062,2066,2037,2058,2034
2049,2042,2056,2069,2074,2050,2035,2035
2049,2043,2055,2075,2085,2069,2037,2025
2054,2052,2058,2072,2072,2063,2032,2037
2059,2047,2044,2052,2061,2058,2038,2037
2047,2045,2046,2044,2037,2046,2024,2033
2042,2049,2058,2032,2019,2046,2026,2032
2038,2043,2065,2035,2021,2038,2023,2040
2039,2039,2057,2029,2028,2042,2049,2052
2043,2041,2049,2023,2036,2044,2050,2052
2051,2044,2052,2029,2050,2044,2074,2053
2052,2057,2074,2038,2050,2050,2072,2066
2063,2059,2085,2045,2046,2056,2072,2067
2062,2062,2092,2053,2053,2056,2046,2062
2048,2060,2084,2047,2046,2050,2053,2056
2046,2054,2080,2043,2035,2055,2041,2058
2038,2056,2068,2044,2046,2053,2036,2058
2035,2048,2062,2045,2048,2053,2056,2070
2037,2054,2053,2042,2042,2049,2068,2063
2043,2051,2057,2045,2017,2043,2058,2062
2049,2052,2053,2046,2017,2046,2049,2070
2051,2051,2057,2044,2032,2045,2047,2065
2057,2052,2062,2048,2053,2050,2057,2067
2055,2055,2077,2058,2064,2056,2044,2060
2060,2056,2069,2058,2054,2053,2052,2043
2049,2050,2055,2053,2042,2042,2052,2028
2038,2042,2054,2060,2043,2045,2045,2016
2033,2045,2051,2064,2043,2044,2039,2014
2041,2052,2047,2069,2050,2042,2040,2026
2044,2056,2045,2066,2046,2037,2045,2033
2040,2048,2037,2065,2043,2033,2030,2030
2053,2045,2032,2070,2059,2053,2045,2034
2061,2047,2030,2090,2063,2062,2058,2028
2063,2036,2021,2086,2071,2066,2063,2027
2050,2029,2002,2074,2071,2064,2066,2030
2057,2024,1980,2073,2064,2061,2045,2024
2054,2021,1964,2069,2058,2060,2058,2016
2042,2010,1949,2060,2058,2056,2046,2015
2039,2000,1949,2059,2064,2056,2048,2026
2035,2005,1949,2058,2075,2058,2051,2030
2042,2020,1956,2058,2072,2061,2068,2042
2045,2036,1979,2073,2068,2068,2060,2046
2054,2044,1994,2085,2084,2070,2061,2052
2052,2047,2004,2086,2081,2070,2055,2051
2049,2035,2004,2076,2070,2065,2049,2052
2039,2027,1990,2052,2036,2049,2032,2055
2029,2013,1993,2021,2012,2026,2014,2053
2024,2021,2039,2003,1986,2005,2026,2046
2029,2053,2113,2022,1988,2003,2015,2048
2032,2060,2144,2021,1998,2008,2026,2063
2038,2062,2147,2016,2006,2022,2036,2071
2051,2061,2133,2003,2014,2036,2054,2067
2058,2082,2140,2013,2024,2048,2044,2064
2059,2088,2146,2028,2039,2059,2054,2063
2061,2084,2133,2026,2041,2062,2057,2060
2064,2078,2119,2034,2037,2056,2064,2057
2065,2076,2113,2040,2035,2052,2064,2050
2069,2067,2101,2040,2040,2050,2048,2044
2064,2060,2093,2034,2034,2046,2062,2039
2062,2067,2091,2038,2032,2043,2051,2035
2063,2069,2087,2039,2027,2047,2047,2029
2054,2064,2081,2030,2020,2044,2048,2025
2056,2067,2076,2027,2027,2039,2047,2021
2056,2061,2066,2024,2029,2040,2066,2027
2047,2057,2060,2019,2026,2044,2064,2030
2044,2045,2047,2008,2023,2037,2052,2020
2050,2042,2044,2009,2037,2036,2043,2022
2053,2057,2051,2024,2051,2050,2060,2030
2058,2057,2059,2031,2054,2044,2047,2029
2051,2058,2064,2041,2057,2052,2041,2027
2051,2056,2073,2051,2066,2051,2046,2029
2049,2053,2078,2064,2060,2051,2039,2037
2053,2055,2079,2066,2058,2049,2031,2043
2053,2055,2077,2060,2053,2042,2036,2046
2053,2059,2068,2056,2044,2047,2028,2053
2052,2053,2063,2056,2050,2052,2041,2054
2050,2049,2061,2053,2057,2049,2045,2056
2047,2050,2051,2059,2062,2056,2052,2068
2055,2052,2060,2064,2061,2064,2049,2069
2056,2051,2057,2061,2063,2054,2041,2070
2049,2052,2046,2063,2056,2057,2055,2063
2045,2046,2036,2042,2036,2046,2037,2054
2033,2034,2028,2026,2043,2042,2032,2057
2049,2034,2029,2026,2048,2051,2055,2055
2043,2033,2034,2034,2062,2052,2049,2052
2046,2031,2022,2031,2067,2054,2053,2052
2048,2033,2016,2026,2064,2055,2071,2048
2050,2034,2017,2021,2052,2060,2061,2039
2041,2029,2022,2022,2040,2054,2044,2036
2048,2029,2035,2029,2042,2055,2058,2034
2050,2032,2041,2036,2106,2056,2058,2018
2046,2031,2040,2044,2156,2061,2060,2023
2045,2034,2034,2042,2153,2059,2064,2018
2045,2035,2023,2053,2169,2064,2052,2023
2051,2038,2024,2055,2157,2065,2056,2017
2050,2035,2032,2066,2165,2067,2049,2021
2046,2028,2033,2074,2156,2067,2073,2020
2045,2020,2033,2065,2112,2049,2058,2013
2037,2012,2027,2041,2001,2022,2046,2012
2042,2016,2037,2034,1913,2023,2051,2017
2048,2037,2049,2044,1931,2030,2071,2020
2051,2038,2055,2049,1966,2031,2030,2022
2049,2029,2048,2043,1949,2025,2038,2015
2046,2033,2052,2037,1919,2030,2041,2024
2046,2041,2068,2055,1957,2040,2047,2028
2045,2040,2075,2067,2014,2046,2040,2035
2045,2040,2075,2058,2019,2041,2034,2040
2047,2040,2067,2045,2019,2041,2058,2046
2046,2040,2064,2032,2008,2031,2055,2061
2062,2047,2058,2022,2002,2028,2071,2068
2060,2052,2057,2014,2008,2023,2063,2064
2067,2057,2071,2018,2024,2023,2067,2066
2064,2057,2066,2018,2039,2025,2066,2067
2061,2062,2065,2034,2056,2038,2055,2060
2047,2049,2070,2039,2073,2045,2054,2064
2041,2052,2074,2040,2074,2050,2051,2066
2053,2065,2077,2037,2053,2046,2049,2063
2065,2064,2070,2036,2031,2042,2062,2066
2064,2061,2065,2024,1999,2025,2050,2062
2055,2059,2056,2014,1975,2010,2022,2058
2061,2050,2052,2006,1949,2003,2024,2052
2062,2049,2055,1995,1949,1992,2048,2043
2063,2057,2058,2000,1950,1994,2063,2042
2062,2059,2056,2003,1962,2012,2064,2036
2069,2062,2069,2027,2013,2044,2060,2032
2068,2066,2077,2046,2048,2060,2053,2033
2076,2065,2076,2053,2067,2067,2060,2033
2069,2075,2078,2054,2070,2076,2060,2028
2067,2064,2070,2052,2068,2061,2066,2026
2058,2049,2061,2044,2043,2047,2049,2020
2056,2037,2047,2029,2012,2024,2024,2024
2052,2036,2049,2024,1993,2012,2025,2024
2062,2045,2052,2025,2004,2023,2029,2014
2060,2046,2051,2038,2041,2042,2040,2019
2064,2056,2062,2060,2081,2061,2059,2026
2060,2052,2058,2068,2106,2064,2059,2031
2056,2053,2053,2066,2109,2083,2067,2040
2064,2052,2046,2061,2081,2071,2048,2040
2066,2053,2026,2058,2059,2053,2049,2046
2069,2049,2019,2061,2053,2044,2049,2040
2062,2041,2024,2061,2063,2043,2028,2042
2063,2031,2023,2066,2059,2043,2029,2056
2060,2029,2025,2068,2056,2041,2026,2061
2067,2037,2039,2065,2038,2038,2024,2066
2063,2040,2045,2074,2030,2047,2030,2060
2062,2052,2051,2079,2035,2039,2022,2053
2055,2035,2041,2070,2029,2028,2032,2057
2038,2022,2029,2065,2043,2032,2031,2058
2041,2025,2023,2067,2093,2045,2036,2054
2034,2038,2030,2084,2120,2058,2047,2060
2037,2045,2040,2089,2131,2064,2057,2056
2043,2055,2058,2079,2110,2061,2054,2052
2044,2051,2054,2062,2109,2056,2066,2044
2048,2050,2053,2055,2119,2052,2056,2036
2052,2054,2059,2041,2105,2053,2069,2028
2046,2040,2038,1994,2021,2042,2049,2022
2046,2038,2029,1972,1996,2033,2048,2025
2046,2040,2029,1971,1990,2031,2048,2024
2044,2052,2038,1988,1981,2029,2024,2025
2052,2055,2063,2005,1970,2019,2041,2027
2054,2058,2066,2003,1951,2006,2032,2018
2052,2056,2076,1997,1958,2023,2046,2010
2057,2065,2091,2020,2006,2051,2045,2019
2061,2065,2103,2042,2020,2062,2060,2024
2066,2064,2102,2048,2008,2064,2062,2041
2076,2072,2105,2053,2021,2079,2076,2037
2080,2080,2104,2063,2057,2090,2071,2042
2076,2072,2089,2060,2065,2084,2080,2036
2065,2068,2082,2054,2058,2081,2073,2029
2060,2068,2076,2052,2046,2074,2062,2028
2060,2064,2065,2059,2056,2077,2055,2039
2054,2056,2064,2067,2082,2079,2072,2051
2053,2056,2061,2070,2083,2070,2081,2058
2051,2058,2062,2066,2096,2049,2077,2058
2049,2058,2057,2049,2103,2023,2063,2068
2057,2060,2046,2043,2106,2005,2061,2066
2055,2055,2047,2046,2119,2007,2054,2065
2050,2050,2047,2052,2130,2013,2046,2064
2046,2045,2026,2038,2122,2019,2048,2062
2041,2030,2002,2020,2108,2034,2029,2065
2037,2037,2013,2028,2088,2053,2050,2059
2039,2039,2023,2035,2085,2065,2047,2057
2047,2044,2032,2032,2034,2052,2036,2040
2037,2046,2033,2019,1918,2029,2052,2038
2042,2047,2047,2033,1964,2019,2049,2042
2050,2051,2049,2049,2009,2019,2057,2043
2046,2044,2042,2052,2033,2033,2044,2038
2047,2039,2039,2056,2047,2051,2049,2035
2052,2036,2041,2055,2051,2055,2054,2033
2049,2037,2038,2053,2049,2051,2058,2032
2049,2041,2050,2052,2043,2045,2037,2032
2055,2043,2055,2059,2038,2043,2041,2040
2052,2045,2052,2061,2051,2044,2061,2042
2060,2049,2049,2061,2056,2047,2075,2037
2060,2046,2045,2050,2066,2045,2054,2025
2060,2036,2055,2041,2053,2039,2053,2020
2059,2034,2060,2038,2056,2043,2070,2028
2061,2039,2061,2045,2042,2042,2065,2026
2062,2045,2047,2048,2038,2043,2068,2032
2060,2033,2035,2048,2035,2043,2054,2024
2043,2023,2021,2048,2039,2048,2052,2028
2046,2026,2016,2060,2038,2045,2039,2041
2057,2032,2019,2063,2019,2041,2035,2052
2047,2038,2009,2059,1989,2030,2023,2049
2035,2030,2004,2052,1980,2034,2051,2047
2041,2033,2004,2060,2003,2040,2074,2046
2044,2033,2002,2053,2029,2042,2055,2061
2036,2028,1997,2044,2036,2036,2049,2057
2034,2028,2014,2035,2034,2031,2019,2069
2036,2035,2036,2037,2036,2033,2035,2066
2045,2037,2041,2022,2032,2042,2057,2071
2034,2036,2046,2011,2029,2055,2058,2061
2033,2026,2056,2001,2028,2052,2054,2058
2036,2032,2077,2011,2035,2058,2060,2058
2047,2057,2117,2031,2050,2065,2059,2051
2064,2078,2145,2035,2058,2069,2073,2046
2065,2084,2133,2032,2066,2038,2072,2058
2061,2075,2116,2034,2066,2029,2071,2049
2050,2064,2095,2043,2060,2034,2060,2043
2044,2048,2078,2046,2059,2047,2059,2045
2055,2051,2071,2050,2064,2049,2054,2042
2063,2053,2067,2062,2073,2056,2062,2042
2055,2048,2056,2059,2065,2063,2060,2029
2058,2049,2056,2044,2056,2051,2071,2030
2055,2041,2044,2036,2052,2051,2058,2037
2063,2037,2043,2039,2056,2053,2067,2040
2067,2046,2048,2038,2053,2044,2063,2033
2053,2037,2039,2029,2058,2047,2063,2029
2044,2042,2036,2038,2061,2054,2060,2038
2052,2049,2047,2050,2076,2058,2047,2031
2053,2051,2044,2053,2063,2051,2043,2039
2057,2052,2037,2051,2058,2051,2058,2044
2053,2041,2036,2050,2060,2053,2062,2038
2039,2038,2041,2055,2061,2057,2046,2031
2038,2047,2041,2048,2070,2057,2042,2038
2038,2052,2042,2050,2060,2049,2047,2047
2039,2049,2054,2047,2066,2050,2064,2058
2037,2052,2066,2044,2068,2052,2055,2063
2055,2055,2078,2047,2067,2053,2024,2068
2070,2065,2082,2044,2068,2052,2037,2070
2064,2066,2066,2038,2072,2048,2027,2080
2058,2058,2056,2036,2064,2058,2030,2074
2055,2060,2051,2040,2086,2063,2053,2066
2050,2048,2046,2041,2099,2058,2055,2061
2038,2041,2053,2051,2092,2064,2052,2074
2046,2049,2056,2057,2093,2062,2057,2071
2045,2042,2055,2059,2078,2060,2050,2067
2045,2043,2062,2076,2074,2061,2047,2061
2045,2048,2066,2085,2086,2063,2053,2057
2056,2054,2065,2080,2065,2057,2069,2046
2054,2050,2064,2046,2010,2043,2067,2036
2050,2047,2058,2031,1992,2043,2063,2046
2055,2051,2059,2039,2008,2047,2063,2045
2050,2052,2054,2036,2083,2048,2059,2045
2053,2052,2049,2042,2123,2056,2048,2036
2052,2046,2037,2043,2100,2053,2052,2030
2042,2045,2038,2042,2066,2051,2040,2030
2044,2035,2036,2042,2071,2053,2020,2025
2042,2031,2033,2039,2065,2060,2017,2013
2030,2017,2017,2025,2030,2054,2042,2013
2028,2015,2007,2020,2011,2054,2037,2015
2044,2030,2004,2025,1957,2038,2054,2017
2043,2035,2006,2012,1871,2014,2047,2031
2042,2052,2031,2032,1938,2022,2047,2039
2050,2064,2055,2052,2020,2037,2060,2054
2049,2067,2056,2054,2052,2049,2064,2048
2054,2053,2045,2051,2070,2068,2033,2053
2053,2041,2035,2042,2080,2073,2032,2060
2049,2039,2035,2037,2097,2069,2077,2064
2038,2038,2056,2040,2101,2078,2076,2068
2039,2042,2064,2037,2084,2066,2071,2073
2039,2037,2070,2032,2072,2064,2059,2073
2031,2047,2070,2034,2057,2056,2056,2078
2029,2054,2066,2039,2052,2053,2047,2075
2034,2057,2070,2039,2051,2050,2067,2077
2035,2046,2063,2045,2031,2048,2070,2076
2038,2046,2068,2040,2010,2044,2060,2077
2041,2050,2074,2044,2001,2038,2053,2068
2032,2040,2057,2031,2000,2035,2050,2058
2032,2035,2052,2039,2018,2044,2039,2064
2043,2058,2064,2042,2046,2054,2054,2059
2046,2067,2062,2042,2042,2051,2078,2052
2052,2058,2052,2024,2040,2051,2055,2039
2045,2043,2041,2022,2025,2044,2069,2034
2046,2047,2044,2027,2036,2053,2065,2031
2050,2044,2047,2044,2056,2053,2047,2036
2053,2046,2046,2049,2051,2050,2039,2039
2050,2052,2046,2051,2044,2058,2070,2044
2045,2052,2049,2047,2033,2055,2030,2039
2042,2041,2048,2047,2034,2058,2039,2039
2045,2049,2057,2046,2039,2045,2043,2033
2044,2042,2059,2038,2029,2043,2040,2027
2040,2039,2041,2038,2030,2049,2037,2031
2038,2044,2038,2043,2030,2058,2046,2034
2045,2037,2035,2043,2020,2055,2050,2036
2042,2030,2016,2048,2007,2051,2060,2028
2040,2027,2008,2053,2020,2051,2039,2033
2040,2023,2008,2063,2057,2045,2036,2035
2039,2025,2014,2078,2071,2047,2030,2040
2043,2031,2029,2089,2065,2051,2042,2043
2041,2035,2039,2091,2069,2064,2058,2047
2037,2044,2049,2090,2076,2064,2057,2054
2041,2045,2055,2096,2074,2061,2065,2057
2044,2049,2070,2103,2068,2056,2056,2068
2042,2035,2076,2104,2056,2041,2057,2062
2037,2021,2073,2102,2049,2035,2045,2069
2037,2025,2080,2105,2057,2044,2040,2075
2033,2018,2067,2092,2049,2036,2034,2068
2033,2016,2061,2074,2047,2037,2034,2062
2038,2027,2062,2062,2034,2041,2047,2063
2039,2044,2090,2042,2038,2049,2038,2063
2050,2062,2106,2035,2036,2049,2040,2057
2043,2065,2096,2029,2025,2053,2027,2058
2046,2066,2090,2026,2035,2057,2026,2057
2051,2075,2083,2031,2047,2065,2039,2050
2057,2078,2078,2031,2061,2070,2060,2048
2064,2080,2074,2013,2061,2069,2042,2048
2052,2072,2056,1998,2052,2060,2047,2050
2043,2059,2043,1993,2047,2053,2052,2048
2040,2054,2049,1989,2041,2045,2060,2044
2049,2065,2041,1987,2044,2045,2052,2046
2054,2067,2042,1994,2029,2026,2045,2042
2061,2066,2052,2007,2019,2013,2050,2044
2054,2063,2052,2016,2012,2006,2040,2037
2047,2055,2052,2017,2007,2013,2050,2037
2052,2054,2060,2020,2010,2026,2053,2039
2058,2057,2056,2020,2020,2045,2058,2043
2060,2064,2057,2028,2039,2064,2066,2053
2066,2056,2061,2034,2055,2070,2069,2056
2066,2051,2050,2030,2056,2076,2069,2058
2056,2048,2045,2020,2051,2059,2068,2054
2045,2050,2040,2020,2056,2064,2051,2054
2052,2046,2036,2026,2059,2060,2060,2056
2058,2043,2032,2030,2064,2062,2031,2047
2050,2041,2029,2033,2072,2068,2054,2055
2047,2039,2031,2042,2080,2073,2078,2069
2045,2041,2037,2049,2064,2068,2075,2069
2044,2047,2042,2052,2058,2060,2061,2072
2046,2049,2051,2056,2071,2061,2057,2068
2037,2043,2041,2059,2067,2049,2036,2062
2033,2027,2032,2049,2053,2039,2052,2071
2035,2035,2029,2055,2050,2046,2045,2059
2032,2035,2022,2060,2060,2034,2037,2059
2030,2038,2023,2065,2056,2034,2014,2065
2039,2039,2028,2070,2045,2036,2023,2067
2045,2042,2031,2065,2016,2030,2034,2065
2041,2033,2016,2050,2000,2015,2009,2049
2036,2032,2016,2042,1971,2006,2011,2046
2031,2028,2011,2027,1982,2005,2026,2042
2026,2028,2017,2028,2020,2038,2037,2032
2041,2046,2043,2042,2062,2061,2057,2038
2051,2057,2066,2047,2087,2070,2033,2037
2051,2062,2063,2050,2102,2079,2058,2042
2061,2055,2053,2033,2089,2094,2053,2032
2050,2051,2042,2016,2061,2091,2044,2026
2041,2043,2041,2009,2038,2082,2046,2030
2043,2044,2047,2008,2028,2077,2030,2034
2045,2056,2064,2012,2026,2078,2047,2040
2058,2071,2076,2033,2041,2044,2058,2051
2057,2073,2076,2034,2053,2049,2057,2044
2052,2068,2066,2041,2057,2071,2050,2042
2053,2062,2061,2039,2060,2085,2051,2050
2048,2058,2059,2047,2057,2080,2048,2045
2048,2054,2054,2048,2043,2054,2057,2060
2044,2055,2051,2046,2014,2004,2054,2065
2050,2050,2046,2034,2001,1990,2040,2065
2051,2049,2048,2035,2000,2003,2021,2061
2050,2052,2041,2025,2012,2028,2042,2065
2052,2047,2048,2045,2054,2060,2051,2068
2058,2051,2060,2069,2088,2072,2045,2072
2053,2054,2070,2085,2116,2085,2058,2063
2053,2056,2071,2085,2117,2082,2042,2061
2039,2039,2055,2092,2090,2059,2034,2066
2023,2031,2051,2089,2070,2049,2029,2064
2036,2039,2059,2091,2073,2046,2032,2054
2041,2042,2059,2090,2078,2046,2029,2048
2042,2044,2053,2093,2075,2047,2032,2048
2041,2046,2044,2091,2075,2052,2044,2057
2054,2040,2033,2087,2068,2054,2034,2045
2053,2039,2025,2079,2061,2054,2049,2045
2054,2029,2002,2058,2050,2045,2032,2036
2046,2032,1987,2042,2048,2041,2022,2027
2044,2031,1994,2040,2047,2044,2036,2028
2045,2034,1995,2037,2054,2045,2023,2017
2039,2035,1991,2010,2037,2049,2037,2011
2033,2024,1991,1995,2023,2048,2041,2018
2034,2027,2004,2002,2026,2052,2044,2008
2032,2041,2034,2023,2034,2049,2036,2018
2037,2051,2041,2010,2035,2051,2045,2021
2044,2052,2032,2013,2040,2058,2052,2036
2063,2060,2044,2029,2062,2065,2062,2035
2064,2057,2057,2039,2069,2064,2042,2040
2051,2052,2056,2044,2061,2052,2038,2035
2052,2050,2065,2047,2061,2056,2049,2043
2052,2048,2065,2045,2061,2064,2049,2051
2053,2047,2054,2038,2063,2060,2052,2055
2052,2046,2051,2038,2062,2065,2072,2064
2063,2047,2043,2038,2064,2057,2068,2062
2064,2043,2037,2034,2063,2060,2060,2054
2058,2055,2037,2040,2065,2065,2038,2058
2059,2053,2030,2043,2069,2065,2045,2058
2061,2053,2028,2038,2065,2058,2057,2065
2058,2053,2020,2035,2061,2044,2044,2069
2059,2052,2014,2034,2054,2055,2044,2079
2062,2049,2007,2022,2039,2055,2030,2068
2052,2035,1990,2017,2033,2055,2041,2067
2051,2047,1994,2027,2030,2077,2049,2073
2056,2062,2000,2037,2041,2083,2051,2063
2059,2057,2004,2038,2052,2086,2064,2062
2056,2062,2016,2052,2040,2070,2056,2052
2057,2059,2036,2053,2020,2029,2059,2042
2053,2056,2040,2058,1997,2021,2055,2026
2047,2051,2054,2056,1985,2035,2049,2017
2049,2052,2052,2057,1982,2039,2038,2014
2045,2047,2067,2058,1970,2027,2043,2014
2051,2061,2070,2067,1978,2019,2063,2028
2061,2066,2080,2080,2004,2021,2068,2030
2059,2065,2073,2083,2030,2032,2064,2031
2068,2059,2061,2084,2042,2040,2067,2035
2069,2069,2066,2084,2051,2045,2049,2026
2073,2066,2063,2071,2047,2028,2033,2018
2057,2055,2051,2059,2036,2022,2036,2010
2057,2049,2042,2058,2039,2033,2046,2021
2060,2057,2044,2048,2045,2037,2056,2021
2059,2048,2027,2016,2026,2041,2048,2016
2049,2037,2014,2005,2037,2064,2040,2018
2042,2043,2030,2038,2076,2055,2061,2035
2057,2049,2052,2054,2074,2036,2058,2050
2077,2068,2064,2043,2036,2028,2057,2064
2081,2076,2075,2046,2052,2033,2057,2064
2072,2065,2072,2054,2099,2049,2062,2057
2062,2056,2068,2057,2118,2068,2061,2054
2051,2049,2066,2049,2119,2080,2074,2050
2050,2049,2078,2060,2106,2078,2065,2060
2047,2052,2078,2062,2074,2063,2061,2060
2057,2052,2068,2054,2064,2055,2057,2071
2058,2050,2058,2057,2072,2053,2061,2072
2043,2041,2048,2052,2068,2041,2026,2068
2040,2037,2050,2051,2100,2043,2024,2066
2041,2046,2056,2053,2113,2055,2040,2058
2048,2045,2051,2042,2073,2059,2030,2057
2052,2046,2051,2042,2067,2064,2042,2052
2052,2045,2048,2051,2119,2083,2040,2048
2050,2049,2052,2066,2155,2053,2052,2052
2060,2055,2050,2076,2176,2047,2038,2051
2060,2054,2046,2073,2119,2051,2034,2044
2056,2043,2043,2055,2039,2053,2035,2028
2042,2038,2030,2038,1914,2050,2029,2015
2036,2027,2029,2036,1904,2041,2038,2008
2041,2030,2035,2047,1948,2040,2028,2011
2047,2038,2045,2078,2048,2045,2019,2014
2051,2038,2057,2084,2061,2046,2032,2014
2053,2049,2063,2068,2015,2041,2022,2012
2047,2039,2048,2058,2003,2042,2007,2009
2043,2034,2044,2056,2032,2042,2023,2021
2050,2043,2054,2058,2030,2027,2012,2020
2065,2053,2051,2058,2021,2018,2013,2031
2062,2057,2050,2060,2031,2025,2032,2027
2060,2049,2042,2056,2033,2034,2026,2030
2052,2037,2036,2056,2039,2047,2045,2031
2052,2044,2045,2055,2040,2050,2056,2034
2058,2044,2048,2045,2047,2055,2070,2042
2058,2046,2041,2029,2044,2057,2075,2044
2057,2052,2038,2014,2044,2052,2053,2044
2046,2054,2034,2003,2038,2049,2041,2038
2043,2045,2025,1997,2030,2047,2035,2048
2040,2042,2018,1983,2030,2043,2033,2061
2041,2047,2021,1989,2025,2050,2050,2072
2052,2060,2045,2016,2048,2056,2062,2091
2056,2070,2053,2028,2056,2054,2045,2089
2055,2063,2053,2036,2055,2046,2039,2077
2055,2060,2049,2032,2053,2048,2055,2077
2054,2061,2051,2038,2047,2058,2066,2075
2058,2057,2046,2039,2049,2063,2056,2075
2061,2060,2055,2036,2047,2058,2058,2066
2057,2057,2053,2035,2043,2055,2043,2052
2055,2057,2048,2035,2040,2048,2036,2044
2054,2054,2043,2032,2040,2053,2053,2041
2052,2051,2044,2033,2032,2045,2053,2041
2062,2052,2049,2032,2016,2046,2071,2040
2066,2049,2041,2037,2012,2047,2076,2030
2058,2055,2040,2040,2018,2052,2048,2028
2045,2051,2041,2043,2030,2050,2054,2021
2052,2050,2038,2036,2009,2065,2043,2024
2050,2047,2037,2032,1991,2091,2056,2014
2047,2042,2030,2033,1987,2123,2041,2005
2046,2041,2033,2037,1991,2126,2050,2007
2038,2030,2031,2032,1986,2110,2047,2011
2033,2035,2033,2035,1991,2081,2044,2024
2042,2045,2041,2046,2023,2002,2055,2041
2056,2054,2048,2052,2074,1993,2058,2035
2058,2057,2049,2057,2085,2017,2043,2034
2056,2057,2060,2054,2065,2030,2033,2029
2056,2054,2056,2045,2053,2036,2045,2043
2053,2051,2053,2045,2080,2044,2048,2046
2057,2056,2058,2058,2098,2056,2051,2056
2054,2053,2057,2058,2107,2055,2049,2060
2054,2055,2060,2056,2089,2044,2043,2056
2061,2048,2055,2048,2067,2028,2044,2070
2054,2046,2050,2047,2069,2024,2035,2071
2057,2040,2052,2050,2077,2028,2055,2074
2051,2044,2056,2055,2082,2030,2024,2065
2058,2047,2056,2064,2080,2036,2037,2068
2045,2040,2050,2063,2072,2034,2027,2067
2038,2043,2049,2056,2052,2048,2032,2061
2049,2055,2064,2067,2036,2070,2034,2047
2048,2058,2064,2056,2008,2075,2032,2046
2051,2045,2042,2038,1970,2058,2021,2033
2034,2032,2037,2034,1952,2039,2007,2025
2034,2026,2031,2036,1960,2009,2015,2032
2036,2033,2032,2067,2041,1994,2024,2035
2043,2046,2048,2088,2107,2029,2034,2037
2046,2050,2044,2092,2125,2046,2055,2045
2055,2053,2040,2086,2108,2054,2053,2037
2051,2054,2034,2067,2088,2047,2043,2029
2053,2050,2017,2052,2057,2041,2045,2024
2043,2042,2015,2036,2046,2031,2055,2009
2038,2040,2017,2018,2022,2021,2027,2001
2043,2032,2019,1992,2005,2016,2036,2016
2044,2033,2017,1984,2014,2023,2045,2019
2039,2038,2045,2009,2025,2028,2040,2025
2045,2060,2070,2030,2047,2043,2062,2037
2055,2067,2078,2036,2054,2047,2065,2046
2050,2064,2069,2037,2071,2053,2061,2040
2051,2056,2060,2034,2071,2050,2051,2042
2047,2050,2059,2034,2067,2048,2060,2046
2050,2049,2060,2032,2048,2043,2045,2051
2060,2057,2064,2037,2046,2041,2036,2053
2054,2064,2065,2045,2060,2046,2044,2056
2054,2061,2068,2049,2056,2053,2054,2053
2050,2053,2066,2054,2054,2078,2078,2059
2042,2048,2058,2051,2065,2104,2066,2067
2037,2044,2056,2049,2062,2111,2059,2070
2045,2044,2055,2051,2045,2114,2068,2074
2039,2051,2053,2051,2055,2094,2049,2074
2047,2047,2054,2051,2057,2054,2055,2077
2039,2035,2042,2051,2055,2055,2046,2078
2041,2038,2044,2047,2055,2061,2049,2072
2047,2048,2042,2046,2049,2058,2068,2056
2044,2047,2043,2041,2038,2039,2067,2063
2042,2042,2039,2040,2033,2034,2052,2061
2048,2044,2044,2048,2033,2031,2063,2054
2054,2056,2052,2056,2034,2021,2060,2046
2058,2065,2055,2059,2037,2013,2043,2047
2054,2057,2055,2053,2019,2002,2044,2032
2048,2050,2054,2047,2014,2004,2030,2028
2047,2045,2049,2052,2013,2022,2059,2032
2055,2043,2046,2046,2011,2037,2068,2034
2050,2051,2042,2045,2005,2051,2073,2038
2054,2054,2049,2041,2002,2047,2059,2032
2060,2052,2052,2040,1992,2036,2057,2037
2053,2048,2051,2045,2010,2033,2052,2033
2050,2047,2050,2039,2040,2024,2036,2039
2051,2048,2051,2048,2076,2036,2073,2039
2057,2055,2055,2058,2102,2048,2074,2039
2061,2047,2052,2052,2079,2052,2074,2042
2055,2045,2047,2056,2056,2062,2080,2037
2048,2049,2048,2051,2056,2069,2066,2043
2053,2050,2051,2056,2054,2055,2069,2042
2059,2052,2052,2059,2054,2042,2049,2054
2048,2051,2056,2060,2050,2041,2063,2057
2044,2051,2048,2062,2057,2047,2049,2061
2050,2051,2045,2061,2062,2056,2050,2057
2049,2050,2047,2055,2063,2060,2048,2057
2040,2046,2050,2055,2057,2058,2052,2065
2039,2038,2040,2054,2064,2046,2014,2059
2047,2037,2032,2057,2094,2053,2036,2064
2036,2040,2037,2055,2094,2057,2038,2058
2043,2035,2036,2051,2076,2056,2035,2063
2038,2033,2039,2049,2063,2063,2053,2070
2044,2041,2047,2052,2052,2064,2048,2072
2049,2044,2046,2051,2036,2050,2044,2061
2047,2041,2038,2042,2018,2036,2040,2063
2046,2044,2036,2049,2008,2028,2033,2051
2051,2044,2044,2048,2008,2031,2019,2037
2041,2047,2046,2054,2017,2024,2006,2026
2043,2038,2040,2052,2022,2012,2001,2025
2040,2037,2037,2051,2031,2030,2035,2034
2041,2045,2042,2051,2043,2041,2036,2036
2043,2049,2049,2060,2056,2049,2018,2032
2050,2050,2049,2066,2075,2051,2033,2035
2046,2049,2047,2064,2073,2044,2044,2032
2053,2052,2050,2065,2063,2044,2044,2032
2061,2061,2049,2071,2057,2046,2045,2035
2057,2053,2050,2061,2042,2043,2034,2030
2056,2045,2042,2056,2025,2039,2035,2029
2051,2046,2045,2063,2012,2041,2043,2030
2050,2052,2051,2068,2052,2051,2053,2034
2052,2054,2053,2069,2082,2055,2058,2038
2054,2050,2049,2069,2060,2050,2055,2041
2053,2043,2044,2057,2038,2042,2033,2036
2052,2044,2044,2057,2004,2027,2035,2036
2041,2044,2038,2044,1992,2016,2038,2032
2047,2042,2041,2043,2016,2015,2046,2034
2050,2046,2046,2054,2036,2020,2032,2041
2047,2043,2048,2051,2042,2026,2041,2047
2048,2051,2054,2069,2078,2052,2056,2051
2037,2045,2055,2076,2085,2069,2062,2057
2032,2047,2056,2069,2075,2068,2065,2057
2045,2046,2057,2067,2079,2075,2066,2071
2044,2053,2055,2067,2076,2075,2056,2064
2040,2044,2049,2055,2051,2067,2036,2060
2034,2045,2041,2042,2036,2069,2025,2052
2032,2048,2040,2038,2024,2076,2015,2046
2035,2043,2043,2041,2024,2079,2005,2053
2037,2041,2045,2047,2029,2062,2031,2056
2047,2045,2046,2060,2078,2056,2049,2057
2051,2049,2046,2069,2121,2079,2052,2056
2041,2051,2049,2068,2121,2098,2040,2041
2046,2050,2058,2063,2084,2113,2046,2042
2050,2052,2051,2066,2098,2103,2045,2035
2047,2050,2052,2058,2099,2094,2029,2028
2045,2050,2040,2039,2063,2048,2013,2031
2046,2045,2040,2021,2030,2012,2035,2025
2039,2043,2042,2022,2060,2007,2045,2016
2033,2044,2040,2027,2077,2028,2027,2009
2033,2035,2034,2027,2087,2053,2050,2011
2035,2031,2038,2041,2102,2057,2050,2018
2040,2036,2040,2049,2074,2001,2028,2025
2042,2043,2048,2045,1974,1962,2022,2022
2038,2047,2041,2044,1972,1986,2051,2026
2044,2048,2045,2054,2025,2006,2028,2033
2056,2059,2050,2067,2070,2019,2054,2032
2054,2059,2054,2058,2063,2024,2045,2032
2054,2058,2053,2036,1981,2031,2046,2041
2048,2060,2046,2028,1972,2030,2050,2047
2046,2054,2051,2036,1997,2037,2049,2045
2054,2052,2053,2043,1999,2030,2040,2058
2046,2056,2051,2042,1996,2025,2039,2056
2049,2053,2057,2045,2001,2018,2033,2064
2050,2049,2052,2043,2016,2003,2036,2064
2040,2047,2045,2042,2008,2007,2032,2062
2036,2048,2038,2034,1999,2010,2030,2068
2038,2043,2037,2029,1992,1998,2017,2061
2037,2041,2029,2035,2020,1983,2013,2075
2042,2047,2037,2052,2036,1978,2005,2075
2039,2052,2052,2058,2040,1979,1998,2068
2040,2055,2055,2049,2029,1981,1994,2064
2034,2052,2045,2042,2040,2014,2010,2063
2042,2059,2055,2068,2087,2033,2022,2058
2048,2069,2062,2074,2095,2045,2021,2035
2032,2052,2053,2060,2059,2051,2015,2026
2028,2051,2050,2051,2056,2054,2045,2027
2032,2046,2047,2051,2049,2052,2055,2035
2036,2047,2044,2048,2046,2042,2057,2036
2040,2045,2045,2055,2044,2029,2061,2033
2042,2039,2044,2056,2062,2036,2060,2024
2037,2045,2043,2060,2082,2042,2058,2021
2034,2040,2041,2057,2092,2036,2063,2022
2033,2035,2032,2050,2085,2034,2039,2019
2020,2024,2020,2043,2076,2037,2037,2019
2026,2018,2019,2049,2078,2051,2042,2028
2032,2031,2025,2052,2075,2056,2047,2029
2037,2037,2037,2047,2063,2064,2054,2026
2035,2045,2046,2045,2057,2081,2043,2012
2036,2052,2049,2049,2066,2089,2065,2025
2043,2060,2052,2048,2072,2100,2066,2039
2049,2068,2053,2056,2077,2102,2066,2047
2052,2068,2057,2058,2073,2094,2079,2050
2053,2065,2051,2060,2077,2077,2066,2054
2048,2057,2042,2057,2066,2042,2044,2049
2039,2054,2044,2049,2056,2013,2036,2053
2040,2053,2041,2052,2049,2009,2022,2066
2037,2048,2040,2046,2043,2014,2033,2064
2039,2043,2037,2036,2048,2008,2047,2060
2041,2052,2046,2048,2038,2019,2039,2058
2036,2042,2037,2041,2044,2024,2036,2059
2034,2045,2038,2046,2055,2031,2058,2064
2045,2058,2041,2056,2054,2051,2060,2069
2047,2060,2048,2054,2051,2087,2092,2059
2039,2054,2042,2051,2057,2088,2105,2060
2043,2059,2043,2047,2059,2075,2076,2063
2044,2050,2042,2045,2054,2068,2082,2050
2048,2045,2043,2047,2049,2068,2085,2050
2044,2054,2052,2050,2053,2063,2083,2042
2056,2061,2059,2053,2056,2058,2071,2041
2060,2066,2059,2060,2060,2053,2063,2030
2058,2067,2066,2058,2067,2079,2072,2030
2055,2064,2057,2059,2069,2094,2088,2029
2056,2054,2055,2051,2066,2105,2080,2030
2047,2054,2049,2049,2068,2098,2062,2036
2055,2058,2051,2053,2067,2096,2053,2037
2052,2049,2046,2047,2049,2071,2043,2032
2052,2052,2043,2042,2045,2077,2033,2030
2060,2058,2046,2051,2048,2094,2026,2027
2060,2049,2043,2049,2056,2093,2041,2024
2053,2054,2042,2056,2053,2085,2057,2038
2048,2045,2044,2054,2052,2082,2053,2037
2046,2045,2046,2047,2053,2083,2045,2041
2051,2050,2050,2049,2055,2047,2034,2042
2047,2052,2043,2057,2058,2017,2015,2037
2030,2053,2047,2060,2053,1978,1999,2036
2024,2050,2050,2059,2055,1978,1985,2033
2020,2049,2046,2051,2071,1988,1994,2034
2014,2033,2035,2050,2089,1996,2007,2045
2010,2027,2029,2047,2093,2005,2015,2045
2019,2028,2029,2049,2080,2001,2014,2049
2026,2031,2029,2043,2072,1967,2018,2043
2026,2021,2025,2042,2055,1956,2001,2038
2029,2031,2030,2043,2047,1971,2010,2042
2033,2041,2049,2043,2018,1992,2019,2043
2032,2040,2050,2045,2000,2027,2044,2050
2039,2040,2046,2029,1982,2061,2041,2050
2036,2039,2048,2026,1975,2067,2064,2039
2041,2048,2046,2035,1980,2051,2061,2034
2036,2050,2048,2030,1969,2045,2048,2040
2037,2048,2041,2036,1971,2036,2061,2030
2037,2049,2039,2039,1987,2043,2028,2026
2036,2048,2038,2042,2010,2065,2052,2025
2031,2050,2040,2043,2076,2078,2053,2022
2020,2048,2041,2047,2117,2098,2044,2018
2021,2047,2049,2052,2122,2136,2046,2015
2039,2057,2057,2052,2074,2161,2060,2027
2051,2064,2054,2045,2035,2163,2050,2024
2042,2053,2043,2031,2030,2111,2041,2017
2042,2049,2043,2029,2029,1994,2039,2030
2056,2064,2054,2038,2054,1945,2029,2032
2054,2066,2054,2047,2094,1996,2040,2029
2051,2060,2057,2051,2094,2036,2051,2028
2041,2057,2054,2049,2075,2061,2052,2032
2039,2050,2048,2041,2048,2074,2052,2037
2038,2052,2052,2037,2054,2080,2065,2046
2042,2053,2058,2039,2064,2069,2062,2051
2044,2054,2054,2039,2078,2064,2046,2051
2045,2054,2048,2035,2063,2071,2053,2050
2042,2056,2051,2030,2086,2084,2086,2061
2045,2059,2053,2046,2115,2098,2116,2066
2042,2053,2049,2048,2110,2082,2126,2073
2040,2048,2046,2052,2116,2040,2136,2080
2037,2048,2054,2057,2146,2033,2144,2082
2031,2037,2045,2056,2162,2031,2134,2080
2035,2035,2049,2059,2203,2042,2143,2084
2044,2051,2057,2070,2217,2053,2147,2074
2042,2053,2051,2065,2204,2039,2117,2058
2037,2047,2048,2044,2153,2021,2118,2054
2033,2044,2038,2004,1989,2024,2101,2046
2032,2045,2034,2008,1974,2030,2049,2031
2036,2045,2037,2022,2050,2046,2022,2025
2037,2041,2043,2038,2093,2028,1994,2016
2032,2045,2049,2046,2023,1998,1934,2022
2034,2044,2053,2040,1946,1995,1905,2027
2038,2056,2052,2035,1976,1989,1987,2040
2043,2060,2056,2043,2018,1977,1999,2039
2048,2058,2058,2050,2041,1985,2041,2026
2043,2054,2041,2050,2054,2001,2057,2024
2038,2047,2042,2045,2061,2017,2045,2023
2032,2038,2036,2043,2056,2019,2041,2028
2040,2042,2040,2037,2060,2028,2065,2035
2044,2048,2050,2041,2064,2019,2051,2021
2036,2048,2050,2044,2061,2014,2060,2026
2040,2046,2044,2032,2053,2008,2049,2035
2041,2051,2056,2038,2038,1997,2046,2038
2038,2049,2058,2035,2022,1993,2046,2043
2040,2053,2062,2038,2031,2003,2034,2047
2039,2056,2057,2038,2037,2020,2057,2053
2038,2057,2059,2043,2046,2041,2071,2045
2039,2063,2053,2048,2053,2048,2073,2053
2037,2054,2053,2046,2063,2050,2068,2048
2033,2051,2049,2042,2058,2059,2026,2050
2032,2049,2050,2043,2063,2076,2038,2049
2025,2044,2046,2044,2059,2114,2021,2059
2025,2044,2051,2042,2051,2102,2030,2049
2024,2032,2039,2036,2033,2049,2005,2042
2022,2034,2041,2037,2038,2036,2016,2041
2034,2045,2049,2040,2035,2052,2024,2037
2037,2050,2052,2041,2038,2066,2046,2039
2042,2048,2051,2045,2043,2073,2047,2049
2046,2054,2054,2041,2048,2074,2050,2044
2057,2057,2053,2047,2051,2076,2043,2036
2051,2058,2053,2052,2054,2068,2048,2031
2046,2055,2059,2054,2063,2060,2032,2018
2042,2051,2063,2047,2061,2058,2024,2015
2036,2052,2058,2047,2062,2030,2023,2007
2039,2050,2053,2047,2058,2037,2044,2006
2033,2042,2049,2049,2056,2045,2045,2005
2038,2041,2047,2042,2065,2061,2060,2015
2041,2043,2052,2045,2060,2068,2051,2024
2046,2046,2051,2049,2067,2072,2053,2014
2038,2038,2049,2043,2062,2064,2060,2017
2035,2037,2048,2043,2059,2059,2055,2019
2033,2044,2051,2047,2060,2052,2042,2013
2038,2042,2047,2045,2055,2059,2046,2010
2032,2037,2052,2043,2057,2058,2035,2010
2026,2038,2051,2047,2062,2064,2036,2016
2027,2045,2054,2051,2066,2069,2042,2026
2033,2043,2050,2049,2072,2077,2029,2028
2030,2039,2047,2047,2063,2069,2019,2030
2025,2031,2051,2045,2059,2054,2018,2029
2015,2026,2040,2040,2056,2057,2013,2039
2018,2031,2050,2046,2060,2056,2018,2050
2021,2037,2049,2047,2066,2068,2013,2055
2024,2039,2047,2045,2062,2073,2029,2057
2021,2032,2042,2048,2063,2082,2040,2060
2019,2026,2049,2051,2061,2083,2054,2060
2018,2020,2039,2050,2054,2072,2057,2067
2023,2025,2043,2044,2058,2058,2059,2057
2034,2039,2044,2054,2058,2036,2038,2048
2027,2043,2045,2051,2051,2025,2034,2038
2032,2043,2044,2042,2056,2020,2023,2032
2032,2043,2037,2040,2053,2037,2017,2033
2030,2043,2041,2043,2049,2057,2031,2023
2034,2044,2039,2043,2058,2065,2061,2020
2026,2039,2037,2040,2064,2075,2056,2020
2028,2033,2036,2043,2069,2079,2056,2019
2031,2034,2045,2046,2075,2080,2072,2019
2036,2032,2043,2050,2078,2067,2076,2024
2034,2038,2046,2051,2074,2047,2078,2013
2037,2041,2046,2050,2076,2028,2072,2016
2038,2040,2054,2052,2086,2025,2070,2029
2044,2040,2057,2056,2078,2016,2060,2015
2041,2033,2053,2046,2076,2010,2055,2010
2038,2043,2058,2046,2084,2029,2058,2014
2051,2065,2066,2055,2085,2042,2072,2014
2050,2075,2070,2055,2056,2053,2023,2016
2048,2066,2065,2047,2040,2054,2035,2017
2043,2054,2055,2037,2043,2089,2023,2014
2035,2049,2052,2039,2049,2103,2034,2020
2032,2044,2050,2038,2045,2068,2032,2023
2025,2043,2050,2034,2036,1978,2029,2035
2034,2050,2055,2040,2045,1990,2022,2051
2044,2054,2060,2047,2050,2023,2040,2054
2041,2046,2059,2041,2058,2039,2041,2054
2038,2051,2058,2045,2066,2037,2040,2061
2042,2050,2052,2047,2063,2031,2034,2053
2038,2048,2060,2038,2066,2035,2035,2063
2038,2056,2064,2049,2067,2035,2028,2056
2032,2048,2065,2037,2060,2027,2031,2061
2040,2057,2061,2033,2054,2032,2021,2062
2043,2062,2075,2037,2031,2024,2017,2058
2044,2061,2071,2035,2028,2028,2008,2066
2044,2054,2065,2034,2041,2051,2018,2043
2046,2059,2067,2042,2053,2082,2034,2040
2044,2061,2065,2043,2067,2093,2050,2035
2046,2051,2062,2038,2051,2080,2039,2020
2042,2055,2060,2036,2041,2076,2027,2030
2048,2052,2058,2032,2033,2072,2060,2033
2048,2050,2061,2045,2039,2086,2063,2040
2048,2052,2058,2059,2064,2098,2068,2046
2047,2057,2061,2055,2072,2081,2069,2038
2040,2053,2057,2046,2047,2042,2052,2017
2033,2044,2050,2045,2032,2019,2037,2016
2027,2040,2049,2043,2042,2020,2037,2010
2019,2024,2040,2033,2014,2008,2032,2004
2021,2028,2036,2022,1978,2012,2043,2004
2024,2033,2043,2019,1955,2016,2045,2006
2024,2040,2044,2015,1950,2014,2041,2015
2034,2040,2042,2019,1964,1998,2028,2024
2037,2044,2046,2036,2023,2014,2025,2023
2041,2039,2052,2058,2120,2065,2040,2026
2044,2044,2054,2073,2187,2114,2053,2031
2040,2045,2055,2078,2186,2130,2066,2045
2042,2048,2056,2070,2144,2125,2069,2049
2041,2046,2049,2060,2107,2122,2084,2047
2039,2043,2045,2047,2084,2118,2052,2047
2038,2049,2042,2041,2066,2127,2047,2061
2041,2044,2041,2035,2059,2121,2054,2055
2037,2041,2041,2027,2034,2109,2036,2049
2028,2035,2032,2023,2005,2086,2012,2024
2005,2011,2019,2011,1990,2014,1985,2011
1990,2006,2013,2009,1975,1953,1991,2023
2000,2021,2017,2007,1976,1962,1998,2026
2020,2027,2031,2013,1990,1960,2030,2034
2030,2036,2033,2033,2030,1966,2039,2043
2034,2039,2036,2041,2079,1982,2054,2032
2034,2040,2040,2060,2135,2004,2058,2021
2020,2032,2036,2057,2156,2029,2047,2017
2017,2034,2038,2048,2109,2027,2033,2012
2017,2032,2033,2037,2050,2019,2042,2010
2018,2035,2034,2033,2039,2002,2021,2004
2017,2037,2041,2039,2035,1989,2002,1992
2019,2040,2036,2035,2036,1968,2009,1995
2019,2038,2038,2034,2038,1979,2016,1991
2024,2049,2042,2039,2046,1994,2011,2000
2029,2050,2050,2038,2055,2004,1970,2001
2021,2038,2045,2033,2047,1996,1987,2003
2019,2036,2036,2033,2052,2012,2033,2015
2028,2049,2048,2038,2060,2045,2039,2015
2034,2052,2050,2033,2041,2052,2024,2024
2037,2061,2058,2033,2021,2043,2004,2028
2044,2065,2059,2029,2007,2030,2012,2024
2036,2062,2056,2019,2000,2017,1997,2017
2028,2054,2048,2015,2019,2012,2031,2024
2034,2064,2056,2048,2082,2032,2056,2043
2042,2076,2067,2067,2115,2063,2088,2050
2044,2072,2062,2070,2099,2059,2073,2045
2042,2067,2065,2066,2108,2050,2062,2052
2045,2066,2057,2061,2116,2051,2060,2054
2043,2066,2048,2053,2084,2079,2066,2051
2039,2056,2033,2043,2027,2081,2038,2059
2037,2049,2027,2032,2019,2058,2021,2045
2023,2042,2014,2020,2020,2036,2012,2048
2026,2035,2019,2016,2015,2024,2003,2042
2024,2042,2020,2007,2000,2012,2011,2039
2029,2045,2024,2011,2045,2037,2034,2040
2029,2040,2024,2026,2068,2073,2023,2046
2041,2055,2031,2034,2070,2080,2048,2044
2044,2053,2031,2034,2079,2070,2042,2027
2045,2051,2032,2041,2101,2076,2044,2028
2046,2054,2034,2042,2112,2075,2048,2028
2046,2051,2031,2040,2103,2088,2055,2019
2036,2046,2029,2041,2095,2096,2044,2018
2049,2049,2032,2044,2083,2091,2068,2026
2049,2047,2035,2042,2070,2072,2044,2017
2042,2047,2041,2041,2068,2077,2041,2018
2042,2043,2043,2038,2071,2081,2045,2012
2039,2046,2049,2048,2063,2068,2016,2001
2034,2037,2047,2041,2050,2040,2016,1994
2025,2039,2055,2034,2045,2038,2041,1990
2026,2044,2059,2040,2055,2051,2027,1995
2020,2043,2065,2039,2061,2054,2034,2003
2029,2044,2070,2043,2072,2062,2050,2021
2031,2056,2078,2048,2071,2085,2050,2021
2033,2057,2071,2036,2067,2081,2042,2015
2031,2055,2061,2035,2067,2041,2066,2026
2028,2051,2065,2037,2067,2028,2065,2031
2029,2051,2072,2046,2084,2039,2055,2033
2029,2045,2075,2046,2084,2055,2044,2034
2028,2043,2071,2051,2079,2060,2035,2042
2033,2047,2066,2051,2069,2046,2026,2045
2029,2046,2064,2045,2093,2038,2051,2049
2036,2048,2072,2048,2103,2040,2063,2061
2035,2051,2080,2049,2111,2072,2061,2049
2034,2046,2071,2044,2083,2093,2042,2037
2028,2043,2065,2018,1983,2083,2043,2041
2036,2052,2066,2002,1922,2069,2044,2050
2046,2056,2069,2014,1995,2019,2049,2053
2050,2061,2072,2040,2074,1992,2032,2056
2052,2058,2066,2040,2085,2005,2021,2038
2042,2043,2056,2040,2096,2032,2027,2027
2037,2048,2065,2057,2136,2074,2016,2017
2037,2048,2061,2060,2133,2080,2023,2016
2032,2054,2061,2058,2110,2107,2044,2012
2040,2054,2064,2056,2093,2113,2039,2017
2040,2050,2061,2045,2018,2096,2054,2021
2035,2062,2061,2042,1971,2016,2061,2026
2046,2063,2066,2054,2002,1980,2056,2020
2041,2060,2061,2052,2035,2000,2072,2015
2038,2055,2053,2040,2039,2040,2053,2013
2031,2042,2043,2030,2024,2057,2040,2003
2022,2030,2033,2020,1992,2070,2039,1999
2024,2037,2041,2017,1995,2075,2036,1995
2020,2044,2047,2008,1987,2082,2038,1999
2022,2033,2053,2018,1986,2106,2045,2000
2025,2036,2048,2020,2007,2143,2032,2010
2032,2046,2059,2042,2062,2198,2055,2018
2035,2044,2057,2063,2118,2227,2044,2025
2046,2050,2058,2069,2164,2189,2031,2034
2051,2051,2055,2073,2164,2030,2013,2036
2040,2044,2047,2057,2126,1937,2013,2032
2032,2036,2044,2051,2085,1949,2017,2029
2028,2033,2041,2040,2049,1999,2025,2037
2030,2031,2040,2039,2026,2034,2024,2040
2028,2031,2037,2033,2015,2055,2024,2045
2030,2033,2041,2013,1981,2050,2037,2045
2022,2029,2036,2004,1946,2028,2036,2038
2029,2026,2039,2004,1925,2023,2031,2040
2035,2039,2048,2022,1973,2028,2045,2047
2044,2047,2053,2030,2022,2016,2058,2044
2040,2047,2053,2036,2030,1985,2042,2035
2039,2042,2047,2033,2050,1963,2033,2029
2038,2043,2045,2032,2052,1954,2030,2024
2034,2032,2044,2023,2030,1970,2050,2008
2024,2036,2048,2032,2026,2008,2049,2010
2040,2044,2062,2043,2035,2023,2045,2010
2035,2050,2059,2041,2048,2034,2046,2008
2033,2046,2055,2041,2057,2047,2048,2016
2042,2048,2050,2038,2058,2054,2058,2017
2044,2048,2053,2042,2065,2057,2053,2013
2042,2048,2054,2050,2076,2062,2042,2010
2037,2046,2048,2047,2077,2056,2042,1997
2040,2036,2040,2039,2065,2047,2038,1990
2021,2030,2037,2037,2047,2023,2031,1986
2024,2033,2039,2028,2034,2018,2007,1994
2033,2043,2043,2030,2009,2009,2041,1997
2038,2050,2050,2027,1989,1999,2035,2009
2039,2055,2052,2029,1976,2005,2045,2012
2044,2051,2049,2032,1988,2021,2022,2000
2045,2048,2037,2031,2019,2050,2047,2007
2041,2053,2049,2050,2048,2076,2068,2017
2048,2058,2051,2058,2069,2077,2064,2023
2049,2061,2051,2050,2053,2056,2062,2026
2049,2054,2047,2043,2040,2052,2067,2030
2042,2051,2046,2043,2075,2072,2070,2038
2037,2044,2042,2040,2069,2068,2056,2043
2033,2037,2032,2031,2036,2049,2060,2040
2023,2033,2035,2030,2025,2058,2043,2040
2024,2030,2031,2032,2024,2059,2041,2045
2031,2029,2032,2032,2030,2067,2021,2049
2034,2036,2045,2035,2031,2062,2031,2052
2047,2040,2043,2035,2045,2045,2024,2054
2042,2043,2042,2043,2046,2007,2052,2046
2034,2040,2047,2039,2039,2020,2058,2035
2031,2037,2040,2037,1992,2055,2045,2024
2035,2037,2030,2025,2001,2060,2022,2018
2040,2036,2034,2031,2030,2082,2031,2016
2035,2041,2035,2036,2049,2080,2046,2011
2034,2035,2037,2040,2054,2049,2031,2003
2037,2035,2042,2055,2064,2012,2064,2024
2042,2040,2045,2067,2079,2015,2077,2020
2043,2045,2046,2060,2067,2032,2037,2019
2044,2038,2037,2036,2023,2023,2038,1999
2039,2038,2038,2033,2065,2036,2033,2005
2041,2032,2035,2041,2063,2041,2037,1993
2036,2023,2031,2037,2059,2040,2046,1996
2034,2027,2038,2039,2057,2037,2047,2010
2047,2038,2046,2045,2055,2034,2062,2019
2048,2042,2047,2046,2061,2045,2046,2017
2048,2040,2049,2049,2064,2039,2041,2012
2038,2041,2043,2053,2064,2026,2050,2017
2034,2039,2047,2054,2072,2022,2039,2019
2037,2039,2043,2053,2065,2026,2044,2017
2037,2038,2042,2043,2055,2033,2031,2022
2039,2033,2037,2037,2034,2046,2028,2028
2035,2035,2037,2034,2026,2056,2048,2022
2042,2030,2039,2028,2014,2065,2058,2031
2041,2030,2040,2030,2009,2056,2023,2043
2042,2032,2037,2029,2029,2036,2068,2052
2043,2038,2044,2039,2060,2043,2079,2059
2039,2039,2048,2051,2074,2041,2069,2051
2023,2023,2035,2044,2064,2049,2050,2038
2016,2017,2039,2044,2070,2061,2045,2040
2027,2029,2038,2042,2061,2059,2037,2039
2034,2026,2037,2039,2040,2045,2043,2039
2037,2030,2036,2040,2042,2050,2048,2041
2041,2041,2042,2041,2049,2052,2041,2051
2049,2044,2042,2044,2049,2056,2050,2042
2047,2047,2045,2045,2046,2056,2062,2036
2055,2046,2047,2049,2047,2049,2067,2036
2055,2041,2044,2045,2039,2043,2052,2026
2052,2046,2051,2045,2039,2040,2065,2017
2053,2045,2052,2056,2043,2037,2030,2018
2050,2047,2052,2047,2034,2026,2040,2013
2045,2045,2053,2044,2028,2022,2036,2013
2040,2038,2046,2042,2044,2029,2047,2012
2044,2036,2046,2041,2050,2039,2028,2004
2037,2022,2034,2035,2042,2038,2029,2008
2033,2021,2037,2037,2045,2051,2056,2015
2035,2033,2047,2044,2056,2056,2053,2019
2042,2041,2040,2045,2052,2053,2062,2027
2042,2042,2047,2046,2040,2019,2045,2029
2048,2045,2055,2046,2031,1992,2027,2026
2055,2055,2058,2045,2020,1974,2041,2034
2048,2056,2055,2041,2035,1979,2041,2046
2054,2047,2051,2051,2041,1980,2038,2042
2046,2045,2054,2050,2047,2002,2039,2046
2055,2045,2056,2053,2061,2007,2042,2051
2053,2041,2055,2055,2058,2015,2036,2051
2052,2043,2052,2057,2054,2029,2051,2056
2046,2044,2053,2049,2052,2066,2078,2066
2042,2046,2052,2050,2052,2096,2075,2056
2040,2035,2043,2043,2033,2083,2062,2052
2030,2027,2039,2034,2021,2047,2068,2061
2037,2028,2039,2032,2020,2051,2061,2052
2036,2038,2039,2034,2013,2058,2040,2044
2040,2030,2039,2021,2004,2066,2052,2042
2035,2032,2040,2028,2005,2057,2060,2044
2034,2037,2042,2033,2019,2059,2078,2038
2043,2042,2045,2037,2035,2057,2069,2026
2035,2037,2044,2042,2049,2044,2069,2019
2039,2039,2051,2050,2064,2034,2068,2026
2049,2044,2051,2044,2056,2056,2059,2024
2040,2045,2056,2041,2036,2063,2062,2014
2046,2048,2053,2042,2007,2058,2057,2009
2047,2049,2052,2041,1985,2071,2055,2008
2047,2049,2046,2039,1979,2086,2039,2012
2045,2041,2048,2036,1975,2066,2026,2008
2044,2051,2051,2040,2000,2037,2012,2009
2035,2040,2044,2038,2030,2053,2026,2008
2035,2043,2039,2049,2044,2088,2037,2019
2044,2052,2051,2054,2039,2089,2042,2018
2042,2050,2053,2049,2031,2065,2036,2020
2043,2050,2049,2053,2056,2049,2032,2022
2035,2045,2052,2047,2101,2053,2052,2019
2036,2037,2051,2056,2110,2058,2056,2022
2034,2036,2049,2061,2092,2068,2050,2026
2040,2045,2051,2059,2092,2080,2052,2032
2046,2049,2053,2064,2092,2082,2057,2042
2043,2050,2056,2057,2072,2083,2053,2040
2037,2039,2051,2050,2018,2067,2041,2050
2036,2037,2045,2046,2027,2018,2045,2049
2034,2036,2045,2044,2070,2010,2037,2058
2035,2046,2045,2051,2070,2019,2047,2064
2042,2044,2050,2052,2062,2037,2043,2059
2027,2027,2038,2049,2052,2037,2042,2057
2027,2024,2040,2046,2061,2043,2036,2055
2031,2039,2045,2047,2054,2045,2032,2046
2037,2038,2041,2045,2039,2036,2046,2048
2039,2037,2042,2041,2037,2014,2041,2039
2045,2038,2050,2037,2028,2001,2036,2038
2040,2045,2054,2041,2022,1999,2029,2030
2047,2050,2051,2042,2022,2021,2052,2036
2049,2049,2053,2039,2016,2037,2062,2040
2052,2047,2046,2046,2035,2052,2062,2031
2055,2046,2044,2050,2070,2060,2059,2024
2052,2047,2046,2054,2113,2085,2067,2022
2048,2047,2047,2058,2111,2092,2050,2024
2050,2045,2047,2057,2123,2087,2058,2023
2050,2042,2049,2050,2138,2096,2070,2020
2051,2047,2050,2046,2151,2094,2056,2018
2048,2045,2043,2044,2140,2102,2056,2020
2046,2044,2047,2044,2156,2082,2051,2023
2052,2048,2043,2040,2096,2018,2042,2025
2043,2046,2045,2025,2023,2001,2036,2027
2048,2045,2046,2028,2006,2017,2053,2030
2048,2044,2042,2030,1934,2036,2052,2030
2045,2046,2045,2022,1841,2029,2043,2038
2039,2042,2045,2026,1882,2044,2062,2038
2044,2046,2055,2039,1934,2059,2054,2058
2042,2046,2056,2042,1957,2060,2050,2067
2046,2054,2056,2044,1954,2050,2054,2061
2046,2047,2045,2034,1944,2026,2052,2061
2038,2044,2042,2021,1936,2006,2037,2060
2041,2040,2036,2028,2021,2033,2022,2060
2040,2043,2038,2034,2053,2053,2025,2057
2042,2042,2041,2034,2044,2039,2016,2050
2036,2029,2028,2023,2007,2005,2027,2050
2027,2028,2030,2024,2004,1982,2030,2056
2038,2038,2041,2038,2034,2003,2033,2050
2040,2041,2039,2048,2086,2023,2031,2055
2041,2039,2031,2048,2102,2036,2029,2044
2035,2031,2029,2034,2052,2035,2037,2038
2036,2039,2032,2033,1968,2031,2046,2032
2040,2034,2031,2033,1995,2043,2035,2028
2042,2032,2038,2036,2005,2057,2043,2037
2045,2038,2038,2047,2030,2070,2049,2029
2049,2039,2046,2060,2060,2076,2066,2032
2053,2043,2055,2056,2095,2070,2079,2040
2058,2047,2053,2061,2108,2050,2080,2039
2058,2045,2052,2044,2062,2011,2051,2029
2050,2047,2048,2032,2036,1990,2060,2025
2048,2045,2047,2037,2062,1984,2069,2017
2036,2040,2043,2040,2061,1997,2037,2020
2042,2045,2048,2049,2059,2036,2061,2024
2053,2053,2053,2051,2049,2057,2056,2029
2050,2059,2052,2041,2052,2054,2053,2038
2059,2060,2054,2043,2074,2061,2057,2046
2061,2054,2057,2046,2093,2059,2052,2048
2061,2055,2055,2048,2086,2058,2064,2051
2058,2051,2053,2051,2074,2051,2047,2056
2062,2055,2055,2043,2066,2053,2059,2057
2062,2058,2057,2051,2064,2062,2071,2065
2068,2053,2055,2046,2063,2066,2046,2068
2066,2057,2055,2049,2075,2066,2051,2068
2052,2055,2050,2049,2082,2080,2072,2076
2058,2055,2052,2050,2074,2080,2062,2076
2060,2054,2049,2047,2052,2067,2058,2071
2049,2051,2049,2035,2021,2055,2032,2067
2041,2042,2047,2034,2010,2064,2028,2069
2047,2044,2050,2032,2027,2102,2060,2066
2056,2056,2051,2038,2039,2131,2066,2066
2059,2054,2052,2036,2034,2100,2033,2055
2056,2048,2046,2038,2030,1994,2026,2058
2062,2049,2045,2040,2028,1940,2036,2055
2056,2040,2041,2037,2034,1994,2047,2049
2067,2040,2045,2040,2040,2019,2066,2040
2063,2051,2045,2050,2046,2025,2063,2042
2059,2054,2056,2052,2040,2039,2068,2038
2063,2051,2056,2049,2042,2051,2063,2041
2060,2054,2053,2051,2043,2053,2034,2034
2058,2052,2053,2046,2041,2048,2036,2037
2054,2050,2056,2052,2050,2050,2036,2036
2054,2054,2058,2050,2046,2049,2035,2025
2049,2050,2050,2046,2050,2050,2020,2024
2042,2033,2042,2042,2041,2050,2032,2024
2039,2033,2046,2041,2045,2045,2061,2031
2054,2046,2058,2050,2049,2044,2074,2031
2061,2048,2050,2052,2065,2050,2058,2034
2057,2042,2052,2060,2070,2036,2062,2044
2060,2048,2060,2055,2080,2024,2056,2043
2057,2049,2058,2057,2083,1997,2026,2049
2052,2047,2052,2059,2067,1991,2042,2054
2060,2049,2050,2056,2062,2001,2022,2049
2052,2043,2049,2059,2068,2011,2047,2050
2052,2037,2052,2051,2068,2031,2060,2045
2049,2038,2043,2048,2067,2054,2052,2056
2052,2041,2043,2043,2053,2074,2078,2065
2052,2045,2052,2040,2035,2083,2071,2069
2056,2045,2046,2047,2037,2078,2082,2076
2063,2043,2046,2048,2032,2064,2079,2071
2054,2038,2040,2035,2012,2041,2066,2074
2052,2032,2039,2029,1999,2036,2074,2072
2053,2043,2039,2031,2002,2030,2051,2058
2055,2038,2036,2034,2018,2041,2058,2051
2046,2028,2035,2035,2011,2041,2054,2050
2045,2032,2039,2035,1996,2042,2049,2049
2035,2034,2043,2044,2029,2060,2034,2051
2038,2035,2039,2051,2057,2058,2046,2045
2039,2045,2049,2055,2064,2056,2072,2035
2044,2049,2052,2055,2064,2043,2051,2034
2048,2044,2048,2049,2049,2037,2043,2032
2047,2049,2044,2053,2032,2042,2054,2024
2046,2050,2043,2045,2025,2031,2046,2025
2041,2047,2045,2046,2034,2031,2048,2027
2045,2042,2046,2052,2021,2018,2045,2028
2044,2041,2050,2044,2003,2006,2039,2025
2037,2035,2040,2033,1979,1995,2014,2021
2033,2029,2034,2033,1987,1996,2011,2016
2033,2037,2039,2031,2002,2018,2028,2013
2041,2046,2044,2051,2045,2056,2043,2029
2055,2053,2060,2071,2098,2074,2063,2040
2059,2047,2054,2074,2088,2059,2075,2041
2058,2050,2056,2068,2092,2060,2050,2047
2052,2047,2054,2066,2083,2065,2066,2055
2049,2048,2053,2063,2062,2052,2057,2063
2044,2050,2054,2064,2060,2045,2070,2069
2047,2051,2053,2063,2066,2041,2059,2068
2053,2054,2052,2063,2052,2034,2041,2077
2049,2052,2053,2060,2044,2028,2050,2080
2041,2052,2053,2059,2037,2027,2054,2077
2044,2054,2054,2052,2026,2011,2042,2081
2051,2052,2054,2050,2027,2015,2032,2083
2045,2045,2046,2047,2035,2007,2025,2084
2045,2042,2040,2046,2033,2017,2040,2085
2052,2055,2051,2047,2031,2037,2035,2071
2056,2058,2053,2050,2026,2044,2067,2058
2055,2057,2055,2046,2028,2052,2048,2059
2060,2053,2051,2051,2035,2060,2045,2051
2054,2047,2050,2048,2053,2058,2055,2052
2055,2047,2052,2047,2059,2062,2049,2046
2060,2051,2050,2055,2055,2058,2035,2042
2060,2046,2049,2058,2054,2056,2048,2036
2056,2046,2046,2052,2044,2053,2033,2026
2058,2040,2041,2052,2037,2044,2029,2031
2058,2050,2047,2054,2033,2043,2052,2039
2056,2048,2049,2054,2042,2037,2056,2036
2050,2052,2045,2048,2039,2035,2038,2029
2044,2042,2043,2049,2036,2021,2036,2021
2032,2025,2037,2043,2034,2011,2026,2013
2024,2024,2030,2042,2041,2015,2030,2019
2032,2035,2036,2050,2051,2024,2043,2036
2049,2037,2038,2057,2056,2033,2077,2046
2054,2044,2044,2047,2064,2027,2064,2049
2053,2043,2045,2051,2062,2012,2068,2051
2053,2044,2049,2049,2057,1999,2046,2046
2054,2037,2046,2054,2050,2007,2081,2047
2058,2039,2045,2051,2042,2047,2077,2052
2054,2041,2044,2046,2035,2090,2074,2051
2047,2043,2043,2042,2022,2106,2055,2060
2049,2043,2040,2032,2003,2080,2029,2060
2052,2047,2046,2034,2003,2059,2031,2074
2061,2054,2046,2046,2023,2038,2057,2082
2064,2058,2052,2057,2047,2039,2043,2089
2065,2056,2049,2066,2055,2052,2050,2084
2058,2048,2044,2063,2055,2075,2044,2075
2048,2030,2041,2060,2055,2103,2040,2074
2045,2042,2054,2062,2041,2107,2053,2064
2038,2042,2054,2050,2022,2089,2034,2064
2041,2041,2056,2059,2015,2089,2044,2059
2048,2033,2055,2060,2018,2081,2036,2065
2056,2038,2062,2071,2037,2052,2055,2070
2064,2043,2059,2074,2054,2038,2064,2070
2060,2045,2054,2071,2066,2057,2069,2067
2058,2040,2042,2060,2043,2065,2061,2057
2052,2038,2037,2059,2021,2064,2057,2044
2041,2023,2033,2054,2030,2056,2054,2029
2034,2023,2031,2062,2051,2049,2054,2020
2045,2027,2035,2064,2054,2053,2045,2030
2053,2035,2036,2060,2053,2075,2050,2032
2052,2035,2027,2053,2049,2070,2043,2034
2046,2036,2017,2048,2053,2052,2010,2034
2040,2027,2020,2047,2054,2054,2016,2031
2045,2037,2026,2043,2063,2065,2045,2038
2046,2043,2027,2048,2072,2061,2040,2036
2039,2035,2025,2045,2066,2058,2022,2037
2036,2031,2019,2042,2039,2040,2051,2045
2041,2035,2029,2044,2039,2041,2042,2051
2045,2048,2031,2050,2065,2050,2045,2058
2051,2054,2036,2043,2070,2044,2026,2057
2048,2048,2039,2049,2071,2045,2040,2062
2049,2049,2041,2050,2066,2056,2037,2071
2043,2059,2049,2046,2020,2053,2061,2074
2049,2058,2047,2044,1989,2047,2062,2085
2054,2059,2048,2045,2021,2047,2061,2088
2054,2055,2046,2051,2040,2053,2059,2089
2051,2047,2046,2048,2047,2056,2056,2092
2047,2050,2045,2045,2013,2052,2058,2085
2042,2038,2040,2042,2005,2042,2052,2081
2040,2046,2047,2046,2020,2035,2059,2078
2042,2056,2052,2048,2018,2032,2059,2077
2044,2057,2054,2052,2019,2048,2065,2078
2041,2062,2055,2056,2048,2063,2078,2073
2045,2063,2055,2064,2098,2064,2071,2065
2050,2060,2053,2062,2108,2061,2065,2060
2048,2057,2049,2044,2053,2039,2049,2050
2044,2051,2046,2039,2049,2036,2055,2040
2048,2053,2054,2046,2046,2036,2057,2040
2048,2046,2042,2050,2015,2039,2055,2040
2043,2046,2045,2043,2006,2039,2043,2043
2050,2054,2051,2056,1941,2077,2056,2043
2052,2060,2050,2047,1873,2084,2043,2047
2056,2064,2052,2046,1886,2081,2049,2053
2058,2062,2051,2053,1934,2076,2060,2034
2050,2040,2038,2047,1997,2043,2045,2028
2038,2036,2026,2042,2036,2022,2032,2029
2043,2042,2038,2055,2064,2011,2036,2037
2041,2045,2036,2066,2080,2008,2050,2037
2041,2050,2048,2060,2069,2026,2036,2038
2043,2050,2046,2066,2040,2028,2040,2033
2048,2050,2058,2061,2026,2030,2044,2038
2056,2059,2058,2056,2022,2039,2047,2054
2056,2063,2067,2056,2020,2045,2037,2059
2060,2067,2065,2049,2046,2047,2042,2071
2067,2064,2069,2057,2064,2054,2048,2073
2073,2063,2071,2053,2056,2060,2064,2072
2064,2066,2078,2055,2064,2068,2073,2077
2054,2061,2069,2048,2052,2060,2071,2083
2056,2058,2067,2050,2042,2056,2049,2079
2058,2060,2062,2049,2040,2059,2063,2075
2046,2055,2051,2052,2030,2053,2040,2068
2039,2043,2054,2051,2036,2042,2048,2071
2039,2053,2062,2057,2041,2044,2037,2073
2049,2050,2066,2064,2040,2039,2043,2081
2056,2050,2065,2066,2046,2032,2017,2068
2058,2054,2066,2063,2024,2015,2011,2071
2060,2057,2057,2059,2020,2013,2023,2073
2052,2057,2063,2066,2031,2031,2048,2068
2060,2057,2057,2068,2037,2055,2067,2068
2058,2055,2052,2067,2045,2054,2068,2067
2064,2056,2055,2062,2044,2050,2045,2055
2064,2059,2054,2060,2045,2044,2025,2053
2071,2066,2056,2055,2042,2045,2036,2050
2066,2060,2060,2059,2062,2054,2050,2044
2063,2063,2056,2057,2069,2066,2056,2050
2073,2067,2051,2057,2054,2064,2041,2046
2068,2064,2055,2061,2050,2051,2046,2033
2060,2049,2049,2051,2046,2040,2037,2028
2056,2042,2043,2049,2038,2032,2043,2038
2064,2053,2053,2053,2043,2036,2057,2047
2053,2054,2050,2054,2044,2043,2057,2051
2051,2057,2048,2055,2047,2059,2060,2049
2053,2060,2050,2052,2053,2072,2063,2059
2056,2064,2060,2058,2064,2077,2069,2062
2052,2066,2060,2057,2061,2070,2066,2063
2053,2061,2061,2057,2057,2058,2049,2072
2053,2054,2054,2054,2051,2051,2055,2066
2058,2057,2058,2054,2066,2058,2057,2070
2055,2057,2053,2056,2065,2056,2054,2072
2061,2052,2053,2057,2060,2053,2053,2079
2056,2052,2054,2062,2058,2055,2051,2085
2048,2051,2050,2052,2055,2064,2056,2085
2052,2053,2049,2053,2058,2089,2045,2085
2048,2048,2039,2041,2044,2102,2039,2078
2035,2041,2035,2041,2035,2109,2064,2080
2045,2045,2039,2045,2039,2109,2068,2080
2046,2042,2037,2041,2038,2097,2063,2076
2049,2045,2041,2038,2036,2093,2080,2067
2052,2051,2044,2042,2043,2095,2065,2065
2047,2056,2047,2042,2046,2083,2071,2067
2052,2061,2046,2048,2043,2070,2070,2058
2064,2060,2045,2051,2047,2047,2079,2057
2061,2057,2046,2047,2039,2020,2084,2048
2055,2063,2043,2047,2049,1985,2074,2049
2050,2059,2046,2049,2045,1991,2067,2047
2055,2057,2045,2051,2043,2017,2053,2045
2053,2050,2046,2054,2035,2033,2036,2041
2048,2046,2046,2053,2037,2051,2036,2039
2047,2045,2047,2050,2028,2055,2043,2040
2044,2043,2047,2040,2027,2053,2049,2034
2040,2043,2048,2042,2032,2072,2059,2029
2046,2046,2052,2050,2047,2105,2061,2043
2050,2055,2061,2053,2043,2138,2071,2043
2059,2055,2064,2060,2047,2160,2056,2048
2057,2053,2061,2056,2049,2124,2059,2041
2058,2050,2053,2060,2051,2010,2043,2049
2054,2049,2054,2057,2057,1976,2046,2062
2055,2052,2052,2060,2054,2013,2063,2061
2053,2045,2051,2052,2053,2024,2060,2072
2049,2046,2054,2049,2038,2030,2035,2075
2057,2050,2049,2052,2043,2043,2036,2071
2051,2053,2052,2048,2052,2057,2067,2088
2051,2047,2050,2050,2043,2057,2063,2085
2056,2053,2055,2051,2048,2056,2049,2081
2052,2054,2050,2050,2037,2056,2054,2080
2051,2054,2049,2053,2032,2054,2038,2078
2046,2044,2042,2041,2027,2066,2047,2072
2038,2040,2042,2044,2027,2080,2067,2069
2042,2048,2040,2040,2018,2071,2052,2065
2047,2042,2040,2025,1987,2047,2051,2062
2044,2044,2035,2021,1967,2026,2042,2063
2047,2050,2033,2031,1965,1985,2055,2058
2045,2050,2038,2033,1992,1988,2041,2047
2048,2053,2046,2050,2051,2031,2041,2038
2056,2068,2056,2077,2130,2078,2040,2040
2056,2069,2061,2081,2160,2103,2058,2041
2056,2064,2059,2060,2084,2119,2071,2044
2061,2061,2051,2044,1992,2110,2075,2043
2054,2050,2043,2034,1986,2092,2054,2037
2048,2045,2042,2035,2022,2073,2055,2029
2049,2042,2039,2038,2064,2072,2059,2032
2049,2045,2042,2058,2096,2070,2049,2029
2048,2031,2040,2060,2097,2076,2025,2026
2052,2038,2044,2059,2078,2079,2030,2035
2054,2055,2052,2056,2056,2054,2025,2038
2056,2057,2050,2054,2041,2018,2042,2044
2055,2058,2048,2052,2036,2016,2057,2045
2056,2055,2046,2054,2033,2029,2060,2042
2054,2049,2051,2056,2041,2041,2058,2050
2050,2054,2054,2057,2054,2055,2058,2058
2051,2051,2054,2057,2050,2062,2060,2058
2052,2049,2050,2059,2059,2064,2073,2059
2056,2049,2050,2058,2057,2062,2070,2070
2053,2053,2046,2054,2052,2053,2054,2074
2046,2049,2051,2055,2047,2058,2041,2076
2051,2048,2048,2053,2050,2047,2036,2078
2051,2047,2050,2058,2051,2052,2034,2075
2045,2048,2050,2062,2058,2057,2047,2072
2035,2040,2041,2053,2049,2062,2037,2071
2035,2033,2033,2050,2046,2060,2042,2080
2042,2042,2044,2053,2038,2049,2056,2080
2049,2044,2048,2054,2036,2043,2042,2076
2050,2051,2046,2056,2037,2046,2026,2061
2048,2052,2051,2057,2042,2047,2034,2069
2050,2053,2046,2054,2048,2055,2046,2058
2055,2054,2047,2059,2050,2050,2056,2056
2057,2053,2046,2060,2057,2050,2062,2053
2062,2057,2046,2063,2064,2049,2044,2055
2060,2048,2051,2061,2071,2043,2026,2051
2065,2050,2051,2060,2071,2031,2024,2049
2062,2049,2051,2059,2057,2017,2013,2048
2055,2047,2049,2065,2078,2027,2035,2047
2060,2046,2051,2068,2092,2033,2044,2051
2048,2047,2048,2060,2088,2013,2028,2034
2036,2036,2042,2056,2064,1978,2021,2036
2041,2027,2039,2052,2039,1968,2040,2049
2060,2043,2049,2059,2024,1974,2034,2059
2063,2046,2053,2058,2013,1987,2036,2063
2062,2047,2055,2063,2015,1999,2054,2071
2061,2051,2050,2064,2033,2025,2073,2073
2060,2041,2048,2061,2043,2041,2069,2075
2053,2044,2051,2056,2040,2045,2067,2072
2052,2046,2042,2059,2041,2062,2053,2075
2048,2035,2042,2056,2053,2087,2044,2070
2050,2032,2040,2053,2062,2124,2056,2082
2052,2036,2042,2052,2066,2118,2078,2095
2046,2042,2046,2060,2080,2105,2071,2104
2046,2032,2041,2059,2067,2091,2070,2105
2044,2040,2043,2057,2061,2086,2045,2106
2046,2040,2047,2052,2050,2092,2049,2100
2048,2037,2047,2051,2039,2105,2078,2091
2045,2043,2038,2039,2015,2112,2080,2085
2052,2052,2048,2034,2010,2112,2067,2081
2053,2056,2049,2048,2029,2097,2032,2062
2047,2053,2053,2046,2015,2056,2014,2052
2041,2047,2052,2048,1992,2018,2007,2046
2042,2048,2045,2052,1974,1996,2005,2044
2042,2048,2048,2049,1989,1979,2023,2040
2044,2055,2047,2051,2015,2012,2032,2046
2053,2061,2050,2055,2002,2042,2027,2045
2061,2058,2049,2052,2006,2056,2050,2046
2064,2066,2052,2056,2035,2062,2058,2049
2057,2061,2048,2053,2033,2063,2050,2050
2060,2057,2047,2058,2044,2065,2059,2046
2054,2058,2049,2067,2057,2074,2068,2042
2058,2053,2045,2064,2088,2063,2066,2039
2054,2042,2042,2063,2077,2047,2045,2037
2040,2029,2033,2053,2038,2028,2029,2039
2046,2034,2047,2053,2064,2024,2040,2051
2060,2040,2048,2059,2101,2040,2055,2053
2064,2048,2058,2070,2107,2053,2066,2056
2060,2054,2052,2070,2091,2057,2067,2060
2056,2050,2046,2072,2124,2068,2054,2055
2057,2050,2044,2060,2134,2069,2040,2058
2051,2045,2046,2038,2053,2069,2028,2063
