CH1,CH2,CH3,CH4,CH5,CH6,CH7,CH8
2053,2052,2071,2057,2056,2040,2040,2082
2033,2023,2047,2045,2051,2029,2033,2070
2031,2033,2050,2055,2055,2039,2045,2070
2044,2043,2050,2057,2052,2038,2060,2075
2044,2051,2046,2057,2056,2037,2024,2075
2050,2054,2038,2058,2058,2045,2035,2064
2052,2049,2026,2052,2053,2048,2043,2061
2046,2047,2014,2053,2051,2047,2048,2053
2044,2052,2000,2049,2059,2046,2049,2055
2052,2045,1997,2045,2058,2039,2038,2050
2045,2040,1985,2028,2051,2042,2067,2037
2044,2038,1987,2022,2039,2042,2068,2032
2043,2048,1998,2010,2042,2044,2070,2037
2047,2059,2014,2012,2046,2056,2060,2035
2049,2059,2023,2004,2050,2073,2044,2029
2052,2057,2026,2005,2044,2078,2057,2026
2049,2054,2027,2017,2048,2079,2066,2018
2032,2038,2019,2018,2040,2070,2067,2014
2031,2031,2035,2026,2048,2088,2047,2028
2044,2058,2062,2054,2070,2090,2080,2029
2050,2056,2077,2069,2072,2084,2078,2040
2056,2063,2084,2068,2064,2077,2068,2044
2054,2057,2066,2061,2051,2052,2057,2048
2051,2053,2070,2051,2029,2025,2047,2045
2051,2055,2077,2052,2014,2003,2040,2052
2049,2061,2093,2057,2009,1989,2045,2051
2054,2069,2104,2059,2004,1976,2045,2062
2051,2061,2096,2049,2013,1988,2050,2057
2054,2070,2106,2056,2031,2017,2053,2066
2048,2075,2111,2066,2049,2030,2056,2078
2043,2071,2100,2061,2039,2034,2052,2075
2036,2055,2083,2054,2030,2035,2033,2068
2030,2050,2068,2045,2029,2041,2046,2065
2013,2021,2032,2020,2014,2026,2022,2064
2008,2016,2020,2009,2006,2024,2035,2070
2022,2037,2031,2020,2024,2035,2048,2067
2029,2039,2046,2024,2037,2038,2048,2069
2038,2052,2056,2038,2058,2054,2054,2068
2040,2053,2068,2039,2062,2050,2044,2065
2045,2049,2065,2041,2057,2055,2047,2050
2043,2051,2063,2042,2062,2055,2046,2046
2043,2050,2062,2044,2062,2054,2042,2037
2037,2050,2061,2052,2069,2061,2052,2036
2045,2052,2063,2055,2078,2058,2058,2033
2044,2047,2057,2060,2080,2051,2055,2034
2050,2046,2057,2065,2082,2053,2062,2033
2050,2044,2059,2061,2066,2053,2057,2027
2042,2046,2056,2058,2036,2041,2060,2029
2047,2046,2058,2052,2018,2038,2050,2032
2048,2031,2037,2044,2022,2025,2031,2024
2027,2017,2030,2040,2045,2037,2013,2013
2025,2028,2044,2054,2059,2054,2044,2023
2046,2043,2044,2057,2058,2054,2042,2026
2039,2042,2041,2058,2059,2048,2046,2025
2042,2040,2034,2047,2058,2035,2036,2029
2037,2033,2022,2031,2036,2028,2031,2034
2038,2036,2013,2025,2047,2035,2046,2047
2038,2043,2037,2035,2044,2052,2043,2050
2048,2064,2065,2044,2044,2059,2051,2060
2057,2077,2079,2048,2045,2052,2057,2070
2059,2080,2072,2048,2041,2052,2058,2072
2062,2076,2062,2047,2041,2051,2072,2078
2049,2064,2048,2042,2043,2051,2055,2081
2045,2061,2044,2045,2039,2047,2046,2085
2047,2054,2033,2043,2040,2049,2045,2081
2050,2046,2031,2043,2033,2042,2035,2066
2024,2024,2015,2029,2020,2028,2021,2059
2019,2023,2027,2039,2025,2038,2034,2069
2038,2053,2045,2055,2046,2040,2055,2066
2042,2054,2042,2044,2045,2047,2045,2065
2041,2048,2038,2047,2032,2057,2048,2067
2039,2048,2044,2049,2029,2053,2047,2055
2044,2057,2051,2054,2029,2050,2060,2046
2050,2049,2056,2046,2026,2052,2060,2042
2053,2057,2054,2054,2023,2041,2048,2040
2050,2056,2059,2055,2037,2043,2049,2031
2041,2049,2059,2068,2059,2047,2052,2032
2048,2052,2058,2068,2059,2044,2072,2029
2048,2044,2052,2060,2054,2035,2056,2025
2042,2038,2041,2050,2060,2038,2054,2022
2036,2036,2037,2045,2085,2046,2037,2017
2037,2036,2034,2054,2089,2048,2043,2015
2033,2027,2028,2044,2067,2036,2029,2008
2030,2032,2029,2041,2064,2037,2027,2013
2038,2044,2042,2043,2062,2062,2047,2029
2046,2049,2037,2032,2013,2074,2049,2032
2053,2049,2040,2030,2031,2086,2052,2032
2052,2054,2039,2025,2056,2086,2025,2035
2056,2050,2036,2027,2048,2075,2044,2045
2052,2037,2033,2032,2040,2031,2052,2053
2045,2041,2038,2027,2033,2006,2044,2055
2044,2048,2044,2035,2028,2017,2043,2049
2046,2057,2050,2036,2037,2015,2039,2050
2046,2053,2047,2023,2004,2022,2042,2050
2047,2053,2057,2030,2019,2036,2044,2060
2046,2059,2059,2047,2050,2050,2050,2070
2045,2055,2059,2051,2061,2060,2053,2081
2053,2053,2067,2064,2082,2073,2068,2082
2052,2056,2065,2061,2076,2053,2046,2073
2036,2039,2054,2060,2070,2048,2038,2067
2038,2045,2061,2069,2061,2050,2043,2075
2051,2051,2057,2074,2049,2043,2053,2066
2046,2046,2052,2070,2042,2043,2054,2062
2052,2047,2045,2067,2050,2058,2069,2055
2048,2043,2029,2060,2072,2075,2060,2050
2040,2047,2022,2061,2043,2086,2062,2037
2035,2033,2007,2056,2027,2096,2050,2031
2036,2026,2003,2051,2015,2105,2029,2026
2039,2029,1996,2042,1993,2109,2045,2018
2035,2023,1984,2030,2004,2096,2037,2015
2036,2020,1982,2026,2000,2047,2017,2018
2038,2038,1992,2034,2010,2034,2024,2015
2046,2043,2010,2033,2023,2029,2024,2022
2050,2040,2018,2029,2045,2017,2051,2025
2040,2037,2018,2016,2048,2028,2035,2010
2024,2016,2017,2003,2032,2024,2029,2000
2023,2015,2020,2008,2042,2030,2018,2013
2044,2042,2041,2033,2067,2039,2045,2025
2046,2050,2048,2039,2080,2040,2060,2026
2050,2054,2058,2038,2069,2044,2060,2032
2043,2049,2060,2042,2061,2038,2060,2035
2051,2059,2069,2053,2060,2033,2056,2044
2061,2064,2074,2052,2058,2034,2074,2044
2059,2063,2067,2060,2060,2029,2045,2045
2044,2056,2080,2064,2090,2036,2049,2044
2045,2053,2086,2069,2128,2042,2036,2050
2041,2056,2092,2076,2138,2057,2039,2053
2044,2053,2091,2070,2147,2064,2033,2060
2048,2051,2087,2080,2154,2068,2060,2060
2056,2062,2079,2078,2146,2071,2075,2071
2059,2063,2068,2076,2128,2073,2061,2072
2063,2057,2051,2062,2084,2044,2045,2062
2050,2036,2029,2043,1999,2023,2036,2053
2033,2030,2034,2037,1895,2023,2041,2062
2048,2051,2042,2038,1928,2041,2033,2060
2055,2048,2050,2042,1979,2051,2042,2054
2058,2053,2046,2036,1999,2055,2046,2058
2055,2056,2048,2030,2013,2052,2037,2054
2060,2055,2054,2028,2014,2052,2044,2045
2055,2057,2046,2032,2021,2057,2077,2041
2057,2056,2033,2026,2026,2054,2064,2039
2061,2057,2026,2027,2027,2055,2047,2031
2052,2049,2022,2033,2040,2058,2051,2031
2053,2049,2029,2042,2041,2054,2043,2032
2048,2046,2032,2031,2040,2049,2048,2029
2046,2045,2037,2031,2035,2041,2044,2019
2043,2040,2047,2037,2033,2042,2051,2023
2050,2047,2061,2039,2043,2044,2037,2019
2041,2031,2056,2032,2038,2029,2047,2011
2038,2028,2052,2035,2033,2032,2053,2024
2046,2042,2068,2052,2048,2050,2075,2032
2057,2042,2060,2044,2046,2048,2075,2033
2055,2039,2054,2050,2050,2045,2073,2039
2053,2040,2049,2045,2052,2053,2084,2041
2059,2042,2051,2050,2051,2058,2060,2037
2059,2045,2057,2047,2051,2058,2066,2050
2054,2047,2052,2051,2049,2051,2069,2052
2054,2041,2042,2047,2037,2048,2070,2051
2051,2039,2040,2039,2034,2052,2069,2050
2048,2040,2038,2036,2028,2052,2061,2053
2045,2042,2036,2036,2036,2065,2039,2060
2051,2042,2029,2046,2044,2064,2056,2067
2052,2039,2040,2047,2040,2059,2045,2070
2056,2045,2043,2050,2033,2051,2025,2077
2059,2040,2044,2043,2024,2042,2029,2062
2041,2020,2029,2029,2012,2030,2044,2062
2036,2025,2035,2027,2024,2043,2055,2071
2054,2044,2060,2037,2034,2051,2049,2061
2057,2049,2054,2035,2037,2052,2053,2060
2064,2048,2057,2046,2040,2056,2057,2047
2052,2054,2072,2047,2044,2058,2048,2041
2047,2056,2073,2051,2041,2057,2033,2033
2042,2059,2066,2050,2040,2055,2024,2040
2047,2059,2065,2055,2048,2056,2054,2042
2046,2049,2051,2053,2049,2055,2060,2035
2044,2052,2047,2047,2044,2057,2068,2032
2043,2049,2030,2037,2042,2055,2061,2028
2033,2040,2022,2032,2050,2045,2064,2021
2039,2039,2034,2030,2035,2048,2042,2023
2034,2043,2036,2033,2035,2045,2041,2029
2044,2034,2034,2031,2037,2047,2061,2024
2052,2033,2034,2034,2025,2040,2047,2015
2035,2024,2034,2031,2021,2044,2037,2015
2034,2022,2043,2045,2041,2059,2061,2027
2058,2047,2054,2059,2045,2062,2052,2032
2048,2049,2060,2056,2044,2063,2074,2036
2057,2055,2062,2061,2057,2068,2074,2034
2053,2054,2063,2062,2057,2062,2071,2039
2057,2057,2066,2066,2057,2064,2068,2045
2069,2061,2067,2064,2065,2072,2072,2045
2066,2062,2066,2059,2064,2069,2063,2051
2067,2059,2053,2050,2060,2080,2069,2052
2056,2057,2050,2044,2060,2084,2060,2064
2053,2050,2048,2035,2057,2082,2043,2058
2055,2050,2047,2026,2053,2090,2052,2071
2054,2045,2037,2020,2053,2086,2044,2068
2060,2044,2034,2017,2052,2080,2050,2073
2057,2039,2039,2023,2050,2073,2049,2070
2046,2034,2035,2021,2038,2065,2022,2062
2037,2029,2035,2015,2031,2056,2036,2066
2038,2047,2046,2033,2044,2058,2066,2076
2055,2050,2046,2030,2050,2047,2042,2070
2058,2048,2046,2033,2048,2043,2053,2062
2060,2053,2038,2035,2045,2043,2062,2062
2058,2046,2038,2033,2041,2036,2055,2049
2054,2042,2037,2033,2041,2052,2044,2041
2052,2041,2040,2034,2044,2070,2042,2039
2055,2042,2039,2039,2049,2079,2051,2041
2055,2046,2034,2042,2053,2048,2024,2036
2062,2050,2035,2039,2052,2035,2034,2026
2061,2047,2037,2041,2049,2036,2034,2030
2048,2045,2034,2037,2045,2040,2022,2024
2043,2033,2025,2030,2044,2046,2025,2018
2044,2032,2041,2037,2045,2041,2030,2021
2052,2044,2049,2046,2043,2037,2021,2009
2041,2033,2036,2036,2038,2023,2031,2007
2039,2034,2029,2035,2038,2029,2044,2024
2052,2047,2038,2051,2051,2041,2055,2030
2060,2048,2035,2042,2049,2040,2053,2033
2060,2047,2039,2046,2050,2035,2069,2040
2061,2050,2031,2044,2045,2038,2047,2037
2060,2051,2034,2045,2052,2037,2047,2043
2065,2048,2033,2044,2040,2029,2077,2046
2065,2048,2029,2040,2043,2038,2062,2051
2057,2052,2031,2039,2047,2050,2066,2055
2054,2053,2036,2042,2043,2056,2079,2061
2062,2058,2048,2044,2046,2056,2090,2064
2064,2056,2049,2050,2052,2054,2057,2065
2059,2052,2052,2043,2041,2060,2057,2073
2058,2052,2054,2044,2042,2059,2059,2069
2055,2048,2048,2036,2040,2058,2073,2073
2058,2043,2045,2031,2027,2042,2041,2060
2037,2024,2032,2024,2020,2028,2033,2060
2033,2018,2036,2029,2022,2034,2055,2068
2055,2044,2053,2038,2031,2042,2062,2066
2055,2052,2061,2042,2027,2040,2056,2064
2060,2055,2065,2043,2040,2025,2043,2059
2062,2065,2067,2049,2042,2026,2033,2059
2061,2066,2068,2047,2036,2030,2044,2049
2050,2067,2067,2050,2036,2025,2044,2041
2058,2066,2063,2050,2037,2032,2046,2032
2055,2061,2061,2045,2029,2031,2039,2027
2054,2059,2058,2045,2036,2034,2055,2025
2049,2055,2054,2041,2039,2038,2055,2029
2048,2057,2058,2049,2039,2045,2051,2032
2054,2059,2051,2039,2038,2044,2061,2025
2053,2057,2048,2044,2034,2042,2059,2021
2051,2057,2051,2044,2038,2035,2067,2015
2046,2047,2038,2029,2026,2021,2059,2017
2036,2040,2028,2034,2032,2034,2041,2019
2041,2045,2044,2044,2046,2046,2062,2040
2055,2055,2048,2042,2049,2051,2055,2035
2061,2059,2048,2049,2050,2053,2068,2042
2051,2053,2051,2047,2046,2052,2067,2041
2055,2055,2050,2044,2050,2063,2070,2045
2058,2056,2052,2043,2057,2057,2070,2050
2060,2053,2047,2045,2046,2051,2077,2052
2055,2051,2040,2041,2041,2045,2056,2053
2055,2052,2035,2045,2044,2052,2064,2052
2051,2047,2037,2041,2041,2048,2052,2062
2053,2046,2032,2041,2045,2046,2060,2061
2052,2040,2029,2037,2039,2044,2050,2066
2043,2042,2033,2035,2041,2053,2062,2074
2049,2042,2035,2037,2043,2056,2064,2084
2044,2042,2041,2043,2046,2055,2066,2082
2039,2031,2037,2031,2031,2039,2049,2062
2023,2026,2031,2031,2029,2050,2056,2067
2035,2044,2047,2045,2041,2065,2049,2079
2041,2054,2049,2043,2043,2065,2018,2077
2051,2056,2049,2042,2046,2057,2042,2072
2052,2049,2046,2037,2035,2052,2033,2060
2048,2056,2052,2043,2036,2042,2030,2058
2051,2065,2055,2043,2039,2039,2040,2056
2046,2060,2054,2042,2043,2043,2048,2049
2047,2056,2049,2042,2046,2035,2072,2051
2046,2054,2045,2041,2047,2025,2049,2037
2046,2054,2051,2045,2054,2015,2042,2033
2042,2057,2052,2041,2050,2000,2042,2039
2043,2058,2045,2039,2046,1990,2057,2035
2037,2048,2044,2039,2041,1990,2039,2024
2042,2044,2042,2039,2048,1997,2039,2027
2044,2049,2045,2034,2045,1993,2026,2022
2033,2036,2038,2031,2037,2011,2035,2020
2036,2040,2047,2041,2049,2035,2059,2037
2063,2066,2060,2051,2053,2045,2058,2044
2084,2070,2065,2052,2052,2060,2048,2040
2082,2068,2057,2040,2059,2077,2047,2034
2055,2062,2056,2043,2052,2077,2043,2026
2052,2055,2056,2044,2054,2066,2041,2026
2052,2053,2053,2040,2051,2056,2035,2032
2040,2056,2045,2032,2053,2054,2050,2035
2037,2050,2045,2034,2048,2064,2052,2053
2044,2048,2038,2037,2052,2054,2058,2056
2034,2040,2035,2036,2055,2050,2059,2066
2027,2035,2033,2037,2050,2043,2065,2063
2005,2030,2039,2039,2055,2055,2056,2054
1986,2026,2041,2041,2054,2064,2050,2056
1999,2032,2040,2040,2056,2066,2069,2037
1982,2014,2034,2030,2041,2064,2061,2034
1992,2024,2033,2030,2043,2066,2074,2040
1994,2045,2054,2042,2047,2075,2079,2042
1977,2035,2045,2034,2040,2065,2070,2041
1958,2021,2044,2035,2032,2058,2054,2025
1936,2009,2024,2030,2022,2053,2043,2016
1940,1987,2017,2029,2024,2053,2039,2021
1927,1961,2007,2022,2019,2047,2042,1997
1919,1949,2009,2023,2023,2049,2042,1988
1977,1999,2030,2034,2032,2050,2058,1985
2050,2058,2049,2041,2043,2054,2068,1998
2111,2098,2066,2045,2051,2057,2067,2024
2152,2110,2064,2044,2042,2059,2069,2038
2117,2080,2047,2039,2040,2040,2067,2030
2071,2056,2040,2034,2034,2022,2042,2024
2040,2043,2026,2033,2027,2023,2056,2029
2037,2017,2002,2014,2017,2036,2050,2040
2026,2006,2005,2017,2030,2062,2049,2044
2046,2035,2029,2036,2048,2093,2064,2065
2079,2045,2038,2038,2047,2086,2059,2060
2089,2045,2035,2037,2044,2094,2066,2058
2089,2048,2034,2031,2043,2100,2069,2061
2074,2036,2034,2034,2040,2104,2072,2027
2037,2026,2040,2040,2046,2091,2066,2010
1997,2022,2038,2041,2048,2036,2038,1993
1982,2017,2039,2041,2045,2022,2039,1977
1952,1999,2031,2035,2039,2014,2022,1970
1902,1992,2021,2025,2029,2005,2015,1972
1879,1994,2018,2019,2033,2010,2031,1987
1898,2005,2020,2024,2031,2025,2018,2030
1942,2013,2026,2031,2035,2040,2043,2060
1967,2022,2036,2037,2043,2050,2056,2056
1989,2024,2035,2033,2036,2044,2037,2034
1942,2006,2025,2030,2034,2039,2043,2021
1954,2028,2033,2037,2045,2047,2047,2034
1994,2064,2051,2049,2043,2052,2027,2027
1985,2068,2043,2041,2048,2056,2045,2032
2014,2074,2044,2032,2042,2046,2035,2053
2039,2073,2032,2030,2039,2052,2041,2062
2011,2058,2032,2032,2039,2044,2035,2068
2031,2065,2039,2033,2040,2036,2041,2064
2061,2065,2045,2037,2039,2026,2048,2069
2077,2068,2048,2042,2032,2021,2048,2046
2040,2061,2038,2038,2049,2025,2047,2029
2058,2070,2050,2047,2058,2045,2042,2030
2108,2102,2063,2053,2059,2045,2072,2026
2148,2113,2064,2058,2058,2052,2076,2036
2175,2121,2061,2056,2061,2063,2077,2041
2176,2115,2059,2053,2068,2070,2055,2047
2143,2081,2045,2038,2042,2060,2045,2034
2093,2055,2043,2036,2036,2078,2047,2043
2090,2057,2055,2042,2036,2084,2044,2033
2088,2053,2058,2042,2040,2071,2033,2031
2092,2057,2063,2040,2042,2039,2020,2031
2094,2054,2059,2046,2031,2041,2055,2016
2075,2054,2052,2041,2033,2036,2047,2010
2072,2057,2047,2040,2041,2049,2044,2018
2055,2053,2048,2033,2040,2051,2048,2026
2041,2048,2051,2037,2050,2068,2058,2041
2042,2060,2066,2050,2053,2089,2067,2060
2056,2066,2052,2050,2053,2088,2077,2071
2060,2061,2056,2044,2051,2078,2061,2070
2069,2070,2054,2042,2047,2073,2067,2082
2109,2074,2054,2045,2050,2060,2055,2077
2128,2072,2054,2044,2051,2051,2064,2074
2107,2052,2040,2033,2034,2040,2045,2056
2060,2033,2031,2031,2037,2044,2038,2050
2056,2054,2051,2045,2047,2071,2059,2053
2056,2062,2055,2048,2049,2084,2064,2061
2072,2063,2047,2040,2026,2088,2050,2054
2045,2037,2038,2027,1992,2085,2038,2029
2002,2013,2026,2019,1973,2073,2026,2022
1979,2010,2021,2013,1972,2061,2029,2020
1998,2022,2026,2009,1980,2038,2031,2025
2020,2041,2036,2029,2040,2036,2051,2045
2051,2055,2051,2060,2100,2050,2061,2048
2065,2062,2050,2076,2125,2066,2066,2041
2057,2058,2048,2070,2118,2063,2062,2032
2072,2067,2056,2066,2108,2059,2055,2029
2094,2067,2055,2056,2088,2045,2043,2023
2090,2049,2043,2046,2064,2040,2026,2002
2067,2030,2025,2032,2040,2028,2007,1999
2054,2027,2029,2030,2036,2035,2008,2013
2071,2050,2040,2050,2044,2034,2058,2036
2081,2069,2064,2058,2054,2038,2057,2037
2083,2079,2063,2054,2064,2067,2053,2036
2081,2083,2057,2057,2053,2096,2059,2042
2084,2072,2042,2056,2065,2125,2053,2057
2094,2065,2037,2058,2068,2096,2050,2052
2087,2060,2035,2052,2057,1999,2028,2061
2084,2051,2037,2053,2055,1941,2034,2062
2103,2057,2044,2055,2050,1970,2054,2070
2088,2059,2049,2054,2050,2008,2054,2077
2083,2056,2053,2049,2038,2033,2073,2086
2090,2070,2055,2049,2050,2083,2046,2100
2094,2068,2055,2058,2055,2115,2053,2101
2082,2060,2052,2058,2048,2113,2056,2090
2063,2052,2044,2040,2041,2044,2034,2079
2029,2032,2035,2035,2042,1953,1999,2075
2036,2037,2041,2044,2052,1974,2008,2087
2082,2048,2039,2041,2046,2028,2015,2089
2094,2041,2030,2038,2038,2063,2017,2084
2097,2041,2027,2032,2012,2084,2036,2083
2095,2043,2022,2025,1999,2090,2012,2074
2077,2034,2019,2023,1982,2077,2013,2050
2052,2022,2014,2015,1995,2056,2006,2035
2027,2024,2024,2035,2030,2070,2033,2025
2018,2033,2028,2044,2068,2065,2038,2019
2038,2055,2038,2050,2093,2063,2063,2026
2089,2069,2038,2054,2098,2055,2057,2037
2118,2072,2033,2051,2085,2048,2039,2035
2102,2061,2038,2047,2064,2045,2045,2030
2076,2056,2049,2051,2064,2027,2024,2033
2061,2053,2051,2040,2053,2012,2038,2026
2035,2032,2044,2033,2054,2024,2035,2023
2031,2041,2061,2047,2071,2050,2056,2029
2048,2065,2069,2044,2073,2071,2043,2029
2067,2064,2065,2043,2064,2093,2047,2027
2065,2061,2066,2042,2065,2105,2056,2035
2070,2059,2057,2045,2072,2099,2054,2034
2061,2062,2054,2049,2067,2059,2037,2031
2051,2059,2056,2057,2072,2026,2034,2031
2027,2051,2058,2054,2066,2026,2046,2032
2006,2042,2058,2058,2064,2038,2045,2038
2011,2046,2066,2058,2059,2060,2052,2050
2011,2056,2071,2056,2056,2081,2036,2064
2029,2061,2071,2054,2048,2070,2012,2070
2044,2058,2067,2044,2030,2080,2046,2072
2046,2056,2054,2034,2020,2085,2019,2061
2031,2050,2053,2021,2005,2069,2040,2047
2017,2024,2030,2012,1998,2065,2033,2051
2021,2018,2031,2020,2024,2067,2036,2063
2047,2041,2049,2043,2060,2037,2055,2071
2056,2047,2055,2053,2077,2039,2059,2052
2020,2041,2049,2053,2076,2051,2043,2037
2007,2037,2057,2050,2072,2065,2051,2027
2009,2050,2053,2051,2067,2060,2043,2014
1990,2054,2049,2044,2060,2050,2068,2016
1977,2045,2050,2050,2051,2043,2065,2009
1945,2030,2044,2042,2056,2017,2055,2006
1928,2012,2033,2036,2041,1992,2017,2008
1933,1994,2029,2031,2038,1987,2009,2013
1966,2003,2027,2027,2039,1987,2026,2016
1996,2016,2030,2034,2040,1991,2009,2000
1988,2024,2033,2032,2044,2005,2023,2002
1978,2041,2037,2038,2045,2006,2037,1991
2050,2059,2037,2029,2029,1998,2007,1992
2113,2074,2042,2022,2033,1994,1996,2018
2159,2096,2061,2042,2047,2020,2026,2046
2164,2094,2066,2052,2050,2044,2010,2042
2112,2082,2062,2054,2059,2056,2046,2055
2113,2086,2066,2055,2071,2072,2051,2057
2110,2088,2061,2056,2074,2068,2040,2062
2094,2081,2060,2055,2063,2042,2036,2069
2086,2085,2063,2052,2056,2002,2025,2072
2058,2081,2062,2052,2051,1994,2028,2066
2042,2078,2058,2051,2052,2021,2046,2058
2031,2060,2050,2040,2045,2027,2045,2051
2039,2052,2043,2047,2058,2042,2033,2063
2043,2052,2047,2045,2065,2051,2036,2061
2041,2048,2041,2043,2058,2056,2024,2054
2044,2041,2033,2028,2052,2054,2033,2058
2042,2034,2026,2029,2046,2050,2015,2060
2025,2016,2017,2019,2047,2055,2016,2067
2028,2014,2018,2031,2056,2070,2039,2080
2052,2043,2034,2041,2065,2080,2066,2080
2078,2052,2041,2043,2053,2078,2072,2086
2114,2072,2044,2039,2043,2074,2065,2080
2114,2070,2036,2034,2035,2074,2057,2062
2085,2057,2033,2032,2034,2067,2051,2050
2055,2050,2031,2033,2039,2067,2072,2045
2044,2042,2026,2021,2036,2067,2056,2030
2034,2040,2025,2018,2029,2078,2054,2035
2033,2040,2032,2021,2019,2083,2067,2036
1998,2042,2041,2024,2015,2073,2072,2018
1976,2035,2039,2025,2005,2053,2047,2011
1969,2032,2033,2017,2001,2046,2055,2006
1957,2029,2032,2019,2028,2061,2062,2004
1957,2032,2044,2042,2066,2070,2037,1998
1961,2017,2031,2040,2057,2042,2032,2000
1982,2024,2030,2032,2054,2043,2025,2015
2032,2046,2045,2050,2066,2063,2052,2024
2055,2048,2053,2051,2072,2077,2058,2019
2062,2044,2055,2047,2066,2081,2050,1998
2035,2036,2050,2045,2063,2080,2050,1985
2020,2033,2049,2045,2067,2082,2058,1973
2022,2037,2055,2048,2075,2084,2049,1988
2044,2036,2053,2049,2082,2093,2023,2000
2046,2040,2048,2046,2080,2107,2046,2030
2037,2042,2042,2048,2080,2114,2062,2043
1986,2026,2040,2048,2076,2129,2064,2056
1985,2033,2038,2045,2079,2127,2087,2084
2001,2034,2036,2040,2078,2109,2071,2088
2008,2040,2039,2040,2073,2098,2050,2090
2024,2042,2037,2039,2069,2090,2063,2078
2009,2042,2024,2032,2057,2044,2031,2064
1974,2025,2022,2029,2050,1987,2027,2066
2014,2040,2032,2036,2045,1979,2035,2084
2098,2060,2045,2039,2034,1982,2033,2080
2108,2065,2041,2039,2034,1993,2038,2067
2077,2066,2039,2037,2041,2011,2037,2054
2056,2056,2042,2035,2040,2033,2031,2047
2033,2046,2038,2034,2045,2043,2020,2040
2027,2047,2038,2037,2052,2048,2045,2041
2027,2053,2040,2041,2050,2053,2050,2036
2037,2061,2035,2042,2054,2069,2056,2042
2045,2056,2036,2034,2051,2070,2049,2050
2052,2050,2042,2026,2026,2066,2034,2039
2056,2057,2041,2025,2007,2063,2026,2037
2044,2046,2041,2018,1978,2039,2027,2023
2046,2041,2032,2010,1942,2016,2023,2022
2055,2047,2038,2012,1940,1989,2011,2017
2051,2038,2026,2000,1956,1965,2011,2025
2051,2042,2026,2012,2017,1999,2049,2039
2081,2071,2055,2057,2089,2048,2056,2050
2074,2077,2067,2067,2129,2066,2046,2052
2064,2061,2064,2075,2148,2069,2038,2050
2058,2059,2064,2070,2136,2071,2039,2065
2072,2063,2069,2067,2098,2066,2055,2069
2090,2079,2073,2062,2077,2052,2066,2061
2075,2071,2065,2056,2064,2045,2049,2053
2064,2062,2065,2057,2061,2055,2043,2053
2059,2051,2057,2053,2066,2061,2060,2057
2057,2048,2055,2047,2062,2061,2051,2061
2055,2050,2048,2049,2063,2061,2055,2067
2046,2057,2059,2042,2064,2050,2045,2069
2055,2059,2060,2048,2058,2047,2054,2070
2055,2054,2056,2049,2061,2059,2056,2084
2057,2053,2052,2046,2062,2048,2055,2066
2043,2039,2039,2042,2059,2039,2028,2063
2038,2035,2032,2041,2057,2046,2038,2062
2053,2056,2046,2046,2057,2054,2068,2056
2041,2053,2046,2045,2065,2047,2044,2057
2028,2052,2041,2039,2057,2041,2059,2068
2038,2051,2044,2030,2057,2050,2067,2075
2055,2038,2040,2036,2056,2061,2073,2086
2075,2034,2041,2029,2055,2052,2072,2075
2075,2037,2037,2036,2058,2067,2081,2070
2077,2034,2041,2041,2068,2059,2076,2062
2064,2039,2038,2051,2066,2052,2068,2049
2046,2026,2041,2048,2063,2035,2049,2038
2029,2015,2026,2049,2062,2038,2058,2029
2044,2028,2028,2047,2072,2071,2067,2024
2060,2043,2032,2054,2077,2097,2081,2028
2100,2068,2038,2052,2078,2096,2063,2016
2104,2055,2023,2036,2056,2108,2026,2004
2085,2040,2019,2030,2042,2157,2040,2016
2073,2049,2029,2036,2056,2224,2059,2035
2057,2057,2034,2044,2068,2225,2040,2031
2027,2053,2041,2052,2064,2158,2023,2032
2007,2054,2045,2046,2060,2048,2004,2030
2004,2044,2044,2042,2053,2006,2008,2030
2006,2029,2036,2043,2052,2025,2033,2038
1995,2025,2038,2046,2058,2058,2029,2044
2020,2048,2039,2050,2066,2068,2041,2059
2058,2062,2052,2049,2073,2063,2042,2060
2066,2061,2046,2054,2072,2061,2040,2069
2052,2053,2046,2050,2077,2052,2044,2069
2031,2046,2046,2052,2076,2043,2056,2062
1979,2024,2045,2054,2073,2040,2069,2044
1916,2011,2043,2054,2069,2047,2035,2039
1886,2005,2045,2043,2058,2038,2018,2019
1853,1978,2024,2019,2026,1981,1994,2002
1858,1973,2017,2012,2005,1956,1995,2020
1893,1999,2034,2029,2014,1962,2008,2038
1938,2014,2034,2031,2018,2001,2016,2041
1934,2013,2035,2036,2022,2023,2027,2037
1918,2015,2035,2030,2025,2029,2035,2041
1928,2022,2044,2039,2037,2035,2042,2055
1980,2038,2047,2041,2044,2050,2041,2070
2055,2060,2047,2045,2042,2046,2062,2076
2117,2085,2059,2043,2046,2041,2073,2076
2169,2100,2070,2047,2043,2042,2092,2059
2167,2099,2061,2048,2049,2037,2060,2055
2156,2087,2060,2045,2045,2032,2060,2054
2114,2066,2048,2036,2039,2023,2066,2041
2074,2056,2044,2035,2029,2014,2044,2035
2054,2056,2043,2037,2037,2016,2048,2036
2045,2047,2041,2035,2034,2018,2038,2030
2023,2040,2050,2038,2045,2038,2052,2022
2033,2046,2065,2055,2063,2071,2084,2040
2073,2066,2072,2054,2073,2077,2054,2026
2071,2067,2070,2057,2073,2092,2050,2009
2065,2057,2066,2058,2070,2100,2048,2000
2087,2067,2062,2054,2060,2092,2035,2002
2098,2059,2058,2043,2051,2113,2041,2009
2065,2050,2057,2046,2050,2121,2046,2019
2036,2048,2053,2040,2047,2074,2048,2036
2028,2038,2043,2034,2035,2027,2035,2055
2019,2035,2039,2040,2045,1998,2039,2067
2001,2027,2042,2040,2069,2035,2052,2065
1980,2033,2044,2040,2064,2060,2049,2052
1978,2044,2054,2034,2064,2070,2043,2067
2030,2062,2051,2044,2052,2043,2047,2080
2103,2066,2047,2036,2038,1988,2006,2084
2100,2040,2038,2029,2043,1968,2036,2082
2070,2034,2035,2035,2052,1991,2029,2082
2061,2043,2043,2036,2064,2005,2004,2083
2053,2040,2042,2031,2052,2017,2006,2069
2040,2032,2039,2034,2043,2021,2022,2062
2038,2041,2045,2033,2043,2021,2030,2048
2038,2044,2046,2036,2042,2031,2027,2038
2060,2059,2053,2035,2046,2052,2037,2037
2093,2072,2057,2031,2048,2042,2064,2040
2090,2069,2053,2036,2052,2044,2038,2048
2084,2062,2054,2038,2068,2064,2073,2049
2072,2058,2056,2042,2065,2081,2065,2047
2070,2059,2058,2048,2072,2081,2068,2048
2072,2057,2061,2050,2069,2093,2068,2037
2066,2057,2053,2045,2070,2103,2061,2039
2068,2052,2047,2038,2055,2098,2058,2016
2051,2024,2028,2017,2038,2104,2051,2020
2039,2021,2022,2024,2037,2105,2062,2039
2066,2043,2040,2030,2035,2045,2049,2042
2071,2046,2041,2035,2024,1947,2034,2042
2071,2053,2044,2036,2022,1964,2054,2044
2069,2048,2038,2029,2027,2007,2020,2044
2061,2045,2035,2036,2044,2031,2014,2039
2065,2046,2032,2032,2057,2036,2032,2046
2075,2051,2032,2032,2071,2059,2056,2052
2059,2056,2037,2038,2066,2060,2064,2058
2055,2051,2035,2039,2059,2071,2053,2060
2056,2047,2032,2038,2061,2071,2023,2060
2056,2045,2027,2031,2059,2077,2015,2066
2049,2038,2035,2030,2059,2097,2046,2067
2045,2039,2030,2028,2050,2086,2044,2081
2049,2045,2030,2032,2048,2080,2040,2074
2031,2018,2025,2013,2031,2057,1998,2054
2031,2022,2031,2023,2025,2050,2021,2057
2039,2036,2060,2032,2029,2052,2028,2067
2029,2033,2060,2032,2038,2042,2030,2083
2047,2036,2061,2042,2051,2034,2050,2091
2066,2039,2055,2043,2064,2012,2051,2085
2068,2042,2055,2046,2071,2002,2056,2079
2100,2055,2069,2049,2080,1987,2046,2069
2088,2052,2072,2052,2070,1992,2062,2053
2065,2048,2067,2046,2072,2014,2045,2044
2084,2062,2068,2043,2076,2052,2047,2033
2088,2071,2075,2048,2082,2068,2060,2035
2084,2068,2068,2046,2078,2080,2055,2037
2080,2052,2058,2035,2057,2075,2053,2028
2073,2042,2057,2034,2062,2086,2063,2028
2064,2056,2062,2041,2060,2066,2059,2028
2040,2040,2048,2030,2041,2037,2043,2021
2022,2026,2042,2028,2041,2041,2050,2030
2033,2034,2046,2041,2065,2068,2072,2036
2019,2037,2048,2041,2072,2074,2088,2032
2020,2034,2052,2044,2065,2076,2069,2022
2019,2034,2045,2045,2063,2058,2052,2028
2020,2031,2045,2042,2061,2072,2061,2038
2020,2027,2051,2044,2055,2064,2064,2030
2029,2025,2051,2035,2030,2057,2047,2031
2043,2033,2049,2038,2036,2092,2077,2044
2069,2045,2055,2040,2041,2077,2080,2059
2066,2050,2056,2043,2030,2053,2073,2068
2055,2047,2062,2045,2033,2030,2057,2068
2050,2048,2053,2039,2049,2018,2066,2063
2043,2045,2061,2042,2090,2010,2029,2064
2046,2052,2065,2049,2124,2015,2032,2071
2051,2047,2050,2033,2122,1991,2019,2058
2034,2026,2036,2027,2130,1996,2022,2062
2043,2040,2048,2040,2143,2020,2064,2069
2057,2054,2060,2049,2116,2046,2080,2070
2061,2064,2067,2054,2113,2049,2071,2057
2057,2054,2056,2044,2083,2061,2069,2043
2050,2040,2045,2035,2030,2086,2078,2042
2051,2042,2044,2022,1886,2069,2071,2034
2042,2041,2042,2004,1863,2040,2054,2037
2060,2049,2045,2029,1962,2064,2052,2031
2046,2045,2045,2046,2043,2080,2068,2024
2007,2030,2041,2056,2081,2095,2068,2008
1993,2018,2034,2048,2088,2120,2062,2012
2040,2032,2040,2040,2056,2106,2063,2023
2104,2067,2056,2037,2028,2053,2042,2031
2117,2073,2051,2030,1989,1991,2039,2033
2092,2050,2030,2012,1945,1944,1999,2017
2026,2024,2027,2009,1942,1950,2007,2004
1996,2033,2041,2025,1972,1965,2021,2002
1986,2044,2054,2034,1992,1983,2032,2013
1987,2058,2058,2037,2008,1999,2047,2032
2033,2061,2050,2049,2022,2029,2062,2052
2137,2090,2058,2054,2030,2054,2086,2070
2145,2087,2057,2059,2044,2080,2092,2073
2099,2072,2052,2052,2048,2100,2059,2057
2044,2046,2041,2045,2045,2110,2058,2043
2023,2043,2033,2042,2063,2105,2059,2045
2023,2039,2041,2027,2032,2085,2077,2063
2036,2044,2046,2021,2002,2073,2081,2059
2036,2042,2052,2025,2012,2101,2085,2048
2034,2039,2053,2020,2034,2092,2063,2052
2034,2036,2049,2010,1978,2046,2029,2046
2027,2030,2041,2006,1997,1999,2019,2034
2025,2026,2046,2037,2091,2053,2072,2040
2032,2043,2060,2067,2170,2139,2083,2055
2056,2060,2067,2079,2183,2123,2059,2049
2062,2058,2057,2077,2179,1978,2022,2044
2067,2060,2052,2075,2182,1938,2034,2046
2054,2054,2045,2073,2192,2021,2022,2048
2043,2051,2048,2068,2188,2077,2033,2038
2029,2053,2051,2069,2220,2097,2028,2035
2074,2070,2056,2082,2217,2112,2064,2046
2107,2074,2060,2090,2250,2085,2072,2052
2104,2068,2053,2088,2257,2078,2076,2042
2075,2052,2044,2086,2237,2090,2054,2035
2057,2032,2037,2052,2156,2094,2037,2027
2044,2026,2018,2023,2036,2077,2054,2023
2050,2023,2031,2009,1993,2075,2024,2019
2056,2038,2042,2017,1986,2055,2018,1998
2043,2028,2032,2022,1916,1994,2019,2001
2038,2020,2034,2016,1857,1979,2042,2010
2041,2022,2042,2016,1910,2004,2056,2015
2039,2030,2044,2036,1967,2031,2064,2018
2041,2038,2046,2051,2008,2050,2076,2022
2045,2031,2042,2049,2048,2083,2073,2020
2044,2032,2043,2045,2067,2097,2068,2026
2048,2041,2042,2038,2061,2092,2053,2036
2049,2038,2039,2038,2063,2091,2049,2043
2051,2041,2042,2048,2078,2076,2037,2049
2058,2040,2042,2056,2110,2036,2066,2069
2055,2036,2042,2057,2107,2030,2060,2072
2046,2025,2029,2033,2074,2043,2042,2061
2037,2015,2021,2015,2018,2072,2017,2050
2032,2015,2020,2012,1983,2069,2010,2046
2035,2026,2022,2008,1941,2047,1977,2043
2020,2008,2012,1988,1921,2036,1988,2044
2031,2027,2029,2026,1962,1998,2019,2072
2058,2056,2056,2043,1967,1932,2026,2075
2056,2054,2058,2049,1981,1962,2039,2073
2063,2053,2053,2062,2066,2036,2064,2074
2066,2056,2052,2068,2108,2087,2084,2071
2070,2055,2054,2068,2097,2103,2078,2065
2070,2057,2051,2064,2076,2097,2072,2053
2069,2060,2056,2064,2073,2057,2049,2043
2061,2058,2055,2066,2106,2024,2022,2020
2049,2056,2046,2060,2115,2018,2007,2013
2059,2054,2056,2055,2100,2039,2019,2021
2067,2053,2061,2056,2100,2053,2041,2019
2070,2055,2061,2042,2068,2024,2043,2015
2061,2049,2048,2004,1918,1966,2021,2008
2052,2047,2043,1972,1819,1932,2009,1990
2033,2028,2028,1977,1921,1962,1998,1991
2043,2031,2038,2004,2045,2023,2041,2010
2058,2047,2057,2048,2135,2070,2075,2021
2051,2042,2058,2063,2156,2069,2094,2038
2059,2053,2062,2057,2151,2063,2059,2036
2046,2050,2056,2054,2124,2059,2052,2026
2039,2051,2063,2055,2120,2054,2050,2026
2042,2042,2055,2042,2105,2044,2034,2044
2044,2040,2050,2047,2099,2044,2025,2060
2052,2032,2047,2043,2084,2046,2037,2072
2050,2033,2048,2044,2079,2052,2056,2068
2058,2047,2054,2044,2055,2053,2039,2071
2075,2058,2060,2037,2037,2056,2055,2073
2071,2056,2052,2030,2032,2072,2083,2076
2073,2054,2051,2035,2036,2084,2054,2077
2077,2059,2057,2035,2032,2094,2074,2070
2037,2035,2041,2024,2031,2092,2071,2065
2022,2022,2040,2026,2044,2084,2074,2071
2046,2062,2068,2042,2055,2050,2069,2067
2054,2066,2062,2039,2041,2020,2067,2067
2059,2064,2053,2036,2047,2030,2053,2062
2052,2056,2048,2041,2098,2060,2047,2047
2041,2040,2049,2046,2132,2090,2050,2041
2040,2050,2056,2061,2167,2118,2060,2039
2051,2064,2064,2070,2136,2112,2064,2043
2061,2064,2058,2048,2066,2068,2056,2041
2058,2052,2056,2031,2009,2020,2046,2040
2061,2056,2057,2030,1985,2008,2056,2026
2043,2052,2050,2026,1981,2006,2040,2024
2037,2042,2040,2025,1991,2007,2049,2019
2048,2054,2045,2041,2031,2032,2045,2023
2064,2057,2046,2065,2097,2082,2071,2021
2050,2027,2025,2068,2161,2092,2053,2016
2031,2015,2015,2054,2164,2097,2072,2016
2048,2034,2026,2052,2157,2121,2053,2017
2043,2032,2018,2044,2152,2120,2026,2016
2028,2032,2030,2071,2168,2095,2052,2014
2025,2042,2037,2080,2140,2078,2047,2025
2045,2044,2041,2056,2059,2046,2041,2048
2065,2036,2030,2012,1935,1990,2033,2059
2057,2030,2024,1995,1919,1959,2033,2058
2050,2031,2030,2008,1985,1969,2025,2055
2044,2041,2044,2024,1995,2011,2062,2055
2056,2045,2053,2037,2038,2050,2077,2053
2052,2041,2055,2040,2036,2076,2071,2058
2056,2044,2060,2046,2015,2076,2065,2062
2053,2047,2066,2046,2024,2105,2090,2067
2054,2050,2061,2045,2052,2131,2086,2064
2036,2031,2048,2041,2061,2150,2079,2063
2029,2031,2049,2040,2064,2162,2077,2066
2039,2053,2060,2030,2027,2107,2082,2065
2042,2070,2069,2041,1998,1990,2058,2071
2043,2071,2076,2043,2012,2006,2059,2076
2044,2064,2069,2038,2040,2045,2049,2051
2045,2066,2070,2053,2063,2041,2042,2048
2044,2056,2058,2046,2062,2034,2022,2023
2031,2035,2040,2024,2013,2025,2044,2014
2019,2017,2035,1993,1908,1994,2049,2006
2023,2020,2038,1980,1888,1985,2037,2001
2020,2026,2043,1993,1947,2002,2026,2002
2018,2027,2037,2016,2006,2007,2032,2022
2048,2041,2054,2063,2069,2035,2069,2040
2071,2061,2069,2083,2088,2069,2082,2050
2086,2060,2071,2075,2054,2056,2063,2045
2075,2042,2040,2026,1954,1991,2018,2016
2046,2022,2023,2008,1989,1954,2013,2018
2051,2040,2051,2058,2113,1963,2066,2040
2066,2055,2068,2073,2159,1987,2055,2027
2059,2053,2068,2065,2161,1988,2041,2026
2053,2037,2048,2031,2113,1995,2057,2018
2043,2024,2036,2006,1998,2014,2052,2022
2037,2017,2038,1996,1944,2072,2053,2030
2027,2018,2040,2020,1996,2098,2045,2040
2037,2017,2043,2051,2121,2152,2068,2045
2054,2041,2059,2080,2179,2170,2068,2057
2064,2053,2074,2100,2209,2164,2050,2067
2057,2056,2076,2103,2237,2155,2072,2068
2043,2052,2064,2087,2224,2145,2051,2062
2033,2039,2040,2048,2116,2065,2051,2055
2030,2033,2036,2051,2112,1968,2038,2080
2052,2025,2032,2061,2130,1937,2046,2072
2041,1995,2010,2051,2097,1970,2048,2055
2030,1993,2013,2052,2069,1998,2021,2031
2010,1989,2012,2035,2002,1966,2015,2021
2005,1987,2016,2013,1867,1960,2021,2034
2009,2015,2039,1999,1804,2031,2028,2035
2046,2051,2052,1991,1777,2052,2005,2037
2059,2053,2033,1969,1762,2054,2003,2010
2055,2046,2021,1958,1829,2055,2005,1992
2036,2053,2026,1972,1915,2013,2016,2014
2037,2059,2044,2009,2011,2017,2063,2022
2035,2053,2043,2040,2108,2082,2066,2021
2025,2042,2041,2060,2244,2148,2056,2011
2028,2044,2056,2100,2334,2155,2063,2019
2034,2050,2065,2126,2370,2135,2051,2025
2042,2046,2057,2124,2346,2108,2045,2015
2039,2035,2045,2092,2245,2069,2027,2008
2028,2009,2027,2056,2044,2084,2060,2009
2036,2007,2040,2069,2020,2135,2093,2036
2057,2017,2040,2067,2031,2139,2084,2053
2057,2009,2032,2049,2007,2095,2037,2042
2047,2007,2026,2029,1997,2012,1998,2020
2037,1993,2008,2005,1956,1888,1973,2031
2013,1982,1994,1990,1969,1928,1976,2004
1986,1988,2006,2007,2016,2009,2010,1990
1997,2016,2033,2033,2065,2033,2053,2026
2055,2044,2061,2072,2144,2035,2082,2054
2061,2050,2063,2074,2155,2041,2075,2050
2047,2038,2050,2064,2136,2052,2050,2050
2035,2034,2036,2050,2118,2073,2067,2056
2035,2038,2039,2052,2111,2080,2078,2050
2040,2038,2038,2047,2088,2048,2066,2059
2048,2048,2045,2046,2040,1997,2046,2069
2033,2022,2034,2039,2016,1999,2031,2072
2036,2008,2026,2037,2021,2023,2039,2074
2045,2015,2018,2026,2008,2042,2029,2058
2030,2000,1998,2021,2058,2088,2010,2052
2044,2023,2022,2044,2114,2144,2058,2042
2062,2044,2043,2056,2112,2184,2070,2049
2093,2058,2052,2061,2124,2177,2078,2091
2137,2071,2067,2082,2176,2123,2062,2076
2108,2063,2061,2099,2204,2123,2074,2045
2099,2064,2080,2111,2159,2125,2058,2040
2090,2074,2082,2096,2125,2133,2059,2046
2074,2068,2068,2053,2006,2095,2063,2029
2065,2058,2054,1984,1792,2052,2048,2014
2026,2052,2050,1967,1803,2023,2011,2005
1982,2055,2040,1973,1840,1970,1991,1991
2002,2059,2038,1972,1788,1932,1967,1976
1998,2035,2021,1992,1829,1889,1984,1993
2032,2060,2042,2074,2014,1897,2036,2030
2085,2105,2077,2133,2160,2002,2067,2042
2076,2090,2074,2135,2231,2073,2075,2053
2074,2076,2073,2117,2217,2074,2061,2054
2071,2072,2062,2102,2171,2041,2065,2045
2063,2064,2060,2092,2127,2044,2069,2037
2067,2059,2052,2076,2092,2068,2047,2036
2052,2051,2049,2056,2085,2081,2041,2035
2053,2048,2052,2056,2100,2068,2040,2052
2058,2049,2053,2052,2073,2043,2038,2059
2057,2047,2060,2038,2035,2024,2028,2067
2063,2039,2049,2028,2041,2015,2014,2060
2055,2038,2040,2041,2096,2010,2010,2063
2050,2037,2041,2058,2136,2027,2016,2079
2053,2041,2045,2068,2130,2025,2013,2065
2045,2039,2042,2056,2066,2031,2018,2047
2025,2039,2052,2045,2008,2059,2038,2066
2041,2056,2060,2045,2006,2071,2048,2056
2039,2043,2056,2045,2007,2066,2042,2057
2034,2049,2057,2048,1993,2034,2038,2051
2044,2045,2056,2052,2024,2010,2039,2037
2043,2041,2045,2063,2047,2011,2046,2031
2035,2035,2043,2079,2112,2029,2045,2042
2041,2054,2077,2114,2169,2056,2068,2054
2062,2080,2094,2132,2169,2064,2064,2052
2059,2068,2086,2120,2165,2082,2043,2049
2059,2060,2074,2110,2122,2076,2028,2036
2054,2064,2077,2104,2111,2073,2031,2032
2052,2050,2069,2098,2130,2085,2031,2025
2043,2043,2050,2077,2114,2068,2029,2019
2036,2038,2034,2067,2132,2079,2034,2013
2029,2038,2030,2076,2162,2101,2058,2020
2045,2048,2045,2081,2152,2109,2059,2033
2069,2068,2047,2077,2125,2102,2033,2023
2051,2049,2027,2050,2072,2072,2017,2022
2055,2044,2026,2034,2049,2051,2041,2011
2037,2042,2022,2019,2022,2028,2035,2029
2038,2042,2005,2017,2077,2031,2038,2052
2055,2042,2014,2046,2155,2024,2048,2065
2059,2041,2029,2056,2133,2015,2058,2072
2062,2038,2032,2068,2101,2036,2056,2077
2075,2052,2048,2074,2078,2054,2077,2085
2073,2040,2034,2057,2074,2060,2055,2076
2070,2031,2018,2048,2005,2053,2044,2085
2083,2035,2019,2051,2020,2084,2061,2088
2072,2031,2022,2065,1994,2097,2064,2077
2072,2036,2030,2060,1953,2096,2079,2077
2065,2013,2016,2048,1959,2087,2056,2074
2048,2014,2015,2054,2006,2100,2059,2094
2065,2042,2036,2066,2060,2108,2071,2075
2060,2049,2036,2040,2078,2062,2044,2029
1997,2014,2016,2035,2132,2029,2019,2005
2010,2021,2034,2056,2119,2036,2014,2011
2044,2052,2062,2060,2071,2043,2023,2024
2038,2053,2074,2053,2037,2021,2022,2039
2037,2056,2073,2033,2030,2011,2029,2045
2037,2064,2076,2029,2050,2031,2046,2045
2032,2083,2095,2039,2074,2062,2044,2043
2038,2093,2096,2040,2116,2072,2063,2039
2056,2092,2089,2052,2174,2078,2051,2035
2058,2084,2085,2057,2193,2077,2054,2034
2056,2080,2086,2058,2171,2046,2055,2028
2051,2068,2082,2049,2097,2005,2026,2026
2037,2054,2070,2031,2048,1983,2016,2023
2038,2043,2064,2049,2047,1992,2016,2028
2046,2053,2076,2084,2081,2003,2033,2031
2058,2057,2077,2078,2076,2017,2016,2030
2056,2055,2069,2056,1997,2037,2008,2026
2050,2047,2062,2037,1929,2045,2015,2024
2046,2049,2068,2062,1986,2060,2027,2028
2045,2044,2071,2073,2041,2054,2046,2044
2052,2054,2079,2097,2103,2056,2050,2055
2056,2052,2078,2128,2142,2068,2064,2057
2058,2049,2067,2153,2173,2082,2067,2070
2065,2044,2057,2151,2190,2079,2075,2068
2055,2041,2041,2132,2146,2076,2061,2066
2058,2038,2021,2106,2109,2070,2043,2066
2055,2028,2002,2102,2105,2087,2044,2068
2043,2023,1986,2098,2124,2098,2042,2052
2022,2006,1962,2076,2118,2070,2018,2037
2005,1996,1949,2043,2110,2048,2011,2032
2008,2007,1959,2033,2141,2046,2030,2044
2005,2010,1950,2016,2076,2038,2012,2043
2017,2020,1954,2008,2044,2033,2021,2039
2037,2040,1989,2024,2088,2031,2034,2059
2053,2059,2018,2030,2085,2032,2027,2056
2046,2046,2030,2024,2044,2029,2023,2046
2045,2048,2041,2016,2035,2014,2024,2042
2046,2044,2041,2007,2015,1997,2011,2034
2030,2031,2034,1999,2004,1994,2021,2025
2031,2045,2052,2012,1995,2015,2035,2026
2047,2053,2053,2023,1991,2019,2025,2029
2064,2057,2049,2052,2066,2024,2014,2041
2064,2055,2056,2065,2110,2033,2025,2033
2051,2040,2048,2050,2114,2036,2025,2018
2045,2034,2037,2024,2068,2030,2017,2002
2007,2018,2030,2023,2042,2040,2026,1992
2001,2023,2044,2041,2066,2060,2049,2018
2033,2046,2054,2050,2066,2067,2055,2027
2037,2048,2046,2046,2053,2059,2040,2026
2044,2040,2054,2037,2026,2030,2037,2025
2037,2045,2059,2034,1991,2015,2042,2025
2042,2049,2068,2051,1993,2046,2052,2043
2054,2058,2076,2059,2020,2077,2066,2051
2060,2053,2084,2087,2107,2109,2067,2055
2058,2044,2111,2109,2148,2104,2070,2064
2051,2040,2122,2123,2134,2089,2074,2077
2050,2032,2121,2136,2140,2085,2076,2066
2034,2021,2109,2124,2115,2064,2054,2055
2033,2028,2111,2140,2106,2070,2040,2053
2024,2036,2103,2144,2109,2068,2034,2038
1997,2036,2089,2135,2098,2048,2001,2028
1992,2015,2061,2133,2117,2058,2001,2051
2016,2025,2056,2137,2143,2063,2025,2062
2051,2056,2056,2133,2135,2048,2038,2061
2065,2066,2052,2129,2149,2028,2035,2057
2058,2069,2052,2125,2151,2009,2046,2048
2047,2070,2045,2106,2122,2011,2031,2048
2036,2069,2024,2070,2029,2007,2028,2040
2042,2068,2018,2037,1931,1988,2008,2030
2050,2069,2017,2029,1948,1983,2023,2031
2056,2067,2016,2016,1976,2006,2022,2037
2064,2052,1999,1994,2038,2041,2047,2044
2060,2047,1981,1984,2056,2079,2053,2045
2072,2055,1992,1983,2093,2117,2074,2036
2079,2058,2008,2009,2107,2131,2084,2036
2078,2057,2017,2014,2104,2103,2048,2031
2057,2050,2025,2011,2092,2024,2060,2030
2034,2029,2034,2014,2067,1997,2056,2029
2020,2028,2056,2027,2096,2038,2083,2030
2038,2056,2091,2065,2123,2068,2097,2040
2049,2057,2097,2072,2112,2084,2083,2039
2056,2070,2086,2075,2104,2070,2074,2033
2062,2068,2065,2073,2092,2042,2055,2031
2064,2067,2048,2069,2083,2007,2042,2043
2067,2065,2032,2069,2073,2003,2040,2053
2066,2065,2011,2065,2077,2010,2044,2065
2064,2057,2012,2069,2084,2012,2050,2059
2070,2057,2005,2077,2084,2001,2036,2058
2062,2058,2010,2073,2081,2004,2054,2062
2061,2062,2002,2075,2082,2011,2049,2065
2066,2075,2005,2078,2084,2032,2024,2063
2059,2062,2001,2065,2070,2031,2013,2059
2050,2056,2002,2039,2060,2039,1996,2046
2034,2024,1988,2018,2052,2064,2014,2044
2031,2018,2001,2026,2051,2101,2030,2052
2044,2037,2037,2040,2047,2091,2024,2053
2040,2039,2052,2041,2047,2055,2018,2044
2040,2032,2059,2043,2035,2034,2037,2051
2035,2034,2074,2044,2027,2027,2033,2045
2027,2030,2084,2052,2038,2030,2038,2036
2025,2054,2101,2068,2054,2040,2054,2044
2035,2065,2103,2087,2076,2056,2050,2043
2042,2056,2086,2087,2084,2053,2045,2031
2040,2037,2058,2085,2089,2060,2043,2029
2044,2026,2039,2080,2088,2057,2035,2036
2061,2034,2037,2080,2091,2065,2043,2042
2060,2043,2039,2074,2096,2068,2062,2038
2056,2053,2047,2071,2098,2075,2051,2040
2062,2061,2054,2082,2094,2076,2059,2018
2052,2032,2034,2064,2080,2067,2054,2002
2038,2016,2013,2042,2072,2059,2066,2026
2056,2037,2018,2051,2082,2062,2067,2028
2060,2047,2021,2060,2074,2048,2067,2026
2058,2037,2017,2059,2067,2052,2080,2042
2066,2055,2049,2073,2080,2072,2079,2066
2079,2073,2068,2085,2091,2084,2081,2062
2067,2066,2072,2079,2091,2094,2078,2054
2061,2071,2060,2078,2091,2104,2090,2050
2065,2068,2077,2082,2092,2103,2094,2055
2059,2074,2096,2083,2094,2101,2099,2066
2054,2079,2105,2090,2100,2100,2098,2075
2068,2073,2093,2092,2099,2077,2104,2088
2061,2065,2067,2090,2097,2036,2098,2091
2054,2052,2065,2096,2093,2006,2089,2094
2052,2060,2069,2122,2105,1998,2073,2084
2045,2051,2059,2120,2087,1972,2055,2072
2045,2045,2058,2114,2068,1976,2050,2078
2047,2060,2053,2091,2052,1990,2040,2074
2052,2061,2062,2075,2042,2009,2040,2058
2044,2057,2074,2067,2047,2020,2040,2046
2040,2060,2082,2061,2059,2054,2054,2045
2056,2073,2087,2060,2057,2065,2062,2054
2075,2078,2091,2036,2061,2060,2048,2046
2061,2069,2088,2009,2038,2049,2032,2040
2042,2048,2068,1984,2018,2056,2026,2028
2037,2053,2090,1996,2042,2049,2053,2028
2043,2072,2106,2019,2058,2038,2057,2042
2065,2085,2121,2040,2074,2047,2068,2036
2072,2085,2106,2041,2076,2050,2058,2035
2066,2072,2093,2049,2079,2055,2053,2040
2053,2057,2079,2061,2075,2058,2056,2040
2046,2042,2063,2052,2067,2046,2036,2032
2044,2035,2053,2051,2056,2056,2040,2036
2055,2057,2067,2074,2069,2070,2039,2034
2051,2061,2075,2072,2060,2061,2042,2028
2050,2057,2068,2075,2063,2065,2039,2038
2045,2050,2057,2074,2068,2040,2037,2042
2049,2045,2053,2084,2073,2017,2055,2050
2053,2049,2050,2092,2080,2030,2050,2050
2060,2052,2054,2093,2084,2049,2049,2046
2059,2050,2052,2094,2092,2059,2056,2055
2057,2046,2057,2090,2086,2061,2050,2065
2056,2044,2048,2081,2077,2055,2052,2052
2046,2034,2038,2076,2076,2044,2050,2063
2047,2026,2028,2068,2070,2034,2042,2059
2042,2026,2022,2059,2066,2032,2022,2056
2043,2030,2018,2052,2063,2025,2007,2058
2024,2013,2009,2047,2047,2024,2014,2055
2018,2007,1998,2036,2040,2042,2020,2056
2022,2021,2000,2043,2043,2053,2041,2059
2030,2034,1998,2051,2037,2045,2034,2060
2042,2030,1995,2049,2043,2030,2032,2059
2050,2042,2005,2044,2045,2030,2042,2059
2057,2054,2027,2040,2044,2024,2048,2056
2052,2063,2034,2033,2041,2021,2042,2046
2053,2069,2055,2033,2047,2031,2045,2046
2056,2092,2088,2043,2061,2041,2062,2044
2076,2106,2111,2059,2062,2040,2056,2050
2082,2111,2116,2059,2049,2032,2041,2053
2080,2100,2109,2056,2030,2021,2047,2045
2070,2093,2109,2058,2027,2015,2043,2041
2075,2087,2113,2055,2041,2029,2041,2039
2066,2077,2103,2070,2063,2036,2049,2036
2056,2056,2088,2072,2076,2038,2038,2036
2066,2057,2096,2084,2093,2059,2045,2050
2074,2073,2126,2101,2095,2069,2060,2052
2075,2068,2120,2091,2056,2064,2041,2039
2063,2063,2112,2074,1969,2048,2021,2021
2050,2060,2101,2058,1896,2022,2006,2022
2054,2056,2092,2039,1840,1983,1991,2014
2055,2037,2063,2021,1842,1931,1992,2022
2048,2048,2074,2059,1943,1902,2040,2047
2065,2068,2090,2094,2076,1943,2051,2056
2072,2072,2085,2111,2148,2002,2053,2071
2070,2072,2082,2111,2179,2040,2042,2075
2070,2065,2071,2112,2183,2073,2062,2085
2068,2075,2080,2122,2183,2096,2076,2090
2039,2069,2074,2107,2148,2117,2051,2083
2041,2062,2047,2086,2126,2139,2039,2073
2035,2037,2026,2061,2099,2146,2031,2064
2037,2041,2031,2057,2091,2170,2065,2079
2058,2069,2054,2067,2087,2144,2070,2073
2065,2070,2058,2059,2069,2063,2052,2065
2059,2064,2047,2054,2054,2013,2058,2059
2055,2052,2037,2041,2056,2063,2063,2067
2052,2060,2044,2049,2064,2096,2070,2060
2064,2072,2056,2074,2073,2082,2065,2054
2071,2075,2064,2089,2104,2056,2072,2052
2063,2069,2070,2094,2118,2068,2066,2037
2057,2060,2048,2098,2106,2074,2057,2038
2057,2054,2050,2096,2084,2065,2053,2036
2062,2054,2045,2094,2073,2056,2046,2027
2063,2060,2048,2088,2080,2062,2047,2023
2062,2057,2050,2081,2088,2072,2062,2021
2053,2050,2041,2065,2081,2069,2056,2011
2047,2031,2021,2056,2062,2062,2046,2009
2038,2031,2017,2051,2059,2066,2054,2021
2051,2048,2037,2068,2069,2070,2057,2030
2052,2047,2040,2067,2057,2071,2031,2039
2057,2056,2036,2065,2056,2065,2038,2044
2067,2059,2038,2072,2053,2072,2058,2039
2059,2056,2036,2068,2036,2077,2049,2043
2054,2049,2034,2062,2022,2058,2044,2040
2055,2044,2030,2053,1999,2038,2039,2045
2052,2041,2030,2051,2002,2001,2042,2053
2052,2033,2025,2052,2025,1982,2035,2065
2052,2036,2032,2078,2058,2003,2025,2075
2054,2047,2053,2085,2077,2023,2036,2081
2053,2062,2079,2097,2081,2012,2019,2072
2054,2068,2089,2090,2079,2010,2037,2088
2057,2075,2082,2064,2061,2028,2029,2082
2042,2034,2035,2026,2049,2033,2047,2076
2032,2026,2032,2023,2045,2054,2051,2084
2062,2062,2059,2051,2060,2066,2071,2082
2068,2074,2068,2052,2059,2057,2051,2075
2068,2073,2072,2049,2041,2052,2051,2078
2065,2066,2071,2056,2037,2050,2047,2072
2065,2071,2070,2053,2043,2042,2054,2064
2062,2072,2061,2062,2043,2044,2049,2053
2061,2073,2059,2059,2046,2040,2042,2054
2063,2066,2046,2053,2047,2037,2052,2043
2057,2056,2039,2056,2046,2023,2032,2032
2057,2056,2046,2062,2050,2030,2044,2039
2060,2062,2051,2067,2038,2037,2054,2038
2066,2053,2036,2058,2033,2016,2024,2042
2062,2046,2026,2053,2029,2017,2035,2032
2063,2051,2032,2058,2028,2025,2048,2025
2040,2035,2025,2044,2018,2013,2027,2023
2037,2027,2040,2056,2015,2015,2037,2033
2048,2044,2056,2069,2040,2040,2059,2030
2044,2044,2060,2081,2051,2051,2058,2025
2042,2039,2061,2076,2056,2049,2062,2018
2036,2030,2052,2077,2048,2041,2047,2032
2038,2043,2076,2089,2057,2053,2050,2034
2050,2066,2102,2102,2060,2059,2062,2045
2057,2072,2107,2102,2063,2059,2056,2048
2058,2072,2110,2099,2064,2060,2047,2051
2059,2076,2118,2097,2061,2056,2053,2062
2051,2070,2108,2094,2053,2057,2055,2061
2061,2073,2105,2084,2045,2056,2046,2061
2060,2062,2086,2079,2051,2061,2058,2068
2062,2052,2075,2076,2050,2046,2060,2078
2057,2045,2060,2076,2043,2019,2065,2072
2041,2036,2036,2060,2020,1992,2016,2060
2033,2027,2016,2042,2003,1997,2022,2066
2045,2051,2030,2049,1992,2015,2042,2076
2062,2055,2031,2050,1996,2030,2042,2080
2062,2057,2032,2054,2004,2030,2041,2082
2070,2056,2033,2052,2022,2021,2063,2079
2073,2049,2022,2056,2036,2042,2041,2063
2056,2046,2018,2048,2040,2040,2037,2047
2052,2044,2020,2054,2051,2046,2041,2056
2059,2050,2025,2061,2055,2042,2045,2053
2068,2054,2026,2058,2073,2077,2088,2047
2076,2057,2027,2060,2088,2120,2080,2042
2069,2055,2020,2044,2096,2133,2076,2042
2065,2051,2017,2048,2082,2131,2070,2036
2056,2046,2010,2037,2068,2110,2055,2028
2051,2049,2014,2036,2060,2070,2049,2024
2048,2046,2010,2029,2036,1959,2015,2020
2051,2046,2018,2024,2022,1919,2014,2025
2065,2065,2032,2029,2011,1953,2023,2043
2075,2069,2048,2032,1992,1987,2033,2046
2074,2072,2056,2029,1982,2010,2047,2048
2073,2074,2061,2026,1985,2016,2019,2038
2070,2070,2076,2025,2000,2019,2033,2048
2068,2068,2083,2023,2009,2012,2034,2046
2064,2066,2092,2031,2020,2008,2013,2054
2054,2065,2098,2043,2022,2001,2013,2055
2060,2066,2105,2053,2036,1993,2020,2057
2059,2063,2107,2064,2044,1989,2038,2066
2051,2054,2097,2068,2060,2001,2038,2068
2053,2052,2091,2072,2065,2013,2043,2076
2060,2050,2080,2074,2058,2018,2021,2084
2059,2054,2074,2081,2056,2003,2040,2090
2062,2043,2067,2073,2037,1979,2039,2082
2050,2039,2060,2065,2031,1983,2033,2076
2053,2054,2066,2078,2036,1989,2049,2081
2060,2060,2067,2076,2037,2000,2056,2077
2058,2062,2070,2084,2042,2019,2047,2063
2064,2056,2064,2084,2042,2033,2056,2058
2051,2050,2060,2080,2048,2047,2058,2060
2055,2053,2060,2078,2035,2063,2068,2054
2060,2054,2048,2067,2027,2066,2068,2050
2057,2048,2044,2064,2030,2092,2060,2049
2056,2037,2040,2053,2022,2117,2075,2045
2044,2038,2030,2041,2022,2114,2058,2045
2043,2033,2020,2036,2018,2096,2076,2047
2050,2037,2031,2036,2013,2071,2065,2044
2058,2037,2032,2034,2028,2061,2059,2042
2066,2055,2036,2048,2043,2056,2071,2029
2069,2055,2023,2033,2024,2038,2034,2019
2048,2030,2010,2030,2019,2038,2031,2018
2043,2037,2021,2040,2026,2063,2051,2028
2059,2053,2036,2051,2032,2065,2039,2037
2054,2059,2047,2056,2044,2062,2041,2040
2063,2071,2059,2060,2045,2060,2039,2040
2063,2078,2073,2062,2047,2054,2045,2037
2058,2075,2074,2061,2045,2045,2043,2043
2059,2077,2076,2058,2037,2048,2044,2047
2067,2071,2076,2053,2040,2070,2045,2052
2065,2070,2062,2047,2037,2084,2049,2064
2068,2064,2062,2049,2035,2082,2062,2071
2066,2060,2063,2055,2041,2073,2062,2079
2066,2060,2061,2061,2035,2069,2044,2086
2062,2056,2069,2063,2038,2051,2046,2088
2070,2054,2058,2061,2031,2050,2038,2083
2060,2047,2050,2045,2016,2011,2000,2061
2033,2037,2037,2039,2013,1985,1990,2056
2027,2037,2039,2049,2012,2003,2017,2078
2049,2062,2045,2054,2008,2004,2045,2080
2054,2062,2046,2056,2016,2006,2051,2077
2062,2061,2053,2055,2021,2015,2058,2075
2062,2058,2046,2045,2020,2028,2043,2064
2067,2055,2046,2041,2012,2035,2036,2063
2065,2051,2041,2034,1999,2047,2031,2064
2073,2057,2048,2041,2001,2046,2057,2059
2077,2062,2047,2048,1994,2045,2039,2054
2075,2065,2051,2043,2002,2051,2048,2038
2062,2058,2044,2039,2028,2078,2044,2028
2051,2059,2049,2067,2056,2088,2067,2035
2054,2063,2053,2070,2058,2072,2075,2039
2067,2065,2053,2065,2053,2073,2074,2043
2070,2054,2053,2064,2045,2088,2054,2022
2048,2040,2028,2047,2022,2095,2041,2018
2040,2036,2026,2038,2025,2096,2056,2021
2049,2049,2037,2052,2020,2045,2042,2030
2049,2053,2038,2049,2012,1952,2032,2038
2064,2062,2046,2055,2012,1994,2047,2044
2068,2062,2050,2064,2026,2054,2051,2050
2061,2062,2044,2063,2033,2089,2062,2066
2057,2054,2044,2054,2038,2100,2081,2066
2062,2056,2045,2053,2032,2085,2091,2071
2056,2058,2046,2057,2027,2072,2086,2078
2056,2065,2049,2059,2044,2043,2074,2084
2053,2063,2055,2071,2054,1997,2072,2097
2058,2067,2057,2064,2051,1964,2058,2093
2050,2058,2047,2060,2048,1952,2068,2093
2049,2054,2044,2058,2028,1948,2039,2093
2051,2054,2046,2053,2013,1946,2035,2084
2039,2034,2032,2046,2024,1989,2028,2082
2042,2038,2035,2062,2040,2041,2059,2092
2058,2064,2055,2059,2025,2058,2026,2076
2056,2062,2053,2060,2024,2068,2038,2063
2050,2069,2039,2054,2017,2082,2037,2061
2046,2061,2037,2044,2005,2072,2032,2065
2049,2054,2035,2044,2004,2046,2037,2059
2055,2049,2036,2036,2007,2022,2009,2047
2047,2047,2033,2040,2023,2009,2008,2050
2048,2051,2044,2053,2037,2019,2027,2051
2052,2060,2046,2062,2046,2030,2056,2058
2059,2059,2049,2062,2048,2041,2051,2064
2057,2065,2050,2063,2039,2035,2047,2062
2068,2065,2053,2056,2026,2010,2070,2060
2081,2071,2062,2059,2017,2016,2074,2053
2072,2064,2063,2054,2023,2014,2054,2049
2049,2046,2042,2048,2021,2014,2035,2044
2054,2049,2039,2051,2043,2026,2051,2063
2055,2067,2063,2062,2049,2031,2057,2055
2052,2066,2054,2063,2028,2003,2023,2048
2048,2060,2057,2053,1988,1990,2036,2049
2050,2052,2054,2036,1965,1975,2031,2045
2050,2047,2040,2021,1944,1977,2024,2036
2047,2036,2034,2023,1966,2001,2017,2049
2047,2042,2053,2053,2012,2023,2028,2062
2045,2050,2053,2064,2069,2064,2058,2073
2057,2062,2065,2079,2102,2115,2092,2083
2064,2070,2072,2086,2102,2134,2088,2091
2057,2061,2064,2070,2075,2122,2083,2092
2058,2053,2049,2057,2062,2113,2069,2095
2048,2045,2047,2057,2068,2111,2068,2093
2049,2044,2039,2049,2068,2111,2059,2083
2040,2031,2024,2042,2057,2137,2034,2084
2034,2037,2032,2052,2060,2144,2052,2084
2054,2050,2036,2062,2059,2067,2035,2086
2057,2054,2036,2048,2037,1955,2022,2080
2055,2050,2037,2045,2034,1970,2035,2081
2068,2054,2032,2045,2035,2003,2041,2081
2062,2050,2034,2046,2035,2011,2021,2077
2063,2054,2036,2048,2029,2018,2049,2071
2062,2045,2033,2049,2017,2023,2043,2058
2057,2044,2032,2046,2020,2034,2047,2053
2046,2047,2030,2047,2020,2018,2050,2036
2047,2045,2032,2046,2014,2012,2057,2030
2049,2044,2028,2040,2010,2046,2067,2032
2049,2038,2022,2036,2016,2070,2071,2034
2046,2043,2025,2030,2008,2062,2074,2039
2049,2041,2026,2028,1996,2044,2046,2032
2030,2021,2016,2012,1994,2049,2028,2023
2027,2017,2010,2010,1991,2082,2055,2038
2047,2042,2030,2017,1996,2110,2074,2037
2052,2046,2039,2025,2001,2116,2084,2045
2054,2047,2043,2026,1997,2107,2072,2050
2048,2054,2052,2028,1995,2009,2069,2057
2057,2053,2056,2040,2013,1936,2075,2067
2066,2053,2050,2048,2046,1961,2075,2081
2067,2046,2047,2046,2048,2004,2071,2075
2067,2044,2041,2047,2050,2042,2062,2075
2062,2047,2043,2044,2045,2078,2066,2088
2064,2060,2046,2043,2023,2071,2072,2082
2068,2064,2055,2038,1981,2056,2080,2086
2075,2063,2055,2033,1953,2061,2068,2081
2063,2059,2046,2025,1947,2062,2060,2075
2058,2057,2048,2028,1955,1996,2027,2067
2040,2039,2034,2033,1988,1944,2029,2072
2042,2048,2042,2053,2042,1985,2055,2071
2051,2068,2064,2068,2084,2031,2063,2073
2050,2064,2064,2067,2084,2063,2063,2076
2051,2061,2059,2058,2065,2055,2050,2067
2057,2057,2062,2054,2042,2046,2076,2066
2062,2054,2060,2047,2035,2034,2043,2070
2056,2063,2063,2044,2029,2041,2038,2062
2056,2066,2062,2050,2027,2050,2057,2050
2060,2066,2065,2052,2024,2051,2056,2047
2058,2060,2053,2055,2024,2040,2051,2046
2058,2057,2056,2049,2028,2013,2033,2045
2059,2060,2058,2060,2014,1999,2038,2042
2056,2048,2046,2040,2004,1993,2052,2036
2046,2046,2045,2038,2012,1987,2047,2030
2051,2054,2055,2041,2015,1999,2045,2026
2036,2037,2042,2033,2001,1995,2029,2024
2032,2046,2037,2031,2007,2015,2051,2023
2054,2057,2052,2038,2006,2069,2062,2027
2054,2061,2043,2024,1994,2106,2055,2026
2059,2058,2038,2023,1999,2120,2056,2030
2057,2056,2036,2024,1989,2106,2079,2040
2057,2055,2043,2032,1996,2035,2084,2057
2068,2067,2057,2051,2041,1971,2081,2071
2077,2066,2060,2058,2060,1976,2085,2082
2066,2062,2061,2053,2050,2011,2087,2078
2062,2063,2065,2052,2039,2013,2088,2078
2060,2055,2068,2052,2029,2014,2075,2085
2060,2054,2059,2054,2023,2012,2078,2092
2055,2049,2056,2053,2028,2016,2084,2097
2051,2048,2056,2045,2024,2029,2084,2096
2051,2054,2049,2042,2017,2038,2080,2084
2046,2031,2034,2027,2005,2024,2070,2080
2035,2031,2037,2020,1994,2024,2045,2081
2057,2058,2049,2034,2008,2036,2073,2091
2064,2056,2050,2041,2017,2049,2082,2089
2067,2051,2053,2039,2020,2056,2091,2080
2059,2058,2057,2034,2022,2064,2086,2073
2057,2060,2056,2040,2030,2067,2091,2070
2058,2067,2066,2050,2030,2085,2089,2066
2066,2064,2059,2049,2035,2120,2088,2069
2073,2068,2062,2051,2044,2159,2100,2057
2078,2058,2055,2053,2048,2176,2076,2054
2065,2050,2050,2042,2033,2103,2056,2040
2054,2042,2042,2032,2003,2030,2041,2026
2045,2034,2035,2022,1989,2004,2034,2027
2043,2033,2040,2027,1989,2025,2046,2031
2056,2049,2040,2038,2003,2044,2054,2036
2053,2037,2031,2023,1997,2035,2026,2019
2039,2034,2030,2020,1989,2050,2010,2023
2048,2040,2038,2030,2013,2075,2047,2022
2054,2049,2041,2027,2005,2047,2034,2022
2052,2040,2040,2022,1990,2012,2019,2026
2043,2046,2043,2019,1978,1996,2037,2036
2051,2050,2046,2028,2022,1956,2049,2055
2050,2048,2053,2049,2079,1982,2061,2064
2047,2045,2043,2045,2090,2010,2070,2062
2054,2044,2043,2061,2113,2046,2066,2074
2056,2060,2057,2077,2112,2062,2061,2072
2056,2058,2048,2053,1996,2058,2065,2074
2058,2047,2045,2050,1947,2065,2077,2086
2057,2050,2033,2040,1956,2069,2074,2085
2053,2034,2032,2032,1977,2060,2068,2090
2051,2039,2032,2033,2008,2038,2068,2086
2053,2046,2032,2027,1997,2022,2050,2076
2048,2029,2021,2022,1990,2029,2053,2085
2040,2034,2034,2039,1998,2042,2038,2091
2049,2047,2035,2032,2001,2045,2044,2083
2049,2045,2034,2035,2011,2053,2037,2080
2051,2042,2035,2036,2022,2050,2039,2074
2058,2058,2042,2047,2034,2040,2047,2072
2065,2059,2045,2047,2039,2039,2052,2060
2051,2047,2048,2053,2046,2050,2067,2061
2054,2045,2059,2052,2042,2042,2067,2055
2051,2047,2057,2042,2025,2027,2057,2052
2046,2046,2057,2042,2011,2022,2053,2047
2045,2046,2053,2044,2013,2025,2051,2048
2046,2043,2056,2049,2027,2042,2064,2052
2050,2037,2054,2049,2026,2050,2063,2043
2055,2037,2056,2046,2018,2035,2058,2041
2052,2038,2060,2042,2014,2033,2051,2033
2034,2014,2033,2027,2014,2028,2016,2026
2035,2016,2024,2026,2010,2041,2044,2044
2057,2032,2042,2046,2025,2061,2064,2048
2057,2038,2047,2049,2039,2076,2069,2046
2061,2046,2056,2064,2052,2089,2076,2049
2063,2046,2055,2062,2056,2125,2081,2056
2068,2043,2058,2061,2049,2134,2083,2056
2064,2051,2060,2057,2044,2089,2080,2064
2055,2049,2061,2045,2031,2044,2059,2062
2057,2051,2066,2046,2026,2048,2050,2063
2056,2058,2076,2050,2028,2043,2061,2068
2063,2057,2078,2049,2017,2048,2065,2070
2065,2049,2076,2055,2019,2060,2074,2076
2064,2045,2072,2057,2016,2064,2064,2088
2062,2054,2075,2053,2012,2054,2059,2087
2059,2052,2083,2051,2010,2024,2049,2086
2054,2051,2078,2040,1999,1985,2026,2073
2037,2042,2062,2036,1993,1981,2033,2073
2043,2041,2062,2033,1992,1995,2042,2083
2066,2066,2065,2047,2000,2002,2045,2080
2067,2068,2061,2039,2005,1999,2043,2081
2072,2057,2061,2043,2013,2009,2035,2074
2066,2063,2063,2045,2011,2019,2037,2058
2061,2058,2067,2039,1997,2018,2046,2044
2046,2050,2062,2032,1976,2019,2041,2045
2035,2044,2057,2024,1957,2016,2039,2049
2045,2041,2048,2018,1945,2009,2041,2051
2054,2040,2046,2024,1951,1993,2023,2053
2052,2038,2048,2015,1960,2011,2025,2052
2059,2052,2052,2033,1998,2042,2056,2054
2072,2060,2067,2046,2033,2055,2048,2059
2066,2052,2064,2058,2056,2058,2039,2059
2065,2049,2055,2055,2071,2081,2069,2050
2052,2020,2034,2042,2049,2072,2064,2031
2031,2016,2033,2038,2033,2068,2058,2030
2051,2040,2052,2054,2031,2077,2082,2050
2056,2045,2054,2047,2026,2068,2084,2055
2052,2047,2047,2049,2027,2061,2074,2051
2051,2047,2043,2046,2028,2054,2072,2055
2057,2050,2042,2053,2041,2061,2078,2057
2067,2054,2058,2062,2059,2056,2079,2069
2068,2060,2061,2071,2061,2046,2072,2075
2069,2056,2057,2063,2061,2023,2072,2079
2070,2052,2055,2059,2049,2027,2078,2087
2070,2053,2045,2056,2048,2035,2078,2084
2066,2044,2040,2054,2045,2062,2068,2082
2060,2038,2047,2051,2039,2100,2048,2079
2051,2043,2045,2056,2042,2102,2050,2079
2050,2041,2045,2051,2037,2040,2032,2073
2047,2031,2038,2040,2025,2005,2014,2060
2032,2014,2031,2034,2007,2046,2022,2067
2037,2015,2032,2036,2013,2116,2048,2073
2061,2041,2045,2039,2017,2131,2041,2077
2052,2033,2043,2042,2013,2068,2030,2064
2049,2033,2045,2033,2010,1981,2022,2052
2045,2038,2042,2035,2005,1928,2030,2055
2047,2042,2044,2041,2000,1978,2035,2063
2052,2046,2048,2038,2009,2017,2037,2061
2049,2044,2052,2041,2006,2031,2048,2048
2047,2038,2046,2039,2009,2037,2040,2047
2044,2035,2043,2036,2015,2041,2061,2048
2044,2038,2044,2040,2023,2055,2061,2053
2053,2041,2045,2041,2027,2067,2083,2064
2052,2035,2041,2038,2031,2069,2073,2050
2059,2037,2037,2037,2040,2064,2086,2050
2058,2040,2034,2040,2029,2052,2072,2039
2045,2022,2021,2030,2010,2019,2046,2025
2039,2020,2030,2031,2009,2011,2046,2035
2053,2034,2040,2045,2015,2021,2065,2042
2053,2037,2043,2040,2025,2026,2052,2030
2056,2041,2040,2052,2034,2033,2058,2045
2067,2048,2050,2059,2042,2037,2068,2055
2071,2054,2060,2065,2047,2039,2068,2063
2064,2056,2068,2072,2050,2044,2078,2062
2071,2064,2073,2070,2041,2042,2060,2065
2070,2055,2069,2068,2030,2055,2068,2065
2064,2046,2061,2066,2023,2066,2045,2064
2058,2051,2063,2068,2010,2070,2056,2064
2050,2047,2059,2062,2006,2082,2066,2077
2054,2042,2053,2056,1999,2067,2056,2090
2055,2040,2039,2054,1994,2026,2045,2093
2053,2039,2041,2052,1990,2021,2023,2101
2063,2042,2036,2039,1988,2033,2030,2092
2045,2013,2016,2012,1984,2049,2019,2083
2034,2011,2011,2010,1996,2064,2051,2089
2060,2041,2044,2024,2007,2048,2042,2102
2064,2048,2034,2021,2003,2029,2019,2092
2058,2047,2022,2004,1999,2061,2024,2075
2047,2040,2025,2005,1998,2088,2049,2065
2045,2049,2045,2014,1998,2075,2036,2066
2046,2055,2063,2014,1963,2014,2020,2058
2049,2053,2064,2018,1992,1975,2009,2053
2047,2047,2060,2025,2045,1966,2004,2055
2053,2049,2058,2043,2085,1998,2024,2046
2056,2039,2049,2051,2101,2046,2037,2048
2050,2038,2041,2053,2091,2083,2050,2042
2044,2040,2041,2048,2066,2084,2061,2036
2043,2039,2048,2047,2054,2078,2063,2044
2052,2040,2054,2042,2058,2071,2074,2052
2043,2024,2029,2022,1999,2022,2041,2041
2032,2013,2023,2001,1980,1990,2050,2050
2043,2049,2052,2031,2024,2016,2066,2064
2066,2051,2056,2028,2012,2019,2067,2064
2058,2051,2054,2022,2006,2039,2065,2058
2052,2044,2057,2024,2020,2067,2048,2052
2044,2037,2052,2026,2017,2066,2069,2057
2050,2038,2055,2024,2025,2045,2085,2064
2051,2042,2052,2042,2063,2045,2104,2074
2055,2046,2051,2047,2069,2044,2109,2075
2059,2053,2062,2049,2052,2013,2091,2070
2062,2053,2057,2041,2038,2022,2063,2063
2054,2045,2050,2028,2035,2074,2051,2055
2043,2039,2041,2023,2041,2084,2026,2056
2047,2043,2042,2037,2071,2066,2007,2061
2047,2039,2046,2043,2085,2053,2013,2072
2044,2036,2038,2032,2051,2063,2019,2066
2029,2020,2032,2023,2030,2081,2040,2067
2035,2034,2043,2030,2024,2079,2051,2061
2044,2044,2046,2032,2010,2060,2051,2055
2044,2042,2038,2031,2017,2032,2047,2050
2050,2045,2044,2045,2060,2009,2045,2059
2055,2052,2044,2058,2109,2040,2059,2066
2052,2054,2045,2065,2124,2066,2065,2055
2053,2052,2047,2062,2095,2090,2069,2050
2055,2052,2046,2049,2038,2100,2060,2038
2048,2037,2040,2038,2049,2099,2061,2030
2043,2042,2044,2039,2067,2101,2060,2037
2058,2050,2043,2035,2056,2095,2065,2037
2067,2044,2039,2031,2036,2081,2042,2030
2052,2039,2034,2025,2008,2064,2027,2031
2051,2032,2036,2034,2018,2055,2019,2039
2054,2033,2048,2036,2024,2040,2023,2019
2043,2017,2032,2032,2027,2010,2031,2022
2041,2014,2026,2034,2022,2007,2032,2028
2049,2025,2039,2030,2021,2029,2039,2030
2043,2032,2043,2025,2007,2032,2032,2032
2044,2038,2042,2020,1986,2029,2016,2044
2049,2042,2040,2016,1951,2025,2019,2049
2057,2044,2045,2018,1957,1992,2012,2060
2055,2046,2050,2023,1985,1982,2016,2067
2060,2037,2048,2030,2015,2030,2014,2073
2059,2040,2054,2051,2051,2062,2024,2078
2063,2059,2069,2073,2092,2061,2042,2084
2068,2066,2084,2082,2110,2071,2056,2088
2069,2065,2071,2072,2111,2077,2061,2082
2059,2048,2067,2057,2085,2075,2053,2076
2053,2044,2056,2045,2077,2074,2039,2076
2048,2044,2050,2045,2063,2064,2044,2066
2042,2029,2049,2032,2041,2053,2045,2068
2034,2022,2046,2033,2033,2047,2048,2072
2049,2041,2068,2043,2043,2047,2065,2082
2058,2052,2067,2044,2050,2031,2045,2078
2060,2053,2064,2048,2037,2025,2039,2073
2054,2050,2058,2043,2034,2036,2043,2070
2067,2045,2063,2035,2011,2032,2024,2075
2069,2046,2053,2019,1985,2003,2045,2060
2060,2044,2046,2012,1978,2001,2046,2057
2057,2029,2030,2009,1985,2016,2049,2041
2037,2016,2026,2001,2000,2028,2034,2021
2047,2027,2033,2029,2061,2069,2041,2029
2062,2049,2055,2055,2066,2103,2056,2026
2071,2056,2066,2046,2022,2128,2061,2019
2067,2055,2063,2042,2001,2107,2049,2011
2055,2044,2051,2027,1975,2048,2030,2003
2053,2043,2048,2032,1992,1975,2015,2008
2037,2023,2038,2044,2063,1983,2027,2004
2036,2025,2051,2059,2115,2045,2054,2021
2036,2045,2070,2080,2141,2109,2077,2029
2042,2043,2067,2073,2128,2111,2071,2031
2047,2036,2057,2061,2090,2077,2078,2043
2060,2040,2062,2057,2075,2087,2084,2050
2061,2047,2065,2063,2064,2106,2093,2045
2057,2055,2066,2059,2058,2091,2085,2052
2062,2060,2062,2052,2046,2069,2079,2055
2060,2055,2065,2053,2077,2056,2078,2068
2064,2058,2059,2056,2118,2069,2089,2072
2068,2051,2056,2058,2135,2078,2081,2075
2060,2042,2050,2057,2114,2086,2052,2071
2055,2041,2040,2043,2091,2071,2033,2071
2056,2038,2042,2032,2068,2052,2026,2070
2058,2034,2041,2033,2073,2021,2034,2073
2049,2032,2026,2025,2066,1951,2011,2064
2033,2015,2015,2025,2066,1956,2017,2066
2022,2017,2022,2030,1989,2011,2043,2082
2039,2034,2025,2026,1946,2059,2048,2067
2041,2039,2028,2038,1995,2070,2059,2071
2052,2042,2032,2044,2026,2069,2058,2064
2051,2046,2033,2039,2024,2048,2047,2060
2058,2046,2036,2036,2005,2024,2034,2051
2056,2042,2035,2028,1980,2009,2036,2046
2060,2038,2041,2026,1967,2016,2045,2046
2060,2046,2055,2026,1978,2029,2029,2040
2055,2039,2059,2018,1957,2051,2046,2029
2045,2038,2059,2016,1951,2067,2061,2031
2050,2045,2078,2024,1982,2098,2068,2037
2058,2050,2084,2035,1990,2101,2070,2035
2056,2053,2083,2035,1981,2090,2062,2029
2050,2046,2073,2039,2012,2057,2054,2025
2034,2026,2050,2030,2026,2030,2038,2008
2022,2011,2043,2030,2045,2061,2045,2018
2043,2038,2066,2044,2062,2093,2072,2044
2065,2046,2068,2046,2058,2075,2063,2042
2070,2045,2074,2041,2053,2069,2053,2054
2063,2040,2067,2041,2045,2057,2051,2052
2053,2032,2065,2039,2040,2077,2050,2048
2056,2042,2068,2039,2043,2112,2055,2048
2050,2038,2068,2048,2036,2130,2063,2053
2051,2035,2056,2041,2036,2126,2043,2052
2050,2026,2055,2049,2043,2145,2060,2056
2049,2023,2050,2047,2031,2126,2036,2057
2052,2032,2056,2046,2023,2054,2021,2064
2048,2040,2060,2042,2013,1955,2025,2069
2050,2046,2051,2038,2008,1962,2043,2073
2046,2041,2049,2034,2006,1993,2042,2082
2047,2040,2043,2031,2007,1998,2020,2073
2028,2019,2027,2018,1984,1983,2005,2064
2022,2027,2031,2019,1988,1991,2017,2070
2043,2056,2050,2032,2004,2002,2030,2079
2056,2064,2055,2037,2012,2011,2052,2079
2055,2060,2063,2039,2020,2024,2055,2073
2051,2062,2060,2047,2045,2028,2035,2064
2056,2058,2060,2053,2062,2029,2034,2053
2058,2054,2071,2054,2067,2032,2041,2050
2059,2054,2073,2054,2061,2045,2042,2048
2057,2060,2073,2058,2053,2064,2039,2048
2060,2053,2075,2061,2044,2070,2040,2042
2053,2046,2074,2055,2041,2074,2018,2039
2048,2050,2070,2051,2038,2110,2029,2035
2050,2044,2062,2052,2040,2130,2038,2027
2034,2031,2052,2045,2060,2134,2040,2029
2037,2034,2056,2048,2062,2057,2043,2024
2041,2032,2037,2034,2045,1971,2030,2016
2027,2007,2022,2030,2045,1996,2028,2014
2031,2011,2030,2033,2054,2045,2043,2030
2050,2034,2052,2046,2062,2057,2072,2036
2050,2028,2059,2045,2046,2040,2066,2038
2053,2032,2056,2051,2036,2038,2084,2044
2058,2032,2051,2053,2032,2043,2071,2040
2052,2034,2053,2059,2037,2054,2082,2048
2045,2031,2053,2065,2044,2047,2057,2056
2043,2032,2042,2059,2047,2052,2072,2056
2042,2031,2036,2059,2050,2061,2083,2060
2046,2022,2030,2059,2050,2057,2078,2073
2047,2019,2023,2051,2047,2046,2088,2081
2046,2023,2023,2050,2041,2028,2075,2085
2045,2020,2021,2040,2034,2014,2071,2083
2038,2020,2014,2027,2032,2026,2070,2080
2034,2016,2011,2029,2033,2041,2059,2073
2033,2010,2007,2017,2031,2020,2043,2067
2027,2000,2009,2008,2023,2014,2030,2072
2033,2016,2034,2021,2032,2030,2046,2074
2040,2040,2052,2021,2021,2051,2039,2071
2045,2056,2063,2024,2036,2063,2034,2061
2054,2060,2073,2029,2042,2042,2042,2056
2060,2061,2070,2028,2041,2019,2041,2053
2059,2050,2063,2024,2035,2007,2024,2042
2060,2049,2061,2033,2043,1981,1999,2033
2045,2051,2058,2038,2042,1980,1990,2029
2043,2057,2056,2039,2052,2005,2006,2032
2046,2046,2054,2042,2070,2065,2037,2037
2044,2047,2051,2039,2073,2123,2048,2034
2049,2042,2043,2030,2072,2152,2062,2042
2052,2037,2039,2033,2060,2134,2072,2040
2051,2042,2046,2038,2057,2099,2053,2039
2052,2047,2045,2027,2027,2056,2046,2021
2036,2022,2014,2014,1996,2031,2051,2021
2043,2018,2018,2009,1994,2038,2065,2039
2054,2038,2038,2026,2009,2070,2072,2036
2040,2038,2035,2019,2012,2077,2059,2024
2039,2032,2036,2023,2025,2084,2043,2024
2037,2037,2049,2053,2058,2078,2050,2035
2043,2035,2066,2081,2066,2061,2040,2034
2042,2034,2088,2094,2070,2104,2035,2036
2048,2038,2098,2107,2084,2097,2020,2037
2044,2039,2103,2106,2087,2043,2015,2037
2045,2037,2100,2116,2085,2010,2010,2034
2046,2032,2100,2112,2084,2027,2003,2042
2041,2029,2093,2108,2072,2035,1997,2054
2046,2034,2091,2100,2050,2030,2022,2067
2044,2030,2074,2098,2050,2029,2019,2068
2045,2030,2051,2089,2057,2033,2018,2068
2041,2021,2024,2084,2055,2032,2018,2060
2030,2012,2023,2086,2063,2054,2030,2063
2046,2040,2041,2094,2072,2084,2070,2077
2063,2062,2043,2087,2060,2062,2050,2065
2052,2047,2030,2061,2036,2030,2038,2054
2035,2035,2025,2038,2019,2011,2034,2048
2029,2029,2016,2007,2003,2003,2020,2040
2027,2024,2006,1985,2003,2024,2018,2036
2027,2020,2002,1970,1997,2066,2011,2032
2026,2033,2011,1970,1985,2094,2019,2032
2042,2053,2028,1967,1968,2098,2036,2026
2044,2061,2041,1976,1969,2096,2053,2039
2057,2070,2055,1989,1981,2055,2064,2052
2074,2076,2078,2023,2031,2042,2074,2057
2075,2068,2078,2034,2056,2054,2047,2052
2066,2063,2069,2034,2068,2078,2073,2050
2062,2067,2070,2026,2058,2084,2061,2036
2057,2060,2053,2003,2039,2065,2043,2029
2049,2047,2048,2004,2026,2036,2037,2040
2072,2069,2067,2011,2038,2032,2030,2046
2076,2067,2064,2019,2042,2026,2053,2047
2074,2068,2058,2010,2048,2019,2051,2045
2073,2057,2058,2011,2052,2024,2044,2041
2059,2054,2056,2018,2050,2037,2059,2040
2053,2053,2062,2029,2058,2048,2045,2038
2054,2056,2067,2035,2056,2059,2045,2041
2044,2052,2064,2033,2056,2074,2049,2052
2050,2057,2067,2036,2051,2089,2058,2066
2052,2054,2059,2033,2056,2091,2057,2080
2055,2059,2060,2033,2058,2071,2050,2085
2064,2045,2048,2025,2041,2056,2042,2083
2065,2044,2042,2025,2038,2053,2056,2088
2046,2039,2034,2017,2039,2056,2053,2076
2024,2021,2019,2012,2029,2049,2028,2055
2010,2010,2018,2010,2028,2039,2020,2063
2029,2029,2032,2023,2035,2038,2033,2076
2045,2041,2040,2030,2025,2006,2043,2068
2042,2044,2037,2021,1980,1995,2036,2061
2044,2044,2032,2010,1929,2005,2040,2038
2041,2044,2039,2007,1914,1995,1995,2020
2041,2054,2040,2010,1933,2007,2012,2032
2052,2065,2062,2044,1991,2011,2055,2048
2066,2079,2071,2070,2078,2026,2047,2047
2067,2071,2062,2082,2148,2079,2066,2053
2062,2061,2058,2075,2160,2126,2093,2042
2061,2052,2053,2068,2126,2119,2070,2035
2055,2052,2051,2060,2087,2085,2055,2023
2040,2043,2047,2056,2064,2067,2052,2022
2046,2042,2039,2039,2042,2034,2055,2029
2047,2034,2034,2021,2012,2003,2027,2020
2022,2018,2026,2018,2025,2013,2023,2007
2027,2015,2033,2037,2036,2039,2020,2013
2046,2038,2048,2054,2069,2047,2031,2015
2044,2050,2055,2051,2084,2052,2035,2024
2044,2052,2056,2046,2071,2080,2046,2026
2045,2058,2056,2050,2073,2092,2032,2034
2053,2052,2054,2060,2052,2110,2044,2043
2056,2049,2058,2059,2024,2111,2077,2052
2056,2052,2057,2075,2061,2044,2080,2064
2054,2055,2057,2076,2077,1996,2061,2062
2044,2044,2044,2054,2017,1992,2048,2054
2036,2029,2033,2033,2018,2030,2056,2051
2032,2030,2036,2039,2046,2062,2032,2051
2036,2034,2046,2048,2050,2072,2020,2064
2042,2041,2046,2044,2050,2076,2056,2065
2048,2034,2043,2045,2039,2052,2017,2058
2032,2017,2022,2027,2020,2028,2002,2057
2023,2015,2017,2041,2030,2027,2024,2064
2043,2034,2030,2042,2014,2005,2028,2064
2038,2032,2018,2021,1989,2026,2028,2055
2042,2036,2016,2030,1996,2039,2032,2052
2049,2045,2021,2036,1999,2037,2019,2041
2049,2044,2022,2029,2003,2042,2020,2036
2052,2054,2024,2038,2035,2030,2045,2047
2059,2063,2037,2064,2116,2021,2065,2051
2064,2066,2043,2069,2149,2061,2077,2044
2070,2061,2043,2054,2113,2093,2065,2032
2057,2049,2034,2043,2071,2115,2076,2026
2054,2048,2032,2034,2067,2098,2062,2026
2057,2044,2027,2032,2050,2060,2049,2030
2053,2043,2027,2038,2053,2018,2039,2022
2050,2032,2037,2037,2050,2013,2056,2013
2028,2017,2028,2035,2039,2006,2022,2008
2026,2024,2034,2041,2046,2014,2040,2028
2043,2047,2056,2060,2062,2026,2054,2028
2046,2060,2061,2054,2059,2046,2048,2030
2038,2061,2055,2058,2066,2065,2029,2040
2053,2054,2046,2057,2072,2070,2025,2048
2052,2049,2041,2052,2073,2058,2038,2044
2058,2049,2043,2053,2072,2086,2040,2048
2053,2056,2042,2058,2073,2104,2055,2041
2054,2051,2047,2059,2086,2128,2065,2049
2046,2060,2057,2074,2096,2154,2044,2057
2048,2067,2066,2078,2104,2194,2074,2066
2046,2065,2068,2076,2090,2162,2056,2067
2042,2057,2064,2061,2077,2051,2043,2064
2037,2047,2053,2052,2061,1955,2038,2058
2038,2043,2056,2056,2062,1984,2041,2057
2025,2035,2036,2043,2047,2023,2037,2051
2024,2028,2033,2042,2047,2028,2035,2049
2035,2043,2048,2041,2041,2040,2037,2060
2055,2045,2052,2038,2033,2036,2034,2058
2056,2047,2049,2035,2021,2038,2033,2054
2056,2053,2053,2037,2024,2054,2046,2047
2057,2059,2049,2044,2036,2057,2035,2038
2052,2057,2046,2047,2042,2036,2046,2037
2050,2054,2044,2048,2038,1995,2045,2047
2052,2053,2047,2047,2031,1996,2034,2037
2054,2052,2048,2045,2030,2004,2043,2027
2050,2053,2043,2041,2020,2013,2044,2027
2048,2059,2042,2043,2020,2034,2042,2025
2044,2055,2045,2044,2023,2043,2057,2029
2048,2055,2040,2046,2030,2053,2063,2030
2056,2057,2043,2049,2032,2059,2051,2033
2054,2055,2037,2041,2024,2068,2023,2011
2031,2032,2034,2040,2028,2100,2040,2011
2030,2032,2040,2050,2054,2130,2064,2019
2050,2044,2045,2058,2098,2101,2052,2029
2049,2043,2041,2059,2119,1999,2056,2037
2048,2046,2041,2052,2115,1982,2036,2045
2055,2046,2051,2058,2138,2015,2056,2044
2050,2050,2053,2065,2153,2044,2082,2044
2055,2046,2051,2066,2144,2046,2068,2044
2050,2049,2045,2056,2127,2042,2047,2036
2044,2037,2038,2045,2086,2027,2016,2044
2036,2031,2039,2044,2061,2012,2017,2058
2039,2037,2047,2041,1961,1987,2010,2058
2049,2046,2039,2033,1912,1988,2004,2069
2055,2042,2044,2037,1948,1995,2009,2080
2067,2047,2053,2037,1983,2001,2019,2082
2071,2048,2051,2044,2007,2006,2016,2084
2041,2016,2027,2020,2004,1997,1995,2064
2031,2013,2022,2025,2015,2011,1997,2050
2039,2036,2038,2042,2034,2049,2031,2048
2040,2042,2051,2051,2034,2073,2040,2048
2041,2043,2046,2047,2028,2101,2037,2050
2041,2041,2043,2042,2030,2142,2053,2044
2037,2037,2041,2037,2030,2170,2070,2045
2044,2041,2042,2041,2024,2160,2066,2043
2052,2053,2049,2048,2030,2129,2069,2041
2058,2055,2051,2053,2033,2095,2075,2035
2054,2047,2049,2046,2023,2087,2066,2024
2053,2043,2047,2037,2009,2060,2055,2018
2039,2039,2042,2024,2004,2034,2023,2009
2038,2031,2034,2025,2036,2050,2014,2012
2034,2028,2030,2035,2074,2051,2036,2015
2042,2038,2040,2045,2091,2034,2051,2025
2048,2047,2046,2049,2078,2027,2017,2012
2035,2025,2028,2032,2046,2024,2001,2012
2040,2018,2022,2029,2046,2037,2038,2026
2058,2043,2040,2045,2060,2056,2040,2038
2062,2045,2047,2050,2052,2061,2051,2034
2051,2038,2047,2043,2049,2059,2043,2033
2048,2036,2053,2047,2046,2054,2054,2043
2045,2045,2053,2051,2047,2053,2070,2052
2037,2033,2041,2046,2047,2018,2043,2048
2036,2034,2037,2046,2049,2013,2057,2053
2044,2037,2046,2054,2058,2022,2062,2053
2044,2037,2037,2045,2050,2037,2087,2072
2041,2028,2024,2039,2043,2052,2081,2070
2046,2027,2028,2035,2043,2067,2065,2077
2047,2034,2038,2040,2050,2080,2056,2076
2048,2031,2044,2042,2059,2086,2070,2079
2046,2036,2046,2050,2067,2086,2076,2080
2046,2027,2028,2042,2059,2053,2033,2077
2033,2025,2027,2041,2049,2047,2008,2065
2040,2041,2045,2058,2049,2065,2021,2064
2045,2048,2051,2057,2051,2076,2039,2047
2044,2045,2050,2053,2053,2082,2035,2043
2036,2038,2041,2043,2054,2073,2019,2050
2043,2040,2041,2041,2062,2076,2034,2046
2035,2034,2040,2044,2047,2098,2053,2042
2045,2043,2039,2042,2040,2109,2049,2032
2046,2039,2041,2037,2030,2115,2061,2029
2044,2041,2042,2038,2024,2115,2055,2022
2033,2039,2048,2036,2031,2075,2048,2021
2035,2046,2047,2044,2047,2015,2055,2038
2046,2048,2050,2043,2040,1967,2031,2043
2053,2049,2048,2041,2034,1956,2026,2031
2054,2049,2054,2034,2035,1975,2020,2023
2055,2047,2044,2030,2030,1996,2006,2000
2035,2025,2034,2021,2039,2011,2016,1998
2020,2015,2043,2030,2061,2045,2040,2010
2036,2039,2054,2041,2054,2039,2038,2017
2044,2045,2061,2038,2047,2031,2048,2018
2050,2049,2062,2034,2037,2048,2050,2030
2054,2053,2063,2030,2041,2062,2050,2038
2050,2046,2060,2031,2041,2058,2024,2039
2050,2047,2054,2032,2044,2055,2025,2042
2044,2046,2054,2038,2046,2051,2050,2047
2050,2049,2059,2043,2051,2054,2058,2052
2051,2047,2049,2047,2051,2050,2037,2047
2047,2046,2050,2044,2045,2062,2029,2058
2050,2046,2042,2041,2047,2050,2023,2064
2051,2045,2049,2043,2043,2021,2046,2066
2051,2045,2042,2045,2044,2021,2053,2074
2052,2045,2047,2038,2049,2036,2028,2062
2027,2026,2035,2020,2041,2031,2020,2064
2032,2024,2030,2025,2045,2039,2040,2067
2043,2046,2056,2043,2058,2033,2041,2065
2047,2044,2049,2039,2056,2028,2036,2061
2054,2052,2052,2045,2066,2025,2044,2057
2052,2056,2049,2048,2061,2028,2067,2051
2051,2058,2056,2044,2061,2032,2060,2056
2054,2055,2049,2045,2058,2040,2059,2049
2047,2055,2047,2048,2051,2052,2075,2042
2052,2057,2043,2051,2058,2055,2076,2040
2061,2050,2050,2044,2058,2066,2068,2042
2058,2037,2042,2037,2046,2072,2075,2040
2055,2034,2033,2030,2024,2095,2056,2029
2051,2029,2028,2021,1995,2100,2031,2016
2041,2020,2019,2012,1989,2107,2030,2004
2034,2014,2014,2013,1994,2079,2035,2002
2033,2006,2003,2009,2001,1997,2014,1997
2028,2004,2014,2024,2031,1973,2019,2000
2044,2044,2046,2057,2060,2007,2044,2018
2060,2057,2046,2050,2048,2026,2040,2028
2057,2054,2038,2045,2048,2038,2032,2028
2047,2046,2032,2030,2031,2038,2025,2024
2041,2048,2028,2039,2056,2060,2041,2032
2051,2049,2036,2060,2098,2072,2057,2048
2057,2058,2041,2074,2123,2080,2060,2053
2046,2062,2053,2085,2135,2082,2052,2056
2046,2059,2069,2088,2121,2055,2053,2052
2045,2055,2076,2084,2107,2041,2063,2060
2046,2053,2072,2081,2096,2042,2066,2071
2046,2044,2070,2077,2085,2032,2074,2070
