CH1,CH2,CH3,CH4,CH5,CH6,CH7,CH8
2045,2058,2059,2069,2060,2053,2049,2011
2045,2054,2066,2062,2062,2058,2049,2006
2039,2059,2071,2058,2060,2055,2032,2011
2042,2059,2070,2058,2060,2061,2047,2018
2047,2055,2057,2047,2058,2058,2054,2039
2050,2048,2037,2031,2052,2054,2056,2043
2054,2039,2026,2035,2046,2048,2044,2042
2051,2046,2034,2030,2040,2046,2042,2042
2050,2056,2049,2042,2046,2043,2029,2048
2061,2073,2060,2052,2047,2048,2032,2052
2050,2061,2062,2053,2055,2050,2055,2052
2054,2059,2054,2054,2052,2050,2047,2049
2047,2055,2049,2052,2041,2044,2042,2052
2040,2054,2040,2053,2046,2045,2041,2050
2036,2042,2029,2049,2042,2048,2013,2056
2035,2029,2024,2049,2047,2059,2015,2056
2038,2039,2028,2056,2042,2058,2033,2058
2040,2040,2035,2057,2053,2057,2038,2046
2038,2038,2032,2053,2047,2055,2048,2039
2038,2033,2024,2050,2046,2052,2042,2041
2039,2034,2014,2053,2044,2063,2018,2036
2042,2032,2009,2053,2046,2067,2025,2029
2041,2035,2009,2054,2056,2064,2042,2019
2046,2032,2014,2063,2052,2066,2042,2015
2044,2028,2023,2066,2054,2062,2036,2017
2041,2027,2013,2067,2049,2059,2040,2015
2034,2026,2018,2066,2044,2057,2046,2014
2043,2027,2017,2062,2046,2051,2028,2010
2034,2031,2024,2058,2039,2040,2025,2009
2047,2035,2025,2053,2035,2033,2030,2001
2042,2031,2019,2043,2023,2022,2016,2000
2042,2032,2018,2040,2031,2020,2021,1999
2045,2040,2032,2046,2049,2033,2027,2001
2062,2058,2053,2056,2057,2044,2055,2004
2059,2066,2053,2058,2059,2060,2057,2010
2056,2070,2051,2055,2061,2061,2052,2009
2066,2067,2033,2043,2054,2052,2055,2022
2060,2064,2034,2034,2052,2044,2047,2026
2059,2063,2052,2045,2050,2043,2047,2029
2056,2070,2064,2045,2049,2050,2033,2033
2050,2065,2064,2036,2052,2050,2046,2034
2048,2068,2063,2035,2060,2046,2066,2041
2041,2058,2052,2034,2051,2042,2065,2049
2047,2054,2060,2043,2056,2041,2052,2055
2048,2063,2072,2055,2054,2042,2061,2061
2045,2066,2086,2060,2056,2046,2065,2063
2048,2065,2085,2065,2057,2048,2067,2058
2048,2061,2077,2057,2047,2043,2053,2058
2042,2062,2067,2062,2058,2047,2051,2068
2057,2069,2069,2061,2058,2052,2060,2064
2062,2064,2062,2051,2048,2054,2062,2064
2058,2062,2059,2048,2044,2053,2067,2057
2063,2057,2063,2044,2043,2048,2063,2051
2057,2059,2069,2038,2039,2033,2058,2044
2057,2065,2066,2034,2032,2028,2049,2032
2053,2058,2057,2025,2035,2036,2042,2025
2052,2054,2048,2026,2044,2038,2060,2022
2058,2059,2047,2036,2041,2048,2056,2023
2050,2059,2051,2044,2053,2052,2064,2022
2056,2058,2052,2039,2050,2048,2058,2017
2057,2056,2048,2047,2040,2047,2057,2010
2051,2054,2048,2044,2033,2046,2045,2009
2050,2051,2047,2043,2032,2039,2058,2003
2049,2048,2043,2041,2036,2034,2046,1995
2045,2035,2037,2036,2037,2034,2047,1997
2042,2037,2040,2040,2037,2044,2065,2009
2043,2043,2046,2050,2044,2042,2060,2006
2045,2052,2043,2048,2046,2056,2055,2006
2046,2050,2045,2056,2047,2055,2060,2017
2050,2053,2050,2050,2054,2059,2055,2020
2049,2054,2041,2050,2057,2060,2058,2018
2043,2048,2039,2050,2050,2057,2057,2029
2050,2046,2040,2051,2056,2059,2066,2035
2050,2046,2044,2050,2053,2057,2065,2031
2048,2049,2051,2047,2058,2055,2057,2032
2037,2048,2048,2044,2054,2056,2061,2040
2042,2045,2047,2040,2054,2056,2053,2053
2039,2051,2058,2040,2051,2056,2054,2060
2044,2054,2062,2047,2048,2052,2060,2058
2043,2051,2059,2046,2052,2048,2055,2065
2039,2046,2051,2040,2041,2044,2053,2065
2037,2043,2049,2036,2043,2048,2044,2068
2046,2054,2058,2043,2044,2052,2038,2062
2045,2057,2060,2040,2038,2048,2045,2061
2047,2056,2055,2040,2037,2052,2024,2061
2047,2046,2054,2044,2037,2046,2014,2047
2049,2048,2054,2044,2040,2052,2023,2037
2051,2039,2051,2044,2043,2055,2037,2034
2048,2038,2042,2051,2059,2056,2033,2032
2041,2037,2045,2044,2054,2054,2029,2024
2046,2037,2042,2037,2050,2056,2020,2023
2037,2036,2040,2043,2054,2057,2034,2015
2045,2040,2043,2042,2057,2059,2058,2021
2049,2042,2053,2045,2052,2058,2057,2011
2048,2040,2052,2048,2054,2060,2058,2017
2043,2035,2047,2049,2056,2051,2053,2009
2034,2034,2049,2047,2051,2051,2061,2004
2028,2026,2040,2047,2052,2047,2064,2001
2025,2025,2039,2050,2051,2052,2074,2012
2029,2035,2043,2050,2052,2053,2068,2024
2037,2035,2045,2051,2055,2048,2051,2023
2032,2043,2042,2048,2050,2043,2066,2023
2034,2041,2048,2054,2042,2041,2048,2027
2038,2040,2045,2057,2047,2044,2041,2037
2041,2050,2046,2056,2044,2045,2049,2037
2052,2055,2046,2057,2040,2043,2048,2044
2050,2055,2051,2057,2044,2036,2044,2034
2045,2056,2051,2058,2050,2045,2031,2042
2050,2052,2050,2054,2044,2052,2038,2049
2051,2047,2045,2050,2045,2065,2033,2061
2050,2046,2048,2055,2046,2074,2033,2060
2049,2048,2054,2057,2050,2083,2055,2058
2046,2049,2065,2062,2057,2092,2044,2060
2038,2043,2076,2067,2045,2082,2015,2044
2031,2041,2081,2063,2039,2062,2035,2056
2033,2052,2079,2066,2038,2015,2027,2055
2035,2053,2069,2062,2029,1996,2018,2052
2039,2056,2075,2064,2035,2012,2023,2060
2050,2052,2071,2064,2042,2021,2036,2055
2050,2058,2078,2070,2040,2033,2043,2052
2050,2058,2073,2062,2039,2041,2039,2043
2051,2054,2061,2064,2038,2042,2030,2032
2045,2051,2060,2056,2040,2044,2013,2033
2043,2048,2046,2052,2038,2042,2038,2025
2044,2047,2042,2050,2035,2036,2041,2022
2036,2046,2035,2050,2032,2036,2030,2019
2036,2043,2036,2044,2036,2035,2028,2011
2046,2047,2047,2049,2035,2043,2029,2009
2045,2047,2048,2044,2032,2039,2038,2012
2049,2044,2046,2039,2034,2042,2045,2012
2037,2035,2043,2035,2034,2034,2042,2016
2043,2043,2045,2033,2038,2041,2046,2018
2053,2059,2060,2049,2053,2046,2038,2027
2054,2062,2063,2050,2057,2043,2038,2024
2051,2056,2057,2053,2051,2044,2049,2020
2056,2058,2059,2055,2046,2042,2038,2027
2049,2052,2057,2053,2046,2048,2054,2029
2049,2055,2060,2054,2043,2047,2045,2036
2050,2051,2058,2050,2050,2048,2041,2041
2050,2051,2056,2051,2048,2050,2047,2047
2051,2054,2053,2052,2053,2052,2046,2050
2051,2050,2058,2050,2046,2047,2056,2058
2053,2050,2052,2049,2053,2048,2046,2060
2049,2047,2059,2049,2054,2044,2044,2063
2052,2048,2054,2053,2044,2040,2020,2065
2045,2047,2047,2044,2046,2044,2042,2068
2047,2040,2041,2043,2038,2040,2026,2056
2036,2027,2038,2038,2036,2033,2036,2059
2040,2033,2040,2043,2034,2032,2048,2068
2040,2038,2044,2042,2033,2038,2049,2065
2043,2041,2042,2041,2033,2037,2058,2058
2047,2040,2036,2038,2038,2036,2056,2056
2047,2033,2033,2040,2036,2038,2049,2048
2049,2034,2033,2038,2037,2037,2047,2035
2040,2033,2028,2042,2040,2036,2053,2026
2042,2037,2040,2046,2043,2044,2031,2021
2048,2042,2042,2049,2043,2048,2048,2021
2046,2044,2044,2050,2049,2047,2041,2022
2047,2044,2046,2055,2047,2051,2036,2020
2048,2043,2041,2054,2045,2050,2055,2016
2047,2043,2046,2055,2045,2049,2059,2014
2048,2041,2039,2051,2043,2045,2061,2010
2048,2040,2035,2048,2041,2042,2058,2009
2039,2028,2021,2044,2043,2035,2061,2004
2033,2023,2019,2042,2042,2037,2057,2011
2040,2036,2025,2049,2047,2040,2054,2016
2041,2039,2032,2052,2044,2042,2055,2014
2050,2042,2033,2053,2046,2049,2067,2025
2052,2044,2038,2053,2051,2051,2058,2024
2053,2051,2044,2047,2050,2050,2036,2031
2050,2047,2049,2046,2057,2045,2010,2029
2051,2046,2048,2043,2050,2039,2041,2032
2047,2044,2057,2046,2049,2040,2039,2037
2048,2050,2062,2045,2051,2047,2040,2039
2051,2049,2062,2046,2054,2049,2041,2053
2053,2049,2056,2053,2061,2053,2050,2051
2041,2049,2064,2046,2055,2051,2066,2060
2034,2050,2056,2044,2050,2050,2053,2059
2037,2047,2057,2041,2050,2046,2062,2057
2039,2039,2058,2042,2046,2043,2036,2067
2043,2042,2066,2041,2042,2044,2043,2068
2054,2049,2070,2048,2048,2047,2050,2073
2056,2055,2065,2050,2047,2044,2046,2066
2054,2059,2066,2056,2048,2031,2041,2056
2050,2054,2064,2054,2038,2034,2032,2051
2050,2053,2068,2039,2043,2028,2024,2043
2049,2050,2070,2046,2035,2024,2027,2029
2049,2041,2065,2041,2038,2026,2021,2030
2053,2040,2056,2039,2027,2027,2026,2024
2048,2035,2052,2039,2035,2023,2038,2022
2049,2039,2049,2041,2038,2033,2050,2014
2047,2044,2055,2047,2037,2038,2044,2008
2043,2044,2052,2047,2040,2043,2051,2003
2039,2041,2054,2046,2037,2046,2019,1994
2026,2042,2059,2050,2044,2054,2036,1986
2030,2046,2059,2046,2039,2048,2019,1987
2031,2029,2050,2044,2032,2043,2029,2000
2031,2027,2043,2043,2042,2055,2048,2010
2035,2031,2047,2047,2051,2064,2059,2008
2037,2031,2037,2039,2050,2066,2050,2016
2045,2038,2039,2044,2055,2066,2057,2024
2054,2035,2035,2038,2059,2063,2057,2015
2051,2031,2032,2035,2052,2054,2064,2020
2051,2028,2037,2041,2057,2056,2051,2019
2047,2043,2048,2050,2055,2056,2065,2030
2045,2048,2046,2050,2059,2044,2064,2037
2053,2042,2038,2046,2057,2044,2056,2051
2047,2044,2035,2044,2060,2053,2052,2049
2043,2034,2038,2044,2060,2062,2060,2054
2035,2032,2030,2040,2059,2052,2064,2059
2042,2036,2034,2039,2051,2053,2057,2058
2043,2039,2030,2037,2049,2050,2041,2062
2045,2028,2020,2029,2040,2043,2037,2070
2043,2030,2026,2027,2035,2044,2057,2076
2060,2049,2035,2030,2034,2049,2062,2075
2060,2051,2040,2034,2035,2053,2066,2075
2063,2050,2047,2038,2029,2057,2075,2059
2059,2050,2052,2040,2033,2054,2057,2052
2059,2047,2054,2041,2034,2055,2066,2039
2059,2047,2051,2045,2036,2058,2058,2041
2069,2050,2048,2047,2037,2060,2078,2043
2066,2053,2051,2046,2039,2056,2064,2031
2058,2053,2049,2042,2030,2055,2051,2020
2049,2053,2049,2041,2028,2054,2068,2022
2047,2045,2055,2039,2030,2053,2058,2015
2049,2052,2052,2043,2035,2058,2038,2009
2049,2062,2056,2039,2050,2056,2041,2004
2057,2058,2053,2043,2056,2059,2044,2014
2063,2060,2053,2044,2066,2042,2037,2013
2047,2056,2054,2037,2060,2031,2021,2011
2048,2056,2064,2046,2060,2042,2039,2021
2061,2062,2066,2046,2064,2043,2043,2018
2056,2061,2078,2053,2060,2049,2039,2023
2053,2073,2085,2056,2061,2050,2050,2033
2050,2076,2083,2058,2056,2054,2060,2030
2062,2070,2082,2054,2054,2053,2055,2030
2066,2065,2076,2049,2051,2041,2049,2030
2052,2064,2069,2044,2050,2037,2045,2031
2050,2051,2065,2041,2048,2039,2045,2030
2049,2052,2060,2045,2053,2044,2043,2031
2055,2049,2073,2043,2058,2047,2053,2050
2046,2058,2070,2044,2049,2050,2038,2058
2050,2057,2066,2044,2057,2044,2045,2058
2049,2055,2067,2049,2057,2049,2033,2066
2044,2049,2055,2043,2053,2038,2027,2060
2033,2039,2047,2040,2046,2036,2013,2053
2033,2035,2054,2039,2045,2040,2027,2065
2045,2050,2056,2047,2045,2040,2016,2056
2053,2056,2062,2043,2044,2046,2032,2058
2051,2060,2069,2046,2040,2043,2011,2054
2053,2062,2064,2049,2043,2040,2024,2052
2057,2061,2065,2055,2040,2045,2013,2041
2055,2062,2062,2045,2045,2051,2026,2034
2054,2057,2058,2042,2045,2052,2049,2029
2051,2055,2051,2045,2043,2052,2043,2024
2050,2055,2052,2044,2046,2045,2040,2021
2051,2055,2050,2047,2044,2049,2011,2020
2052,2050,2051,2048,2044,2051,2018,2017
2048,2053,2054,2043,2039,2040,2035,2014
2051,2058,2049,2044,2048,2044,2018,2016
2047,2059,2045,2039,2051,2043,2052,2012
2044,2044,2040,2040,2045,2048,2049,2002
2037,2037,2032,2030,2048,2043,2046,2004
2039,2045,2039,2038,2049,2056,2070,2018
2052,2049,2042,2037,2055,2060,2060,2012
2055,2053,2039,2038,2056,2064,2072,2022
2049,2049,2036,2036,2055,2059,2064,2020
2052,2053,2035,2041,2058,2054,2069,2024
2053,2045,2042,2044,2062,2061,2045,2028
2052,2046,2047,2051,2058,2062,2035,2036
2052,2051,2053,2057,2058,2059,2052,2032
2046,2051,2052,2050,2058,2054,2045,2038
2049,2044,2046,2052,2054,2054,2047,2042
2050,2047,2043,2057,2056,2050,2047,2048
2047,2050,2044,2059,2056,2052,2065,2056
2048,2048,2030,2055,2062,2050,2057,2060
2044,2047,2036,2055,2061,2051,2064,2053
2043,2034,2025,2051,2051,2041,2039,2053
2037,2024,2018,2043,2048,2042,2045,2060
2042,2038,2026,2053,2050,2046,2053,2056
2052,2041,2039,2061,2057,2047,2059,2057
2052,2048,2050,2057,2050,2048,2057,2048
2050,2055,2049,2055,2049,2049,2062,2045
2058,2052,2061,2050,2044,2043,2058,2035
2054,2052,2065,2050,2041,2053,2063,2028
2051,2051,2062,2042,2046,2046,2058,2024
2052,2051,2058,2037,2047,2041,2048,2018
2047,2050,2043,2032,2044,2037,2036,2014
2046,2040,2037,2039,2040,2042,2036,2013
2049,2042,2036,2033,2042,2045,2042,2008
2043,2045,2044,2039,2039,2042,2049,2003
2048,2048,2054,2039,2043,2040,2059,2003
2049,2053,2063,2044,2039,2039,2056,2000
2040,2052,2064,2035,2039,2036,2039,1996
2040,2048,2059,2027,2031,2039,2041,2002
2042,2050,2047,2019,2032,2043,2040,2012
2047,2043,2030,2014,2031,2049,2051,2019
2047,2044,2031,2025,2035,2050,2056,2020
2034,2047,2036,2036,2047,2062,2066,2030
2040,2051,2039,2042,2059,2066,2067,2039
2051,2058,2050,2049,2070,2067,2051,2042
2046,2064,2060,2059,2067,2062,2059,2039
2045,2066,2065,2054,2054,2058,2040,2047
2049,2063,2064,2047,2053,2057,2042,2051
2051,2062,2051,2045,2053,2051,2050,2055
2052,2056,2037,2038,2050,2058,2045,2054
2050,2056,2038,2035,2037,2058,2046,2056
2052,2058,2045,2038,2044,2057,2043,2053
2045,2057,2055,2041,2049,2058,2042,2059
2053,2053,2056,2028,2044,2051,2022,2051
2040,2047,2048,2026,2046,2048,2021,2050
2035,2051,2053,2024,2041,2047,2029,2059
2035,2057,2047,2026,2040,2045,2030,2052
2038,2056,2047,2038,2035,2043,2040,2056
2046,2054,2044,2034,2037,2046,2026,2049
2044,2056,2048,2037,2040,2043,2036,2046
2047,2051,2045,2038,2046,2051,2050,2037
2045,2051,2047,2041,2044,2054,2051,2030
2048,2053,2054,2043,2043,2048,2055,2024
2044,2050,2059,2040,2044,2046,2068,2024
2053,2055,2061,2041,2053,2049,2066,2027
2056,2057,2069,2045,2040,2047,2032,2031
2055,2057,2068,2050,2042,2049,2047,2017
2054,2055,2061,2053,2044,2048,2044,2018
2051,2058,2055,2054,2051,2049,2038,2011
2050,2055,2058,2054,2041,2042,2034,2009
2043,2051,2052,2050,2041,2044,2031,2015
2049,2050,2059,2060,2049,2047,2047,2023
2064,2064,2064,2057,2052,2056,2062,2032
2067,2072,2070,2058,2057,2054,2039,2027
2056,2071,2059,2054,2054,2052,2058,2019
2065,2070,2065,2056,2055,2054,2046,2030
2058,2074,2061,2058,2059,2062,2050,2035
2060,2071,2057,2056,2067,2060,2045,2038
2060,2062,2056,2055,2056,2053,2066,2035
2056,2054,2053,2052,2058,2058,2060,2043
2051,2060,2051,2047,2065,2051,2065,2050
2057,2058,2050,2044,2058,2053,2038,2060
2051,2056,2050,2037,2047,2052,2044,2051
2044,2049,2051,2032,2048,2045,2031,2053
2039,2047,2054,2038,2041,2045,2069,2067
2042,2048,2046,2036,2039,2043,2064,2059
2036,2042,2033,2036,2044,2045,2054,2054
2041,2037,2035,2039,2051,2048,2053,2061
2046,2048,2042,2040,2045,2058,2061,2052
2042,2047,2043,2036,2049,2054,2058,2050
2036,2050,2038,2033,2046,2056,2067,2045
2039,2046,2035,2031,2043,2053,2054,2041
2044,2045,2040,2031,2040,2054,2047,2039
2051,2050,2036,2032,2043,2057,2038,2038
2053,2046,2034,2033,2040,2055,2035,2021
2045,2038,2035,2033,2040,2052,2045,2016
2042,2031,2019,2019,2039,2047,2034,2015
2041,2027,2014,2028,2042,2037,2035,2008
2041,2034,2008,2023,2039,2037,2044,2004
2045,2033,2004,2016,2038,2045,2042,2008
2047,2040,2008,2028,2048,2049,2046,2016
2053,2045,2030,2036,2046,2055,2058,2008
2049,2046,2029,2032,2046,2057,2056,2016
2046,2053,2036,2039,2049,2060,2069,2022
2058,2065,2036,2049,2049,2060,2051,2024
2053,2060,2033,2045,2050,2050,2047,2025
2055,2052,2033,2043,2041,2041,2056,2018
2051,2051,2040,2044,2041,2043,2060,2026
2049,2053,2048,2045,2043,2042,2057,2035
2051,2057,2063,2044,2046,2037,2055,2038
2056,2058,2072,2052,2042,2039,2062,2032
2055,2056,2072,2049,2044,2037,2045,2042
2047,2053,2066,2041,2031,2032,2051,2037
2043,2051,2069,2042,2038,2028,2049,2044
2045,2052,2072,2038,2041,2033,2038,2052
2035,2051,2073,2038,2041,2038,2034,2060
2047,2052,2069,2043,2054,2052,2057,2065
2046,2055,2064,2047,2064,2056,2054,2065
2039,2045,2057,2044,2059,2052,2063,2065
2036,2047,2048,2045,2071,2054,2072,2073
2036,2055,2053,2048,2065,2057,2058,2071
2044,2054,2053,2048,2049,2049,2051,2059
2049,2052,2057,2047,2042,2048,2060,2053
2047,2047,2065,2045,2027,2047,2056,2046
2047,2054,2065,2045,2025,2046,2046,2040
2054,2055,2058,2042,2024,2055,2039,2035
2045,2056,2059,2054,2029,2056,2051,2031
2051,2053,2062,2056,2030,2064,2057,2024
2049,2049,2065,2070,2040,2053,2056,2022
2046,2046,2056,2062,2037,2050,2046,2011
2049,2046,2043,2064,2040,2051,2050,2013
2045,2042,2040,2055,2041,2057,2051,2011
2039,2043,2036,2053,2042,2064,2059,2011
2035,2034,2028,2070,2042,2070,2054,2010
2036,2023,2031,2075,2046,2062,2047,2002
2031,2020,2029,2080,2047,2050,2055,2009
2044,2034,2035,2082,2071,2052,2062,2011
2052,2036,2026,2099,2083,2053,2066,2018
2054,2041,2018,2089,2071,2050,2054,2021
2054,2045,2020,2092,2053,2038,2050,2025
2054,2050,2031,2089,2054,2045,2044,2028
2065,2056,2040,2093,2066,2047,2050,2032
2064,2057,2045,2089,2069,2054,2052,2029
2051,2045,2028,2077,2081,2057,2062,2038
2047,2038,2012,2070,2069,2054,2056,2048
2050,2038,2011,2054,2044,2053,2061,2045
2042,2038,2004,2032,2025,2045,2062,2052
2039,2034,1996,2013,2007,2044,2053,2049
2038,2026,1991,1990,2008,2035,2050,2057
2040,2031,2010,1979,2001,2022,2027,2057
2033,2033,2024,1972,2003,2008,2012,2057
2034,2032,2036,1969,2014,2019,2017,2069
2049,2053,2062,1975,2036,2038,2037,2069
2051,2058,2073,1989,2050,2046,2055,2069
2058,2061,2083,2000,2063,2051,2055,2058
2054,2068,2094,2010,2061,2054,2049,2056
2057,2079,2109,2028,2065,2064,2054,2054
2055,2078,2120,2034,2068,2066,2059,2044
2064,2078,2108,2038,2082,2072,2053,2048
2068,2072,2094,2040,2066,2061,2031,2038
2065,2066,2078,2036,2043,2055,2036,2038
2063,2062,2071,2039,2048,2058,2033,2033
2055,2058,2067,2042,2044,2053,2044,2021
2046,2048,2060,2038,2026,2048,2040,2002
2037,2041,2049,2034,2023,2042,2052,2002
2038,2038,2046,2040,2020,2040,2048,2005
2040,2044,2057,2040,2038,2044,2050,2010
2046,2042,2052,2043,2033,2041,2044,2005
2056,2046,2061,2050,2033,2042,2051,2008
2054,2054,2048,2039,2051,2038,2037,2017
2051,2046,2050,2038,2068,2041,2034,2016
2044,2048,2052,2049,2096,2052,2053,2022
2053,2057,2063,2062,2110,2056,2036,2024
2057,2059,2072,2076,2136,2064,2040,2023
2061,2052,2068,2070,2146,2062,2034,2022
2050,2056,2062,2068,2162,2064,2035,2027
2045,2051,2051,2060,2158,2070,2046,2033
2042,2050,2036,2059,2141,2073,2044,2043
2040,2056,2041,2058,2100,2072,2057,2056
2051,2058,2042,2066,2024,2064,2047,2070
2051,2055,2051,2066,1939,2045,2050,2072
2053,2055,2060,2063,1972,2050,2047,2072
2052,2053,2054,2059,1998,2049,2032,2062
2046,2038,2045,2062,2011,2044,2035,2061
2043,2031,2035,2057,2019,2044,2043,2062
2045,2031,2021,2054,2004,2033,2040,2061
2041,2028,2021,2060,1992,2034,2044,2063
2049,2033,2029,2071,2014,2042,2045,2056
2047,2040,2033,2083,2052,2049,2037,2047
2043,2038,2022,2086,2076,2054,2031,2027
2037,2028,2021,2092,2082,2053,2021,2012
2026,2022,2027,2095,2084,2059,2038,2005
2023,2024,2014,2082,2061,2058,2044,2009
2029,2021,2014,2058,2027,2048,2029,2009
2028,2029,2016,2038,2012,2044,2035,2008
2036,2027,2010,2026,2024,2044,2038,2018
2035,2032,2030,2018,2005,2043,2040,2021
2040,2032,2038,2005,1968,2037,2018,2013
2049,2039,2043,2003,2024,2037,2031,2017
2051,2043,2049,2014,2060,2053,2020,2021
2048,2058,2062,2035,2063,2065,2028,2025
2055,2077,2077,2063,2072,2067,2060,2027
2060,2073,2070,2072,2101,2066,2040,2022
2055,2068,2067,2064,2108,2062,2037,2028
2055,2066,2071,2070,2103,2070,2031,2033
2054,2070,2074,2066,2087,2063,2030,2041
2059,2076,2085,2067,2078,2067,2043,2052
2056,2074,2090,2053,2060,2057,2054,2051
2057,2058,2085,2034,2036,2042,2054,2051
2044,2061,2088,2024,1989,2017,2040,2053
2034,2050,2092,2016,1943,2001,2030,2056
2038,2057,2099,2012,1885,1997,2044,2064
2048,2064,2090,2002,1856,2005,2056,2067
2049,2061,2079,1994,1877,2002,2041,2072
2050,2055,2069,2000,1895,2008,2037,2069
2042,2054,2061,2005,1878,2006,2061,2062
2037,2049,2053,2000,1876,2011,2027,2061
2040,2054,2052,2018,1952,2018,2030,2072
2045,2053,2053,2030,2045,2023,2032,2068
2048,2046,2045,2036,2110,2011,2045,2068
2047,2030,2037,2011,2140,2016,2046,2046
2040,2033,2037,2015,2191,2056,2053,2041
2055,2052,2053,2050,2269,2117,2063,2032
2058,2062,2058,2073,2366,2160,2072,2033
2049,2058,2035,2081,2400,2179,2069,2032
2049,2045,2024,2062,2359,2169,2071,2028
2047,2043,2020,2061,2276,2123,2054,2022
2042,2052,2041,2035,2024,2041,2041,2015
2038,2056,2048,2006,1862,2025,2038,2015
2040,2062,2051,2021,1924,2062,2064,2022
2039,2073,2052,2032,1991,2068,2043,2020
2030,2054,2054,2025,2017,2053,2028,2010
2022,2049,2057,2021,2035,2047,2042,2019
2035,2061,2066,2026,2029,2067,2042,2020
2041,2064,2066,2020,2017,2081,2045,2026
2043,2063,2064,2026,2008,2088,2056,2024
2047,2066,2057,2031,2007,2080,2059,2026
2042,2071,2050,2028,1994,2044,2056,2033
2051,2063,2043,2031,1993,2014,2051,2056
2051,2061,2034,2031,1993,2008,2061,2052
2048,2055,2027,2060,2092,2045,2061,2059
2051,2054,2042,2084,2094,2068,2068,2063
2049,2058,2052,2097,2044,2067,2064,2065
2048,2054,2063,2088,1996,2053,2073,2062
2040,2054,2064,2084,1998,2051,2071,2058
2045,2056,2075,2093,1970,2043,2066,2064
2050,2061,2072,2082,1958,2031,2056,2057
2045,2059,2068,2075,1937,2029,2047,2059
2038,2055,2061,2066,1921,2033,2054,2060
2045,2055,2051,2071,1926,2043,2059,2054
2043,2048,2037,2054,1940,2037,2051,2046
2043,2038,2028,2034,1952,2009,2043,2040
2040,2030,2016,2017,1994,2003,2032,2041
2035,2027,2008,2025,2128,2032,2039,2033
2037,2034,2021,2040,2208,2054,2054,2031
2040,2049,2051,2040,2265,2062,2058,2021
2041,2052,2053,2038,2268,2059,2053,2017
2037,2034,2033,2016,2171,2054,2068,2022
2038,2027,2022,2004,2090,2053,2067,2034
2044,2025,2012,2015,2043,2057,2069,2039
2055,2039,2012,2007,1945,2050,2082,2050
2060,2053,2017,1995,1886,2056,2081,2047
2067,2058,2017,1998,1965,2086,2070,2017
2054,2042,2007,1964,2003,2097,2061,2018
2052,2037,2014,1953,1992,2086,2063,2034
2065,2046,2031,1960,1985,2064,2063,2047
2068,2052,2043,1978,1966,2036,2054,2033
2065,2058,2042,2000,2051,2038,2051,2025
2052,2060,2039,2033,2149,2049,2057,2024
2052,2063,2042,2056,2186,2059,2056,2036
2054,2071,2048,2064,2174,2049,2058,2032
2057,2070,2054,2053,2108,2019,2042,2036
2046,2068,2052,2039,2003,1994,2043,2049
2045,2070,2061,2043,1984,2009,2034,2060
2059,2072,2064,2044,2005,2031,2044,2069
2060,2072,2060,2041,2005,2048,2043,2074
2065,2073,2077,2041,2027,2069,2053,2083
2066,2062,2096,2056,2164,2083,2054,2084
2071,2063,2104,2082,2266,2090,2056,2082
2064,2054,2100,2108,2310,2079,2050,2069
2055,2054,2097,2109,2299,2058,2052,2068
2039,2047,2086,2081,2218,2008,2026,2055
2028,2040,2062,2058,2094,1976,2024,2059
2033,2045,2080,2081,2064,1971,2011,2055
2035,2046,2096,2095,1990,1966,2015,2041
2041,2050,2106,2118,1999,1979,1992,2029
2046,2056,2118,2153,1968,2007,2016,2033
2052,2058,2107,2162,1967,2031,2018,2030
2060,2047,2074,2164,2044,2065,2057,2027
2059,2038,2053,2160,2038,2082,2043,2031
2046,2021,2025,2135,2028,2071,2054,2016
2039,2007,1994,2100,1998,2062,2021,2010
2034,2005,1988,2046,1936,2060,2030,2004
2031,2014,1999,2001,1855,2070,2059,2017
2049,2042,2021,1989,1901,2066,2042,2024
2052,2042,2009,1980,1981,2070,2028,1999
2026,2033,1993,1986,2042,2096,2026,1994
2019,2034,1990,1975,2007,2114,2030,1991
2036,2040,1994,1960,1946,2106,2024,2001
2039,2033,1984,1950,1973,2081,2020,2005
2044,2047,2005,1959,2047,2050,2005,2018
2055,2056,2019,1983,2097,1983,2015,2026
2048,2053,2024,2023,2149,1951,2026,2038
2053,2054,2047,2089,2206,1993,2046,2059
2059,2061,2064,2128,2240,2055,2069,2071
2062,2066,2065,2111,2088,2078,2079,2077
2054,2066,2061,2115,2078,2087,2064,2078
2051,2069,2066,2118,2081,2067,2059,2077
2052,2063,2057,2117,2100,2053,2057,2073
2060,2062,2056,2122,2146,2063,2050,2082
2058,2057,2043,2103,2136,2054,2033,2077
2054,2044,2015,2077,2096,2029,2030,2071
2045,2040,2004,2053,2064,2014,2037,2062
2043,2037,2016,2050,2045,2018,2035,2059
2052,2052,2040,2042,1995,2027,2041,2056
2059,2059,2047,2046,2068,2043,2041,2051
2064,2058,2057,2023,2031,2032,2036,2041
2054,2055,2048,1977,1963,2017,2030,2030
2052,2043,2047,1956,1947,2015,2036,2025
2045,2045,2050,1945,1977,2025,2036,2025
2054,2045,2057,1958,2020,2037,2042,2024
2055,2054,2079,1983,2020,2032,2035,2026
2055,2043,2093,2002,1994,2027,2011,2018
2049,2049,2105,2024,1976,2017,2014,2008
2048,2058,2116,2043,1959,2008,2001,2011
2046,2056,2115,2058,1956,1996,2034,2012
2041,2045,2089,2056,1972,2001,2025,2008
2037,2037,2076,2048,1982,2022,2027,2015
2043,2045,2066,2044,2027,2041,2025,2021
2035,2048,2072,2053,2073,2058,2024,2023
2041,2057,2067,2068,2126,2067,2044,2020
2043,2049,2070,2083,2163,2069,2054,2034
2057,2075,2077,2117,2265,2082,2077,2048
2066,2075,2082,2125,2281,2104,2070,2047
2063,2063,2068,2101,2207,2094,2074,2044
2053,2057,2049,2051,2135,2075,2041,2040
2048,2043,2030,2016,2119,2091,2037,2051
2043,2032,2012,1999,2069,2088,2047,2053
2039,2022,2003,2007,2069,2111,2062,2053
2035,2037,2025,2024,2069,2099,2040,2061
2050,2053,2050,2039,2041,2097,2062,2080
2058,2069,2066,2064,2059,2099,2070,2077
2059,2063,2056,2074,2099,2106,2051,2080
2058,2054,2056,2078,2160,2104,2069,2083
2060,2057,2055,2064,2093,2060,2055,2078
2052,2057,2047,2035,2008,2007,2048,2067
2051,2056,2052,2035,1989,1990,2039,2062
2056,2063,2054,2056,2026,1985,2047,2056
2052,2060,2049,2049,2040,1980,2035,2044
2045,2047,2032,2018,2049,1981,2019,2024
2041,2037,2016,1991,1968,1974,2014,2015
2028,2024,2008,1976,1847,1983,2013,2018
2035,2030,2020,2031,1973,2026,2046,2022
2039,2043,2031,2063,2088,2055,2050,2027
2047,2042,2032,2057,2105,2057,2048,2025
2047,2038,2032,2044,2050,2054,2049,2025
2045,2046,2032,2042,2020,2060,2043,2026
2053,2057,2041,2038,1964,2063,2053,2031
2051,2051,2034,2015,1845,2048,2047,2026
2044,2043,2038,2013,1835,2051,2058,2028
2051,2055,2047,2026,1871,2061,2048,2022
2048,2056,2049,2007,1828,2042,2040,2026
2046,2046,2039,1983,1805,2020,2055,2040
2054,2048,2031,1979,1810,2013,2029,2046
2054,2047,2032,1994,1792,2028,2045,2052
2061,2043,2032,2016,1921,2053,2058,2047
2046,2042,2033,2036,2088,2062,2041,2040
2041,2043,2022,2040,2203,2068,2044,2049
2036,2021,2017,2055,2303,2066,2034,2039
2029,2023,2020,2054,2282,2051,2022,2041
2038,2023,2026,2053,2179,2038,2032,2041
2028,2022,2036,2054,2112,2009,2034,2042
2017,2017,2040,2061,2076,2004,2054,2053
2029,2035,2056,2078,2102,2019,2053,2062
2029,2036,2046,2066,2193,2035,2052,2071
2028,2033,2042,2066,2253,2049,2051,2066
2029,2041,2043,2073,2301,2072,2051,2066
2028,2049,2037,2090,2292,2073,2034,2066
2037,2053,2039,2085,2221,2066,2025,2059
2037,2053,2042,2070,2151,2049,2036,2050
2042,2055,2040,2050,2080,2039,2034,2047
2056,2051,2037,2028,2022,2039,2039,2047
2046,2047,2040,2027,1942,2039,2036,2044
2043,2043,2036,2009,1821,2034,2056,2047
2047,2050,2044,2024,1835,2032,2058,2041
2041,2050,2046,2038,1882,2026,2058,2036
2046,2055,2046,2046,1913,2016,2048,2027
2044,2054,2045,2035,1912,1998,2036,2033
2043,2049,2046,2038,1936,2020,2044,2018
2040,2049,2055,2047,1955,2021,2032,2005
2031,2039,2050,2056,2032,2034,2036,2012
2037,2039,2051,2080,2159,2072,2048,2029
2048,2050,2071,2101,2194,2084,2053,2027
2041,2040,2067,2079,2155,2070,2048,2018
2038,2044,2061,2083,2207,2071,2046,2016
2041,2042,2069,2095,2255,2078,2046,2024
2034,2042,2073,2092,2255,2079,2062,2028
2035,2046,2074,2095,2219,2083,2059,2042
2046,2049,2071,2092,2197,2088,2054,2057
2048,2055,2072,2105,2209,2098,2059,2071
2054,2052,2057,2106,2200,2094,2061,2078
2050,2045,2049,2102,2154,2071,2064,2083
2060,2049,2056,2115,2132,2071,2073,2098
2068,2057,2058,2114,2119,2062,2056,2096
2064,2053,2038,2096,2107,2049,2055,2086
2050,2027,2021,2074,2084,2031,2025,2080
2036,2011,1996,2052,2003,1994,2022,2070
2031,2001,1996,2024,1914,1982,2022,2064
2027,2010,2014,2008,1809,1987,2036,2064
2033,2033,2020,1989,1816,1998,2040,2073
2037,2041,2026,1991,1928,2006,2043,2088
2044,2043,2028,2020,1989,2016,2059,2079
2042,2043,2022,2032,2015,2017,2052,2071
2033,2044,2019,2045,2032,2027,2060,2067
2039,2052,2038,2047,2032,2033,2070,2074
2051,2044,2034,2049,2024,2044,2059,2072
2051,2052,2039,2050,2000,2042,2063,2068
2046,2053,2039,2056,2014,2031,2039,2054
2042,2049,2040,2052,2025,2025,2050,2054
2048,2044,2035,2049,2038,2015,2058,2047
2039,2043,2034,2047,2032,2012,2045,2051
2041,2052,2044,2050,2033,2016,2046,2047
2039,2045,2043,2043,2028,2016,2048,2046
2038,2039,2036,2049,2030,2026,2058,2054
2043,2041,2047,2054,2043,2035,2056,2056
2045,2053,2052,2056,2049,2040,2050,2060
2052,2058,2052,2048,2038,2046,2060,2064
2050,2057,2045,2042,2029,2044,2059,2060
2044,2050,2035,2030,2029,2044,2054,2064
2049,2039,2029,2024,2025,2046,2047,2065
2057,2031,2018,2026,2027,2053,2042,2067
2046,2022,2022,2034,2040,2064,2040,2063
2035,2029,2025,2037,2054,2064,2068,2080
2035,2045,2041,2052,2074,2056,2055,2074
2039,2039,2035,2057,2085,2061,2065,2091
2038,2039,2044,2073,2102,2064,2065,2102
2047,2047,2045,2070,2087,2074,2080,2109
2045,2047,2043,2063,2072,2077,2069,2108
2045,2037,2037,2047,2059,2070,2064,2115
2053,2037,2034,2043,2038,2063,2069,2122
2053,2050,2034,2053,2083,2065,2053,2104
2053,2050,2048,2063,2133,2072,2057,2098
2049,2051,2051,2062,2151,2075,2066,2088
2061,2053,2050,2060,2132,2058,2054,2084
2058,2051,2045,2052,2098,2030,2053,2073
2048,2046,2050,2053,2102,2024,2048,2073
2052,2050,2054,2062,2110,2028,2051,2066
2044,2052,2064,2076,2078,2042,2061,2061
2050,2060,2068,2074,2010,2038,2066,2072
2044,2051,2061,2044,1826,2014,2051,2059
2047,2044,2063,2026,1832,2003,2043,2053
2049,2057,2064,2044,1898,2016,2057,2046
2059,2059,2057,2062,1975,2025,2054,2046
2051,2047,2046,2070,2030,2031,2042,2032
2033,2030,2032,2067,2076,2035,2050,2028
2030,2030,2039,2080,2126,2058,2057,2035
2041,2047,2053,2100,2144,2062,2068,2052
2056,2051,2057,2090,2080,2058,2079,2048
2056,2056,2049,2080,2039,2055,2067,2042
2046,2052,2040,2069,2018,2058,2080,2046
2050,2053,2041,2076,2057,2064,2064,2056
2050,2051,2042,2076,2062,2066,2071,2066
2059,2056,2045,2073,2056,2054,2066,2075
2059,2062,2042,2070,2074,2064,2069,2085
2064,2047,2039,2066,2101,2070,2071,2090
2052,2039,2025,2060,2091,2070,2073,2085
2044,2037,2022,2031,2023,2069,2054,2077
2044,2030,2020,2015,1970,2067,2039,2077
2035,2025,2022,2022,1985,2052,2034,2077
2030,2016,2013,2013,1961,2038,2029,2063
2018,2009,2002,2011,1945,2021,2037,2068
2025,2009,2001,2027,1990,2008,2053,2091
2039,2024,2011,2038,2043,2024,2043,2097
2048,2029,2022,2043,2068,2053,2049,2097
2049,2030,2021,2058,2108,2074,2039,2081
2048,2029,2019,2066,2144,2080,2049,2072
2043,2034,2018,2063,2133,2061,2051,2061
2044,2037,2010,2054,2099,2058,2062,2058
2054,2036,2018,2053,2078,2055,2055,2069
2052,2041,2039,2047,2059,2062,2062,2061
2052,2048,2034,2035,1982,2070,2052,2053
2054,2045,2047,2036,1948,2078,2044,2050
2055,2047,2056,2044,1950,2072,2042,2042
2053,2047,2040,2027,1924,2060,2041,2031
2033,2034,2028,2034,1961,2057,2028,2038
2038,2034,2021,2043,2037,2038,2045,2041
2044,2031,2039,2054,2084,2018,2039,2050
2053,2047,2074,2074,2093,2018,2067,2057
2070,2058,2090,2070,2060,2013,2065,2052
2055,2053,2072,2068,2041,2016,2050,2054
2055,2048,2077,2085,2096,2035,2067,2058
2056,2042,2067,2077,2131,2038,2060,2041
2052,2038,2064,2082,2157,2041,2060,2038
2054,2038,2080,2100,2137,2053,2068,2058
2052,2031,2087,2118,2105,2054,2069,2069
2057,2029,2087,2118,2089,2065,2073,2073
2058,2030,2080,2111,2064,2060,2068,2070
2055,2032,2077,2102,2052,2059,2081,2076
2054,2033,2075,2103,2056,2068,2065,2083
2057,2033,2061,2092,2058,2063,2065,2086
2054,2034,2039,2071,2056,2061,2065,2069
2047,2036,2032,2072,2068,2066,2053,2072
2037,2027,2028,2072,2064,2058,2054,2072
2039,2035,2028,2070,2062,2045,2047,2078
2042,2037,2025,2059,2042,2041,2048,2075
2040,2034,2012,2038,2036,2033,2030,2065
2038,2024,1992,2020,2025,2028,2051,2060
2024,2009,1990,1997,2012,2032,2040,2056
2030,2014,1993,1988,2014,2037,2041,2061
2033,2016,2000,1995,2013,2028,2043,2050
2038,2025,2012,1995,2000,2029,2041,2041
2048,2043,2039,2010,2013,2030,2050,2047
2052,2046,2053,2018,2017,2035,2050,2046
2056,2048,2046,2028,2017,2021,2046,2049
2055,2045,2044,2030,2014,2018,2050,2042
2052,2036,2032,2021,1994,2017,2044,2039
2045,2035,2030,2021,1983,2006,2036,2030
2050,2036,2034,2031,2005,2019,2038,2027
2049,2039,2041,2037,2018,2001,2039,2031
2048,2040,2042,2021,2002,1990,2025,2036
2048,2043,2046,2033,2010,2002,2018,2041
2051,2046,2048,2045,2030,2016,2018,2041
2053,2045,2051,2044,2039,2023,2018,2037
2052,2062,2061,2057,2074,2055,2062,2050
2062,2065,2064,2086,2115,2069,2081,2052
2062,2062,2072,2094,2126,2081,2083,2071
2062,2058,2073,2099,2118,2099,2088,2073
2074,2058,2075,2092,2114,2108,2083,2074
2067,2052,2064,2088,2100,2106,2087,2075
2060,2044,2046,2074,2101,2105,2068,2072
2054,2040,2035,2064,2123,2091,2062,2074
2052,2036,2024,2056,2121,2072,2031,2073
2049,2038,2025,2062,2124,2078,2035,2074
2057,2043,2039,2084,2158,2090,2068,2079
2059,2040,2025,2074,2162,2091,2065,2080
2047,2029,2018,2066,2136,2074,2065,2086
2037,2024,2020,2049,2089,2047,2051,2078
2037,2023,2022,2046,2039,2039,2051,2080
2038,2033,2031,2028,1919,2037,2045,2075
2040,2041,2038,2029,1911,2052,2043,2064
2041,2038,2031,2035,1972,2045,2032,2043
2030,2026,2027,2018,1948,2020,2035,2035
2028,2022,2020,2029,2008,2030,2035,2032
2024,2013,2021,2054,2094,2053,2047,2019
2019,2012,2029,2069,2110,2064,2054,2021
2030,2022,2055,2073,2076,2044,2037,2025
2040,2047,2070,2074,2038,2029,2037,2026
2045,2047,2074,2073,2051,2040,2047,2027
2040,2048,2070,2071,2056,2039,2038,2030
2046,2047,2075,2073,2053,2033,2037,2021
2043,2040,2073,2072,2061,2032,2039,2024
2044,2045,2076,2074,2068,2036,2031,2032
2054,2047,2081,2080,2072,2045,2020,2039
2057,2053,2071,2067,2075,2044,2027,2031
2051,2044,2062,2062,2044,2042,2013,2036
2053,2047,2057,2061,2008,2055,2043,2036
2053,2044,2057,2070,2015,2076,2052,2043
2061,2048,2053,2058,2027,2077,2050,2054
2069,2052,2052,2043,2008,2053,2035,2054
2053,2053,2053,2025,2007,2037,2036,2044
2045,2053,2059,2029,2026,2024,2047,2063
2054,2054,2070,2040,2042,2005,2035,2074
2048,2057,2060,2041,2044,2014,2029,2076
2040,2051,2052,2036,2043,2025,2034,2075
2043,2050,2043,2043,2043,2039,2047,2072
2052,2052,2040,2044,2047,2042,2046,2072
2052,2036,2033,2044,2034,2034,2033,2067
2039,2027,2031,2049,2032,2024,2022,2065
2035,2032,2031,2060,2039,2033,2034,2071
2039,2036,2037,2066,2053,2051,2040,2080
2043,2035,2037,2068,2049,2057,2047,2081
2040,2046,2038,2067,2047,2045,2058,2067
2051,2053,2037,2063,2052,2046,2039,2060
2051,2050,2036,2063,2052,2056,2057,2058
2056,2051,2022,2061,2053,2060,2055,2052
2051,2045,2025,2060,2052,2066,2054,2048
2049,2043,2015,2056,2054,2063,2039,2031
2046,2034,2006,2054,2056,2060,2052,2030
2048,2050,2026,2065,2061,2056,2048,2035
2051,2049,2037,2066,2054,2044,2037,2027
2046,2042,2038,2058,2045,2040,2029,2016
2043,2026,2033,2048,2041,2044,2035,2018
2042,2022,2033,2029,2031,2034,2036,2009
2040,2020,2033,2027,2023,2039,2044,2016
2042,2029,2038,2040,2042,2045,2037,2019
2053,2052,2042,2056,2052,2053,2030,2027
2054,2057,2049,2067,2063,2058,2058,2024
2051,2053,2045,2064,2064,2055,2059,2030
2045,2044,2029,2059,2058,2052,2032,2029
2037,2041,2023,2057,2052,2051,2033,2029
2039,2048,2033,2064,2048,2052,2023,2035
2050,2056,2037,2058,2052,2051,2023,2037
2044,2059,2036,2046,2044,2044,2022,2039
2041,2055,2040,2040,2030,2036,2016,2045
2041,2050,2041,2034,2034,2045,2039,2052
2041,2055,2040,2029,2050,2053,2048,2059
2037,2051,2041,2026,2041,2058,2049,2069
2044,2061,2053,2030,2041,2063,2053,2070
2045,2060,2047,2034,2064,2055,2044,2064
2045,2056,2049,2032,2084,2060,2045,2069
2050,2065,2062,2045,2121,2070,2044,2072
2059,2070,2058,2046,2106,2071,2040,2068
2050,2063,2043,2053,2125,2077,2042,2062
2040,2046,2037,2053,2130,2065,2042,2055
2032,2047,2026,2042,2079,2039,2036,2051
2040,2051,2040,2044,2042,2035,2041,2045
2052,2056,2058,2056,1981,2026,2037,2043
2058,2061,2067,2044,1846,2023,2027,2042
2058,2054,2066,2024,1874,2033,2033,2033
2057,2055,2065,2019,1936,2037,2032,2032
2057,2063,2071,2038,1998,2050,2058,2031
2058,2066,2066,2051,2020,2057,2035,2034
2060,2066,2063,2058,2024,2066,2061,2025
2054,2062,2070,2066,2018,2091,2053,2013
2052,2060,2069,2053,2018,2092,2040,2003
2040,2042,2048,2047,2013,2090,2044,2001
2043,2026,2047,2059,2033,2092,2040,1998
2045,2034,2049,2072,2054,2075,2040,2004
2039,2026,2038,2071,2066,2022,2030,2020
2038,2041,2041,2080,2081,2001,2015,2029
2046,2044,2039,2077,2093,2029,2040,2029
2052,2048,2029,2066,2093,2046,2057,2029
2048,2049,2016,2058,2082,2046,2032,2034
2051,2046,2003,2056,2067,2038,2048,2043
2048,2045,1999,2047,2052,2046,2025,2042
2049,2046,1994,2038,2050,2043,2053,2049
2044,2049,2010,2045,2054,2047,2045,2058
2045,2058,2037,2044,2053,2051,2035,2062
2051,2054,2052,2032,2044,2042,2035,2066
2051,2059,2063,2036,2039,2038,2036,2070
2055,2059,2068,2024,2018,2026,2048,2066
2044,2053,2062,2019,2016,2035,2023,2065
2047,2054,2075,2029,2022,2038,2016,2066
2055,2060,2067,2014,2017,2024,2027,2074
2053,2056,2068,2018,1995,2020,2012,2069
2057,2062,2070,2029,1944,2012,2032,2061
2062,2071,2082,2046,1950,2017,2038,2053
2057,2067,2074,2045,1978,2012,2028,2031
2049,2057,2052,2036,1990,2018,2057,2032
2062,2055,2050,2062,2088,2058,2061,2034
2059,2059,2045,2069,2135,2070,2054,2023
2055,2053,2033,2065,2100,2072,2058,2025
2058,2047,2038,2066,2085,2066,2025,2021
2060,2052,2046,2058,2113,2060,2018,2016
2052,2051,2048,2064,2121,2061,2061,2003
2049,2056,2061,2070,2089,2063,2056,2008
2054,2058,2066,2070,2074,2057,2049,2007
2052,2048,2053,2070,2048,2038,2049,2013
2054,2041,2050,2066,2046,2047,2049,2014
2063,2054,2060,2075,2067,2063,2055,2015
2059,2058,2062,2080,2078,2068,2057,2013
2056,2058,2068,2078,2062,2055,2043,2019
2051,2056,2066,2072,1994,2044,2038,2026
2053,2048,2066,2077,1989,2052,2041,2022
2044,2050,2065,2084,2044,2060,2045,2023
2046,2055,2060,2094,2067,2065,2049,2028
2040,2052,2055,2101,2081,2072,2041,2023
2035,2043,2049,2095,2093,2065,2038,2041
2046,2046,2043,2096,2084,2034,2040,2054
2047,2048,2041,2096,2096,2034,2045,2063
2051,2046,2043,2107,2113,2045,2046,2070
2048,2046,2042,2098,2137,2051,2041,2072
2045,2041,2032,2081,2146,2052,2044,2063
2032,2025,2009,2050,2116,2039,2029,2062
2027,2014,1998,2020,2026,2006,2033,2062
2033,2020,1994,1998,1956,1979,2033,2058
2037,2025,2012,2016,1967,1982,2035,2049
2044,2041,2032,2024,1917,1982,2032,2049
2052,2045,2042,1988,1817,1987,2020,2042
2054,2044,2045,1982,1895,2011,2028,2040
2067,2070,2064,2034,2034,2041,2047,2040
2066,2080,2090,2067,2085,2057,2053,2036
2067,2075,2081,2072,2108,2078,2058,2028
2067,2062,2068,2061,2092,2082,2055,2021
2049,2056,2058,2040,2045,2064,2049,2014
2043,2055,2059,2020,2028,2052,2058,2016
2042,2056,2050,2013,2034,2051,2056,2021
2054,2054,2044,2008,2039,2055,2064,2026
2056,2051,2033,1995,2041,2057,2058,2015
2050,2039,2022,1994,2031,2054,2063,2012
2037,2030,2013,1998,2015,2051,2060,2013
2037,2030,2024,2011,2021,2049,2066,2016
2043,2038,2021,2026,2064,2065,2061,2024
2045,2041,2022,2031,2105,2061,2067,2026
2045,2047,2028,2040,2128,2074,2080,2034
2057,2056,2034,2055,2135,2079,2079,2044
2059,2050,2035,2064,2134,2078,2083,2049
2062,2051,2031,2055,2112,2073,2076,2045
2054,2047,2030,2048,2082,2064,2067,2051
2054,2034,2022,2048,2045,2056,2056,2053
2050,2021,2021,2036,2024,2073,2056,2046
2050,2027,2026,2035,2032,2084,2058,2054
2047,2033,2037,2027,2016,2091,2064,2058
2051,2043,2052,2028,1998,2075,2066,2072
2053,2046,2068,2029,2005,2041,2061,2072
2048,2038,2068,2032,2043,2033,2066,2077
2056,2047,2074,2044,2084,2049,2073,2084
2059,2065,2084,2051,2080,2038,2066,2079
2059,2064,2075,2047,2066,2021,2064,2072
2050,2058,2071,2068,2071,2010,2051,2062
2059,2057,2064,2076,2054,2004,2043,2049
2055,2047,2053,2061,2026,2009,2047,2040
2048,2049,2047,2051,2010,2025,2043,2035
2044,2050,2056,2055,2037,2040,2056,2021
2044,2040,2055,2061,2120,2047,2052,2027
2050,2037,2038,2059,2158,2053,2064,2030
2062,2049,2046,2066,2139,2058,2062,2035
2063,2050,2053,2071,2125,2048,2071,2031
2064,2045,2058,2070,2116,2050,2054,2021
2051,2039,2046,2072,2105,2051,2042,2019
2056,2045,2055,2082,2106,2054,2038,2015
2050,2027,2043,2072,2055,2058,2061,2009
2042,2019,2042,2050,1899,2056,2060,2012
2044,2030,2050,2069,1897,2055,2033,2015
2047,2032,2052,2073,1938,2059,2046,2014
2056,2041,2049,2087,1978,2042,2053,2020
2052,2044,2053,2096,2044,2015,2059,2022
2051,2045,2044,2104,2071,2051,2066,2026
2054,2042,2035,2099,2104,2075,2063,2034
2047,2034,2024,2086,2113,2091,2071,2025
2041,2029,2020,2069,2091,2082,2050,2033
2042,2028,2010,2064,2090,2062,2052,2038
2043,2027,2001,2047,2094,2060,2064,2043
2045,2034,1989,2033,2056,2038,2047,2057
2050,2023,1966,1989,1922,1999,2032,2047
2034,2023,1968,1945,1917,1981,2023,2056
2042,2030,1994,1961,2033,2009,2035,2063
2043,2043,2024,1981,2069,2027,2041,2068
2046,2057,2060,1987,2065,2034,2040,2078
2055,2072,2084,1993,2070,2041,2056,2073
2056,2076,2106,2012,2095,2051,2059,2070
2058,2080,2119,2037,2097,2057,2058,2082
2061,2071,2104,2044,2089,2059,2046,2069
2058,2064,2083,2035,2064,2031,2038,2056
2052,2055,2076,2022,2051,2014,2034,2051
2058,2054,2077,2029,2042,2030,2029,2049
2057,2056,2072,2028,2020,2028,2032,2038
2061,2056,2073,2029,2025,2040,2037,2033
2059,2055,2074,2038,2036,2042,2043,2019
2052,2053,2071,2031,2035,2040,2025,2014
2051,2045,2061,2030,2016,2040,2039,2017
2048,2049,2052,2028,2033,2045,2024,2017
2052,2048,2047,2031,2034,2054,2020,2013
2049,2033,2038,2026,2033,2053,2020,2009
2050,2027,2038,2022,2036,2051,2052,2018
2056,2039,2041,2031,2045,2056,2044,2014
2052,2053,2053,2043,2057,2063,2049,2026
2060,2072,2067,2047,2061,2060,2044,2037
2066,2073,2063,2042,2059,2054,2056,2034
2053,2065,2055,2038,2053,2050,2054,2044
2052,2064,2056,2047,2064,2046,2037,2042
2057,2065,2055,2045,2085,2036,2028,2047
2054,2060,2045,2053,2089,2046,2033,2053
2054,2060,2052,2065,2084,2047,2048,2058
2056,2053,2040,2059,2058,2046,2028,2057
2045,2039,2036,2057,2064,2049,2030,2066
2041,2041,2032,2062,2064,2057,2037,2067
2045,2047,2047,2071,2069,2069,2045,2073
2059,2061,2058,2081,2075,2061,2053,2069
2054,2050,2041,2074,2046,2042,2039,2066
2051,2047,2038,2070,2024,2035,2013,2074
2056,2060,2047,2075,2024,2048,2026,2067
2060,2057,2044,2062,2002,2024,2013,2056
2045,2045,2031,2045,2008,2005,2014,2040
2041,2046,2033,2036,2032,2029,2002,2030
2045,2051,2035,2033,2021,2039,2009,2034
2043,2053,2037,2034,2020,2037,2033,2033
2045,2042,2032,2028,2040,2055,2026,2034
2042,2043,2037,2031,2055,2056,2017,2033
2049,2059,2078,2040,2069,2052,2044,2030
2055,2074,2100,2050,2067,2057,2038,2029
2055,2077,2106,2048,2067,2055,2042,2031
2054,2070,2093,2048,2074,2060,2049,2034
2057,2068,2085,2053,2074,2055,2038,2025
2054,2062,2079,2047,2057,2054,2055,2019
2050,2051,2061,2045,2036,2052,2031,2003
2042,2048,2057,2049,2030,2043,2026,2000
2045,2046,2056,2038,2010,2040,2033,2001
2046,2043,2056,2022,1964,2039,2035,2006
2044,2043,2054,2025,1964,2037,2030,2017
2047,2049,2056,2027,2010,2051,2039,2029
2055,2055,2059,2038,2039,2071,2059,2040
2064,2064,2070,2052,2069,2094,2055,2049
2068,2059,2063,2057,2075,2085,2050,2050
2061,2047,2053,2045,2092,2068,2050,2053
2061,2050,2055,2044,2100,2050,2021,2041
2054,2050,2062,2049,2114,2060,2032,2039
2049,2046,2061,2057,2110,2074,2049,2050
2042,2043,2049,2054,2091,2075,2063,2053
2043,2038,2048,2042,2061,2057,2038,2061
2045,2036,2040,2028,2002,2020,2048,2054
2032,2026,2032,2023,1992,2014,2043,2054
2037,2027,2046,2033,2014,2034,2040,2062
2042,2043,2053,2033,2032,2046,2045,2061
2047,2042,2054,2041,2030,2054,2059,2058
2046,2046,2052,2039,2040,2055,2063,2065
2054,2045,2052,2037,2040,2057,2058,2060
2055,2044,2047,2033,2032,2054,2050,2047
2059,2040,2044,2028,2031,2042,2049,2034
2053,2043,2040,2029,2024,2041,2047,2024
2051,2039,2037,2027,2023,2039,2051,2016
2051,2040,2043,2027,2022,2045,2057,2010
2043,2040,2049,2037,2031,2040,2030,2004
2042,2041,2047,2037,2041,2040,2046,2014
2041,2039,2043,2036,2035,2048,2058,2021
2045,2040,2044,2036,2039,2053,2057,2023
2052,2039,2046,2032,2048,2050,2056,2020
2057,2040,2041,2035,2040,2045,2062,2021
2050,2042,2043,2038,2040,2044,2053,2014
2054,2056,2057,2048,2050,2061,2056,2018
2053,2050,2051,2048,2045,2056,2062,2017
2057,2050,2046,2044,2028,2056,2059,2021
2058,2052,2056,2045,2020,2043,2065,2029
2056,2053,2056,2039,2004,2023,2053,2036
2057,2055,2057,2033,1990,2036,2050,2028
2051,2051,2051,2030,1988,2046,2052,2025
2062,2051,2044,2022,2001,2063,2041,2029
2056,2061,2047,2030,2032,2078,2050,2042
2067,2060,2054,2046,2060,2075,2038,2058
2054,2057,2063,2064,2089,2056,2048,2075
2056,2062,2062,2064,2107,2078,2061,2077
2056,2057,2054,2054,2107,2092,2042,2078
2045,2055,2050,2046,2098,2092,2034,2069
2042,2049,2043,2038,2095,2094,2052,2061
2041,2042,2037,2035,2090,2081,2053,2060
2041,2048,2044,2041,2083,2029,2044,2065
2054,2053,2048,2046,2072,2015,2049,2069
2057,2050,2047,2042,2054,2017,2050,2060
2060,2045,2038,2033,2050,2032,2040,2051
2057,2047,2041,2030,2052,2038,2044,2047
2043,2050,2048,2035,2050,2040,2043,2040
2047,2050,2050,2041,2058,2052,2038,2032
2050,2045,2045,2037,2050,2071,2039,2028
2048,2047,2044,2038,2048,2088,2048,2022
2049,2046,2049,2030,2037,2096,2037,2017
2047,2043,2042,2030,2040,2089,2039,2017
2046,2047,2047,2034,2045,2044,2039,2023
2052,2048,2054,2047,2065,2003,2020,2031
2048,2048,2053,2053,2060,2024,2030,2026
2052,2047,2042,2046,2050,2031,2025,2013
2043,2039,2037,2046,2041,2041,2022,2011
2046,2043,2043,2049,2049,2050,2039,2022
2054,2053,2052,2047,2051,2050,2027,2027
2059,2051,2045,2049,2045,2060,2041,2033
2055,2046,2048,2049,2056,2060,2047,2036
2054,2043,2047,2048,2046,2065,2061,2027
2053,2042,2045,2042,2044,2058,2052,2032
2055,2040,2043,2039,2043,2060,2048,2036
2049,2044,2039,2036,2057,2063,2044,2042
2053,2043,2035,2050,2065,2078,2052,2038
2049,2040,2033,2051,2078,2070,2055,2043
2049,2039,2035,2048,2078,2054,2056,2054
2053,2056,2037,2053,2061,2044,2053,2065
2054,2050,2036,2046,2047,2038,2047,2077
2052,2044,2028,2042,2058,2043,2059,2076
2050,2042,2018,2027,2058,2043,2047,2060
2036,2030,2009,2023,2049,2044,2056,2059
2033,2029,2009,2024,2041,2055,2061,2073
2039,2035,2015,2019,2037,2057,2047,2070
2047,2035,2020,2022,2019,2045,2037,2064
2045,2051,2036,2024,2026,2040,2036,2060
2049,2062,2058,2033,2031,2047,2041,2053
2053,2065,2069,2038,2030,2045,2024,2047
2056,2063,2069,2034,2030,2041,2019,2038
2053,2061,2068,2037,2050,2040,2017,2033
2054,2058,2065,2052,2061,2046,2048,2031
2054,2053,2064,2051,2060,2050,2050,2026
2044,2050,2065,2040,2045,2046,2046,2020
2046,2054,2065,2040,2038,2045,2053,2025
2054,2060,2067,2046,2042,2052,2049,2023
2053,2060,2072,2045,2038,2055,2048,2020
2056,2062,2076,2045,2014,2052,2051,2022
2047,2052,2064,2041,2004,2048,2041,2020
2052,2041,2056,2042,2028,2042,2047,2019
2059,2046,2056,2045,2020,2041,2035,2031
2067,2049,2056,2047,2008,2052,2025,2029
2060,2053,2055,2039,1980,2061,2044,2016
2052,2059,2056,2038,1983,2069,2035,2024
2054,2048,2056,2037,1991,2059,2053,2026
2045,2046,2051,2025,1973,2028,2055,2032
2040,2047,2056,2027,2012,2006,2040,2041
2044,2051,2063,2060,2095,2025,2055,2051
2047,2062,2068,2071,2105,2036,2063,2059
2055,2063,2071,2071,2096,2050,2047,2069
2050,2059,2057,2058,2122,2059,2045,2064
2046,2051,2053,2055,2142,2077,2036,2058
2038,2044,2062,2068,2160,2092,2035,2064
2041,2045,2073,2083,2142,2089,2032,2062
2039,2037,2072,2070,2072,2038,2021,2066
2036,2037,2077,2070,2032,2008,2039,2076
2042,2051,2083,2075,2019,2007,2027,2062
2049,2041,2072,2055,1991,2001,2025,2062
2045,2047,2074,2077,1980,1990,2037,2069
2060,2062,2084,2094,1962,2014,2051,2071
2065,2066,2080,2102,2022,2047,2050,2068
2059,2063,2077,2095,2062,2071,2051,2052
2052,2054,2061,2079,2084,2069,2038,2033
2051,2051,2051,2067,2072,2058,2038,2026
2057,2054,2045,2054,2049,2047,2054,2026
2049,2045,2038,2042,2042,2044,2044,2022
2049,2044,2031,2032,2038,2052,2043,2014
2043,2054,2032,2011,2024,2056,2042,2015
2046,2048,2018,1991,2021,2065,2062,2019
2052,2047,2022,1974,2026,2061,2039,2011
2051,2033,2005,1961,2029,2060,2044,2014
2045,2037,2005,1967,2031,2060,2044,2033
2059,2048,2013,1989,2054,2056,2049,2031
2054,2052,2029,2005,2070,2060,2042,2022
2063,2060,2041,2021,2076,2068,2056,2027
2054,2063,2043,2031,2071,2074,2032,2037
2052,2054,2044,2026,2067,2070,2030,2042
2051,2047,2036,2031,2052,2058,2028,2046
2049,2054,2039,2030,2030,2035,2016,2051
2047,2050,2041,2030,2041,2042,2028,2053
2051,2046,2042,2036,2057,2052,2040,2054
2045,2047,2044,2041,2066,2051,2029,2052
2046,2044,2035,2034,2066,2052,2038,2059
2042,2043,2037,2032,2062,2055,2037,2061
2037,2038,2039,2033,2058,2055,2033,2067
2042,2038,2038,2035,2065,2057,2011,2063
2030,2034,2027,2033,2070,2048,2020,2068
2036,2032,2029,2032,2059,2048,2051,2072
2052,2042,2032,2042,2064,2053,2054,2071
2053,2045,2038,2040,2066,2052,2055,2068
2052,2049,2040,2037,2060,2055,2066,2070
2052,2052,2041,2038,2053,2060,2068,2065
2049,2050,2037,2031,2041,2062,2065,2061
2043,2050,2034,2031,2024,2050,2060,2049
2045,2052,2041,2011,1937,2035,2049,2040
2046,2048,2039,2015,1917,2030,2042,2030
2047,2050,2033,2017,1933,2033,2053,2035
2055,2056,2040,2023,1948,2037,2042,2034
2047,2045,2036,2026,2010,2044,2030,2023
2044,2046,2034,2032,2041,2044,2033,2014
2042,2040,2025,2027,2029,2042,2053,2010
2050,2045,2029,2031,2044,2038,2040,2009
2046,2031,2026,2031,2031,2034,2036,2004
2037,2025,2024,2015,2012,2043,2037,2014
2038,2044,2041,2046,2047,2044,2044,2033
2046,2053,2057,2067,2088,2046,2067,2042
2049,2057,2058,2080,2115,2057,2072,2051
2051,2061,2055,2071,2121,2077,2073,2049
2050,2054,2055,2068,2120,2091,2080,2045
2048,2050,2042,2058,2102,2086,2076,2047
2051,2046,2039,2051,2082,2084,2072,2050
2050,2050,2043,2048,2060,2072,2071,2060
2048,2043,2041,2040,2040,2049,2059,2063
2051,2045,2045,2043,2034,2042,2064,2068
2047,2042,2040,2040,2045,2042,2062,2068
2045,2037,2044,2041,2050,2044,2055,2077
2041,2042,2041,2039,2046,2044,2056,2074
2042,2043,2046,2035,2035,2044,2055,2082
2036,2037,2041,2032,2013,2042,2055,2075
2035,2034,2036,2026,1977,2053,2046,2079
2041,2040,2042,2031,2036,2084,2069,2078
2045,2036,2039,2038,2062,2095,2069,2068
2043,2042,2042,2047,2039,2093,2077,2061
2036,2040,2043,2047,2022,2070,2067,2058
2041,2043,2048,2047,1990,2015,2069,2055
2044,2047,2041,2037,1993,2001,2060,2049
2040,2040,2038,2045,2032,2024,2054,2045
2047,2041,2042,2045,2058,2046,2069,2037
2046,2039,2047,2030,2126,2058,2055,2022
2040,2032,2035,2014,2070,2052,2047,2013
2034,2032,2039,2017,2012,2031,2035,2005
2035,2034,2041,2014,1991,2012,2029,2004
2036,2035,2040,2027,1986,2020,2040,2014
2044,2031,2042,2030,2007,2025,2044,2008
2036,2020,2035,2028,2040,2040,2047,2010
2036,2026,2035,2032,2048,2047,2047,2024
2037,2035,2044,2035,2058,2043,2051,2026
2037,2030,2048,2035,2046,2039,2057,2022
2041,2038,2049,2034,2064,2049,2057,2025
2048,2037,2049,2042,2104,2058,2035,2022
2052,2038,2049,2046,2105,2068,2038,2032
2052,2038,2046,2036,2053,2056,2040,2035
2053,2040,2041,2022,2024,2054,2027,2028
2046,2027,2030,2016,2037,2081,2053,2039
2046,2037,2042,2035,2060,2108,2060,2060
2059,2040,2053,2042,2053,2114,2057,2063
2060,2047,2051,2046,2052,2086,2051,2077
2061,2052,2065,2062,2086,2032,2046,2088
2064,2054,2061,2072,2098,2036,2057,2090
2062,2046,2051,2059,2087,2044,2042,2079
2047,2035,2044,2044,2059,2031,2029,2082
2048,2034,2037,2034,2037,2017,2019,2083
2055,2047,2045,2036,2025,2007,2018,2075
2062,2043,2046,2049,2041,2015,2039,2071
2064,2047,2052,2045,2036,2023,2060,2063
2061,2049,2048,2049,2036,2022,2055,2056
2066,2049,2052,2044,2041,2027,2030,2055
2060,2049,2051,2040,2050,2035,2047,2046
2068,2054,2050,2045,2064,2048,2067,2035
2057,2049,2047,2044,2054,2071,2084,2029
2043,2044,2050,2045,2038,2080,2082,2019
2050,2042,2049,2044,2038,2063,2065,2024
2054,2040,2051,2042,2046,2060,2074,2022
2053,2041,2050,2049,2059,2064,2054,2025
2054,2045,2050,2048,2044,2061,2056,2018
2047,2037,2041,2038,2035,2055,2060,2013
2036,2029,2034,2030,2027,2052,2047,2011
2035,2023,2033,2029,2020,2057,2064,2025
2045,2032,2033,2026,2019,2056,2069,2025
2048,2033,2037,2034,2046,2065,2065,2041
2057,2047,2049,2050,2063,2069,2092,2044
2059,2055,2057,2050,2046,2060,2107,2057
2056,2048,2058,2042,2031,2056,2077,2057
2047,2047,2053,2054,2055,2059,2065,2058
2042,2041,2049,2057,2075,2067,2064,2055
2050,2044,2048,2065,2052,2060,2055,2060
2044,2043,2049,2060,2067,2058,2079,2064
2043,2031,2045,2056,2069,2065,2100,2080
2041,2038,2042,2061,2065,2054,2116,2090
2038,2036,2042,2057,2049,2049,2120,2105
2042,2039,2048,2056,2044,2046,2112,2124
2051,2036,2044,2056,2038,2049,2105,2145
2047,2034,2051,2047,2028,2047,2088,2163
2056,2037,2040,2029,2000,2041,2065,2157
2060,2040,2043,2035,2025,2047,2072,2154
2057,2038,2050,2047,2049,2040,2061,2148
2057,2029,2046,2046,2030,1998,2011,2132
2050,2031,2041,2040,2030,1953,1960,2128
2056,2036,2041,2045,2037,1930,1911,2129
2057,2035,2045,2042,2034,1949,1911,2103
2058,2043,2049,2040,2033,2000,1875,2086
2054,2040,2047,2040,2029,2042,1945,2083
2056,2041,2042,2042,2045,2079,2022,2087
2059,2039,2045,2050,2056,2100,2041,2078
2055,2042,2045,2045,2051,2100,2030,2043
2044,2040,2045,2052,2051,2075,2027,2016
2039,2042,2046,2048,2047,2033,2028,2018
2043,2045,2051,2047,2041,2013,2046,2016
2038,2036,2049,2046,2044,2016,2060,2012
2051,2049,2053,2054,2061,2032,2073,2033
2062,2057,2067,2064,2060,2052,2064,2022
2057,2061,2066,2067,2060,2056,2035,2010
2052,2054,2063,2060,2055,2059,2046,2023
2057,2049,2059,2064,2057,2057,2066,2022
2044,2047,2053,2063,2064,2061,2068,2000
2040,2041,2050,2053,2064,2067,2079,2015
2039,2039,2045,2051,2054,2071,2055,2027
2043,2041,2040,2043,2030,2078,2048,2032
2033,2042,2040,2036,2017,2082,2054,2032
2040,2037,2046,2037,2018,2104,2063,2037
2039,2038,2043,2036,2012,2077,2068,2051
2045,2046,2048,2041,2019,2047,2070,2067
2047,2046,2056,2052,2053,2040,2071,2072
2053,2049,2054,2057,2065,2036,2060,2060
2043,2040,2046,2049,2057,2027,2022,2049
2025,2032,2045,2042,2057,2045,2020,2038
2025,2034,2049,2046,2046,2048,2031,2033
2030,2033,2042,2041,2030,2057,2026,2040
2025,2041,2041,2036,2023,2064,2038,2040
2026,2045,2049,2035,2034,2077,2051,2037
2033,2044,2051,2041,2040,2086,2062,2034
2029,2045,2048,2044,2049,2089,2067,2037
2039,2040,2049,2051,2048,2070,2064,2029
2036,2040,2046,2049,2035,2037,2058,2029
2038,2029,2043,2043,2035,2037,2049,2026
2032,2038,2042,2041,2035,2027,2052,2015
2031,2040,2050,2040,2032,2014,2046,2013
2042,2031,2047,2040,2036,2010,2042,2017
2066,2042,2058,2042,2033,2015,2032,2024
2090,2059,2057,2046,2029,2014,2023,2013
2071,2040,2047,2036,2023,2007,2018,2006
2046,2031,2041,2034,2033,2012,2019,2002
2042,2036,2047,2043,2036,2017,2040,2006
2040,2039,2052,2043,2037,2019,2042,2004
2043,2036,2045,2042,2044,2027,2057,2019
2049,2037,2045,2047,2040,2035,2061,2027
2049,2039,2048,2049,2041,2032,2062,2038
2046,2039,2047,2055,2048,2040,2070,2039
2048,2044,2051,2053,2048,2039,2071,2042
2047,2044,2053,2051,2049,2032,2072,2056
2049,2044,2058,2055,2049,2031,2072,2060
2048,2044,2052,2054,2052,2038,2068,2063
2046,2044,2054,2053,2053,2037,2060,2063
2051,2039,2054,2056,2053,2074,2056,2073
2049,2041,2055,2052,2054,2105,2077,2074
2045,2041,2052,2047,2053,2107,2075,2065
2032,2036,2043,2043,2051,2096,2068,2059
2035,2037,2054,2041,2050,2081,2066,2060
2036,2047,2051,2041,2055,2061,2072,2054
2040,2046,2052,2034,2048,2046,2059,2058
2035,2048,2042,2036,2056,2047,2068,2050
2045,2046,2043,2030,2046,2053,2074,2041
2048,2043,2043,2034,2043,2057,2075,2031
2042,2040,2035,2030,2046,2055,2064,2021
2035,2040,2041,2027,2035,2038,2076,2020
2035,2040,2040,2035,2035,2034,2039,2020
2037,2038,2037,2032,2027,2018,2007,2016
2040,2044,2041,2038,2009,2016,1998,2019
2049,2050,2048,2039,2004,2012,1994,2032
2050,2039,2049,2035,2003,2011,2007,2035
2044,2041,2049,2033,2024,2014,2042,2034
2044,2034,2038,2032,2061,1996,2032,2020
2032,2029,2033,2034,2091,2009,2013,2013
2031,2034,2039,2040,2110,2035,2029,2017
2043,2049,2045,2050,2120,2054,2021,2020
2039,2054,2051,2052,2114,2088,2060,2025
2044,2051,2052,2045,2108,2101,2068,2025
2042,2056,2052,2047,2102,2054,2066,2030
2051,2060,2056,2056,2050,2024,2057,2026
2049,2052,2054,2040,1919,2015,2068,2028
2046,2051,2049,2034,1946,2027,2054,2030
2046,2056,2056,2043,1991,2041,2065,2038
2056,2055,2052,2038,1990,2032,2045,2040
2044,2054,2049,2038,2001,2023,2034,2047
2051,2052,2053,2042,2019,2007,2053,2057
2054,2048,2056,2042,2022,2001,2063,2069
2055,2052,2052,2046,2031,2019,2074,2072
2053,2046,2042,2040,2028,2033,2076,2064
2046,2037,2036,2030,2021,2056,2067,2064
2042,2039,2043,2030,2030,2086,2080,2062
2045,2044,2043,2038,2034,2078,2088,2062
2040,2045,2047,2038,2030,2070,2105,2066
2050,2045,2050,2042,2035,2065,2120,2066
2049,2050,2052,2045,2040,2049,2126,2068
2045,2045,2049,2045,2035,2037,2129,2071
2047,2041,2050,2046,2048,2048,2133,2052
2051,2050,2043,2046,2047,2038,2076,2043
2042,2047,2048,2049,2042,2050,2047,2040
2049,2044,2050,2044,2053,2054,2009,2027
2054,2054,2050,2052,2048,2054,2018,2029
2053,2048,2050,2052,2049,2054,2030,2024
2054,2051,2054,2052,2059,2084,2043,2022
2048,2050,2052,2054,2062,2103,2052,2020
2043,2040,2043,2047,2048,2106,2043,2015
2041,2033,2034,2046,2047,2137,2050,2011
2037,2033,2037,2046,2054,2164,2054,2017
2042,2032,2044,2039,2048,2137,2052,2010
2040,2039,2043,2040,2023,2020,2039,2014
2040,2046,2043,2037,1996,1986,2064,2025
2041,2045,2042,2029,1990,2023,2066,2039
2047,2042,2039,2021,1978,2049,2078,2046
2043,2037,2044,2029,2006,2074,2091,2048
2055,2043,2047,2047,2035,2081,2075,2041
2060,2046,2048,2047,2029,2061,2046,2038
2050,2046,2048,2038,2033,2059,2043,2032
2044,2038,2047,2035,2031,2054,2017,2024
2039,2038,2043,2034,2016,2036,2024,2026
2033,2039,2039,2030,2019,2021,2012,2032
2035,2026,2036,2025,2012,2008,2031,2036
2038,2022,2034,2018,1989,2006,2020,2029
2027,2014,2030,2010,1983,2004,2008,2021
2039,2032,2040,2015,1990,1998,2002,2017
2045,2041,2037,2021,2013,1990,2003,2022
2047,2047,2042,2034,2065,2029,2062,2044
2050,2039,2040,2033,2093,2081,2121,2072
2047,2042,2042,2044,2092,2080,2129,2103
2046,2039,2046,2039,2077,2077,2160,2101
2042,2040,2044,2044,2059,2090,2176,2089
2044,2044,2051,2047,2047,2088,2170,2072
2054,2049,2046,2039,2030,2083,2176,2059
2054,2048,2038,2035,2035,2074,2192,2057
2060,2044,2034,2054,2072,2072,2201,2043
2056,2044,2034,2049,2059,2078,2239,2052
2061,2046,2036,2039,2029,2085,2247,2042
2073,2050,2046,2047,2026,2093,2189,2035
2066,2052,2047,2048,2040,2070,2059,1999
2045,2040,2044,2052,2064,2045,1950,1965
2028,2036,2043,2064,2102,2009,1817,1962
2029,2034,2037,2061,2130,2002,1847,1976
2032,2041,2040,2066,2123,2056,1957,2003
2047,2049,2046,2065,2116,2051,1982,2020
2051,2059,2055,2054,2113,2032,1994,2013
2040,2054,2047,2044,2089,2062,1994,2015
2040,2053,2043,2032,2027,2099,2028,2021
2041,2051,2042,2024,2023,2121,2047,2031
2038,2053,2044,2041,2088,2087,2040,2040
2042,2049,2051,2046,2109,2046,2036,2044
2045,2047,2050,2052,2094,2037,2041,2052
2040,2040,2045,2040,2078,2041,2036,2053
2046,2041,2041,2037,2064,2046,2042,2052
2046,2038,2042,2036,2058,2037,2031,2057
2043,2041,2039,2028,2039,2026,2010,2059
2035,2039,2045,2028,2000,2015,2002,2056
2032,2051,2038,2033,2029,2011,2001,2061
2048,2056,2046,2034,2046,2004,2020,2070
2049,2062,2045,2036,2028,2001,2015,2066
2047,2056,2038,2038,2036,2011,2019,2053
2045,2054,2038,2041,2020,1996,2020,2054
2047,2061,2038,2038,2022,1978,2020,2043
2049,2050,2033,2029,2030,1996,2023,2040
2045,2041,2025,2013,1981,2016,2021,2022
2035,2029,2012,1985,1991,2058,2037,2017
2044,2034,2026,2023,2077,2104,2053,2019
2053,2052,2045,2067,2138,2102,2043,2007
2053,2050,2047,2059,2129,2075,2023,2002
2052,2058,2048,2068,2128,2079,2033,2003
2054,2069,2063,2074,2143,2095,2055,2004
2053,2067,2062,2070,2139,2077,2041,2001
2044,2052,2054,2042,2095,2027,2014,1994
2038,2039,2045,2034,2058,2018,2013,2006
2040,2044,2047,2027,2027,2018,2014,2009
2046,2054,2052,2023,1984,2001,2022,2015
2045,2053,2048,2015,1952,2007,2032,2014
2046,2043,2037,2020,2027,2051,2043,2017
2045,2042,2032,2027,2069,2080,2028,2018
2050,2045,2043,2040,2070,2073,2043,2029
2045,2046,2050,2043,2065,2069,2046,2028
2043,2038,2048,2037,2049,2056,2046,2032
2038,2036,2043,2038,2062,2048,2030,2039
2043,2035,2042,2037,2068,2050,2052,2047
2046,2037,2048,2038,2068,2056,2050,2054
2051,2045,2051,2039,2067,2051,2043,2066
2054,2051,2052,2037,2056,2051,2022,2066
2047,2056,2054,2026,2037,2049,2023,2054
2044,2042,2043,2020,2007,2050,2026,2062
2038,2036,2038,2015,1997,2061,2022,2056
2039,2043,2042,2016,1982,2042,1992,2051
2044,2045,2042,2020,1995,2010,2010,2042
2043,2046,2052,2031,2026,2003,2019,2046
2050,2055,2051,2042,2046,2002,2021,2054
2055,2060,2054,2050,2057,1990,2028,2061
2059,2064,2057,2060,2085,2027,2054,2054
2056,2063,2060,2048,2083,2096,2065,2047
2060,2062,2050,2042,2120,2105,2046,2043
2066,2062,2048,2046,2140,2093,2023,2045
2059,2064,2051,2056,2151,2095,2025,2030
2059,2062,2053,2057,2163,2088,2006,2021
2056,2056,2059,2055,2157,2084,2021,2021
2055,2055,2055,2056,2146,2093,2034,2019
2051,2054,2059,2054,2132,2106,2066,2006
2043,2049,2048,2059,2104,2106,2074,1994
2045,2043,2044,2044,1991,2089,2075,2002
2049,2049,2045,2034,1941,2071,2076,2008
2051,2053,2047,2037,1964,2088,2076,2018
2060,2049,2047,2044,2005,2085,2072,2021
2060,2058,2053,2046,2030,2078,2081,2023
2057,2048,2051,2044,2065,2068,2044,2030
2048,2045,2052,2050,2077,2074,2056,2037
2049,2050,2057,2054,2080,2082,2066,2046
2054,2053,2057,2057,2077,2063,2053,2052
2058,2054,2050,2048,2071,2038,2052,2056
2058,2051,2051,2054,2076,2052,2066,2073
2053,2053,2048,2055,2057,2054,2056,2073
2054,2045,2056,2055,2058,2069,2051,2068
2060,2054,2051,2055,2051,2081,2052,2075
2059,2048,2054,2052,2037,2068,2062,2075
2059,2047,2044,2039,2009,2022,2043,2065
2047,2037,2036,2025,1995,1997,2032,2058
2048,2046,2038,2021,1990,1989,2037,2060
2050,2045,2035,2022,2001,2000,2040,2065
2047,2044,2042,2027,2044,2005,2052,2058
2049,2048,2042,2041,2094,2011,2061,2049
2053,2051,2045,2041,2079,2020,2050,2040
2055,2052,2044,2038,2056,2056,2056,2036
2047,2045,2037,2030,2031,2095,2076,2027
2054,2046,2035,2025,2012,2081,2075,2032
2056,2050,2033,2026,2019,2052,2055,2029
2055,2049,2037,2037,2053,2002,2046,2029
2052,2053,2047,2049,2068,2012,2045,2029
2060,2050,2047,2055,2084,2061,2051,2028
2056,2051,2038,2040,2076,2084,2056,2018
2047,2043,2037,2034,2070,2102,2056,2007
2044,2037,2037,2029,2039,2138,2049,2012
2040,2035,2039,2034,2050,2153,2061,2014
2042,2038,2042,2040,2079,2116,2048,2019
2048,2040,2040,2043,2068,1998,2038,2016
2049,2037,2037,2033,2048,1966,2032,2023
2051,2038,2038,2044,2059,2020,2042,2022
2052,2036,2040,2041,2070,2068,2037,2020
2048,2039,2041,2045,2084,2093,2060,2024
2049,2043,2050,2046,2088,2104,2055,2028
2048,2043,2044,2046,2069,2076,2041,2033
2039,2039,2047,2047,2067,2052,2050,2038
2040,2034,2055,2044,2057,2049,2041,2056
2047,2044,2049,2046,2061,2043,2051,2060
2053,2047,2047,2040,2058,2035,2042,2067
2055,2045,2042,2037,2052,2015,2034,2056
2046,2045,2034,2033,2048,1997,2025,2058
2047,2029,2029,2025,2042,1991,2011,2052
2032,2026,2030,2024,2054,2006,2003,2055
2034,2034,2042,2040,2054,2016,2023,2053
2041,2042,2040,2035,2037,2020,2008,2044
2037,2042,2036,2030,2030,2017,2005,2040
2036,2039,2041,2031,2026,2015,2014,2048
2040,2045,2034,2025,1996,2011,2012,2050
2050,2050,2041,2017,1981,2008,2014,2043
2050,2044,2034,2010,1973,2009,2053,2033
2044,2038,2027,2006,1991,2027,2061,2016
2032,2028,2027,2017,2018,2050,2070,2016
2032,2041,2032,2039,2061,2077,2079,2021
2035,2040,2045,2052,2102,2107,2094,2017
2054,2048,2045,2052,2122,2112,2073,2024
2053,2045,2043,2050,2103,2096,2072,2025
2052,2051,2050,2053,2103,2074,2072,2017
2048,2055,2048,2049,2072,2055,2061,2014
2041,2040,2042,2041,2053,2056,2050,2006
2033,2044,2035,2042,2048,2053,2047,2012
2040,2050,2046,2046,2058,2072,2053,2012
2040,2049,2049,2059,2092,2079,2062,2016
2046,2054,2053,2045,2042,2069,2060,2021
2045,2048,2049,2018,1975,2054,2046,2026
2044,2046,2054,2020,2030,2062,2068,2035
2043,2050,2058,2026,2037,2059,2068,2031
2045,2050,2052,2029,2029,2053,2070,2038
2040,2052,2046,2028,2032,2040,2059,2042
2046,2049,2050,2036,2043,2016,2055,2052
2045,2049,2044,2032,2051,1996,2045,2054
2043,2047,2038,2032,2075,2001,2041,2063
2049,2047,2039,2034,2084,2012,2051,2074
2049,2052,2034,2036,2075,2026,2059,2079
2049,2051,2039,2034,2061,2050,2061,2069
2041,2037,2036,2027,2049,2075,2067,2076
2038,2043,2041,2031,2049,2088,2078,2071
2051,2052,2054,2040,2056,2091,2080,2071
2048,2052,2052,2046,2065,2091,2075,2056
2044,2056,2058,2043,2081,2092,2069,2052
2049,2051,2053,2043,2084,2110,2087,2044
2045,2047,2043,2038,2074,2104,2076,2040
2041,2044,2043,2033,2071,2084,2074,2037
2044,2041,2044,2029,2061,2074,2069,2032
2045,2043,2042,2034,2060,2064,2073,2027
2042,2042,2037,2027,2060,2047,2047,2012
2042,2040,2036,2031,2057,2037,2065,2013
2038,2040,2037,2026,2052,2034,2046,2008
2037,2039,2036,2027,2052,2042,2043,1996
2034,2039,2038,2026,2044,2044,2026,2000
2037,2035,2039,2018,2034,2043,2032,2000
2032,2025,2035,2018,2035,2051,2027,2005
2039,2028,2039,2029,2056,2068,2042,2003
2043,2042,2042,2034,2070,2083,2054,1993
2039,2040,2042,2032,2071,2087,2047,2000
2039,2038,2040,2037,2062,2069,2041,2002
2041,2037,2040,2035,2066,2040,2047,2013
2036,2032,2044,2032,2065,2030,2037,2010
2040,2029,2043,2034,2063,2032,2032,2018
2036,2036,2043,2031,2062,2042,2028,2021
2031,2032,2044,2032,2066,2053,2026,2027
2038,2028,2041,2031,2067,2052,2021,2027
2039,2031,2041,2033,2060,2053,2027,2047
2041,2029,2041,2032,2069,2061,2036,2057
2047,2032,2042,2035,2062,2060,2033,2059
2046,2030,2040,2024,2062,2066,2040,2061
2038,2028,2039,2023,2060,2059,2023,2060
2039,2015,2038,2016,2044,2051,2025,2060
2046,2024,2033,2020,2049,2051,2038,2068
2047,2031,2040,2022,2048,2052,2036,2056
2040,2031,2036,2024,2048,2047,2036,2046
2034,2030,2029,2020,2037,2040,2057,2038
2041,2029,2026,2022,2045,2037,2056,2040
2039,2032,2032,2017,2044,2039,2044,2039
2040,2036,2033,2024,2049,2054,2054,2045
2048,2040,2044,2034,2048,2062,2064,2044
2055,2046,2046,2032,2055,2055,2063,2035
2056,2047,2051,2030,2057,2060,2060,2032
2056,2051,2052,2036,2057,2060,2049,2020
2055,2045,2057,2036,2052,2059,2044,2019
2055,2047,2064,2039,2040,2062,2051,2013
2056,2049,2060,2033,2047,2064,2042,2013
2052,2050,2057,2036,2049,2064,2038,2008
2048,2049,2052,2033,2042,2052,2034,2009
2050,2050,2050,2029,2047,2041,2024,2009
2052,2056,2057,2035,2062,2041,2024,2007
2046,2054,2060,2038,2060,2047,2038,2011
2052,2060,2056,2043,2071,2046,2022,2019
2059,2061,2057,2040,2084,2042,2034,2019
2059,2061,2063,2040,2111,2040,2056,2017
2060,2063,2057,2042,2110,2036,2066,2021
2057,2058,2060,2040,2094,2034,2058,2030
2058,2064,2064,2054,2085,2032,2069,2046
2060,2066,2060,2048,2078,2044,2077,2051
2062,2064,2058,2034,2055,2041,2077,2059
2063,2056,2054,2029,2021,2034,2073,2058
2060,2055,2047,2026,1991,2017,2056,2065
2050,2050,2045,2020,1994,2011,2052,2052
2050,2051,2047,2025,2029,2030,2059,2058
2053,2050,2047,2038,2070,2045,2054,2064
2051,2049,2050,2048,2069,2059,2062,2070
2056,2064,2054,2046,2072,2067,2062,2069
2063,2053,2048,2041,2056,2070,2062,2058
2060,2053,2048,2036,2047,2066,2045,2050
2059,2049,2043,2030,2041,2057,2044,2038
2057,2041,2039,2028,2042,2066,2055,2021
2048,2035,2034,2018,2052,2069,2059,2014
2039,2032,2036,2029,2065,2067,2049,2012
2034,2036,2038,2034,2061,2065,2055,2012
2033,2042,2039,2030,2064,2051,2060,2024
2041,2045,2037,2034,2051,2039,2054,2028
2043,2048,2038,2037,2044,2032,2061,2026
2048,2046,2041,2042,2066,2038,2048,2018
2050,2048,2042,2038,2073,2037,2035,2014
2050,2051,2051,2044,2067,2006,2026,1998
2044,2036,2041,2029,2050,1995,2022,2003
2043,2036,2037,2034,2063,2027,2049,2008
2047,2042,2046,2042,2064,2064,2053,2007
2046,2045,2044,2041,2068,2090,2028,2011
2045,2048,2047,2035,2059,2076,2031,2022
2049,2049,2045,2034,2048,2056,2049,2025
2052,2049,2047,2039,2029,2043,2057,2031
2054,2057,2055,2042,2036,2043,2055,2032
2053,2059,2049,2049,2047,2035,2046,2034
2056,2051,2047,2044,2036,2029,2047,2035
2055,2056,2050,2043,2028,2027,2047,2045
2055,2061,2051,2039,2028,2044,2065,2059
2051,2058,2052,2042,2036,2081,2070,2062
2049,2057,2053,2034,2034,2081,2056,2065
2054,2056,2053,2038,2035,2073,2040,2072
2058,2053,2047,2039,2054,2074,2026,2063
2046,2039,2037,2047,2089,2079,2001,2062
2042,2037,2040,2054,2092,2072,1996,2072
2046,2044,2044,2058,2097,2058,1977,2068
2051,2046,2051,2054,2088,2051,2013,2063
2049,2046,2045,2057,2088,2069,1989,2053
2046,2048,2041,2047,2079,2086,1993,2042
2046,2044,2036,2031,2071,2092,2016,2024
2035,2033,2038,2026,2072,2097,2011,2015
2038,2033,2036,2036,2070,2085,2045,2010
2041,2040,2038,2045,2074,2020,2035,2019
2043,2039,2043,2046,2066,1984,2050,2022
2039,2041,2041,2045,2071,2000,2033,2011
2037,2046,2039,2044,2078,2031,2039,2010
2043,2054,2045,2045,2076,2027,2053,2013
2047,2052,2042,2044,2066,2023,2060,2010
2046,2045,2043,2045,2068,2016,2041,2002
2040,2039,2035,2041,2057,2019,2015,2008
2036,2041,2037,2046,2072,2038,2053,2003
2043,2046,2049,2045,2068,2045,2053,2014
2045,2053,2041,2046,2080,2060,2074,2016
2045,2056,2045,2048,2082,2065,2067,2020
2044,2056,2045,2056,2075,2051,2071,2022
2046,2056,2045,2052,2064,2066,2067,2026
2051,2058,2051,2049,2068,2070,2069,2030
2048,2056,2053,2050,2062,2075,2075,2048
2056,2056,2045,2048,2051,2062,2072,2047
2052,2052,2045,2046,2053,2042,2054,2051
2036,2048,2043,2046,2050,2018,2057,2051
2033,2042,2038,2040,2041,2017,2075,2053
2033,2046,2038,2040,2039,2014,2070,2059
2035,2044,2044,2034,2044,2007,2052,2059
2040,2047,2040,2034,2040,2021,2040,2055
2024,2038,2034,2033,2040,2047,2036,2057
2029,2044,2042,2038,2030,2087,2065,2067
2039,2054,2048,2034,2016,2105,2066,2057
2045,2049,2042,2026,2003,2111,2046,2038
2038,2047,2037,2016,1992,2125,2033,2041
2043,2056,2042,2027,2011,2138,2053,2046
2047,2058,2046,2041,2066,2119,2068,2046
2056,2065,2053,2059,2135,2040,2067,2041
2056,2062,2053,2057,2149,1977,2061,2040
2045,2057,2045,2051,2145,2011,2051,2034
2048,2052,2045,2050,2139,2028,2051,2029
2043,2050,2042,2056,2125,2030,2029,2024
2034,2059,2041,2051,2106,2037,2026,2012
2044,2056,2043,2046,2075,2031,2030,2013
2041,2050,2045,2044,2016,2033,2018,2029
2039,2046,2040,2033,1933,2029,1996,2019
2033,2042,2040,2034,1986,2034,2027,2019
2041,2047,2036,2040,2024,2043,2042,2021
2048,2050,2042,2050,2024,2043,2051,2024
2049,2054,2040,2049,2032,2034,2045,2029
2053,2052,2051,2050,2042,2037,2041,2029
2054,2056,2047,2047,2047,2043,2038,2040
2053,2054,2049,2046,2047,2044,2050,2035
2052,2057,2051,2049,2058,2050,2050,2035
2053,2053,2052,2047,2059,2048,2052,2039
2057,2050,2048,2043,2039,2047,2051,2044
2049,2051,2048,2043,2040,2058,2045,2055
2047,2056,2046,2041,2056,2064,2048,2051
2046,2051,2047,2040,2080,2065,2055,2056
2040,2050,2046,2053,2090,2063,2051,2064
2045,2056,2051,2052,2095,2063,2047,2075
2043,2052,2045,2047,2081,2058,2045,2065
2043,2043,2036,2041,2074,2052,2040,2069
2048,2042,2038,2040,2073,2041,2036,2065
2053,2051,2047,2041,2059,2030,2040,2069
2049,2049,2042,2043,2054,2031,2024,2057
2044,2044,2045,2036,2051,2037,2033,2062
2043,2047,2045,2041,2043,2037,2034,2055
2049,2050,2043,2040,2047,2041,2037,2050
2052,2050,2046,2038,2043,2048,2042,2038
2049,2051,2045,2042,2039,2061,2037,2040
2051,2054,2047,2038,2002,2060,2033,2038
2046,2056,2047,2028,1976,2065,2041,2033
2051,2055,2048,2031,1973,2082,2052,2035
2047,2051,2042,2020,1955,2078,2061,2024
2038,2041,2034,2004,1944,2089,2064,2010
2045,2041,2043,2029,1977,2103,2084,2028
2055,2051,2059,2059,2061,2082,2077,2034
2057,2044,2041,2045,2064,2061,2057,2021
2047,2037,2042,2048,2081,2081,2071,2009
2053,2051,2053,2072,2089,2082,2041,2014
2053,2055,2053,2081,2132,2038,2015,2010
2042,2050,2047,2068,2167,1999,2004,2017
2036,2038,2042,2056,2130,2002,2027,2027
2039,2037,2043,2038,2058,1993,2031,2030
2047,2044,2051,2025,2066,2019,2050,2043
2052,2049,2049,2028,2054,2032,2052,2047
2053,2051,2052,2044,2085,2039,2058,2057
2054,2053,2057,2060,2119,2058,2083,2064
2047,2047,2052,2052,2104,2068,2070,2059
2041,2043,2044,2044,2079,2042,2041,2060
2038,2045,2039,2035,2048,2024,2029,2064
2032,2034,2039,2034,2035,2016,2014,2066
2043,2045,2042,2042,2051,1993,2017,2060
2036,2044,2046,2060,2089,1967,2016,2063
2038,2046,2048,2066,2082,2012,2036,2068
2040,2048,2048,2056,2003,2056,2042,2058
2042,2042,2047,2052,2014,2043,2047,2056
2044,2048,2042,2053,2034,2047,2049,2052
2043,2049,2045,2046,2028,2056,2063,2052
2042,2048,2043,2045,2025,2072,2056,2050
2047,2050,2049,2046,2030,2079,2060,2041
2055,2051,2047,2047,2023,2077,2053,2034
2054,2052,2053,2045,2032,2075,2057,2032
2059,2061,2050,2053,2042,2070,2059,2034
2062,2058,2056,2060,2053,2061,2039,2030
2054,2058,2055,2058,2065,2042,2034,2035
2056,2062,2057,2062,2086,2048,2033,2034
2061,2061,2053,2064,2094,2057,2022,2035
2056,2064,2055,2063,2097,2057,2030,2029
2049,2047,2044,2054,2085,2056,2048,2027
2052,2045,2043,2045,2059,2052,2060,2032
2051,2053,2046,2044,2056,2044,2053,2026
2048,2052,2048,2045,2047,2045,2034,2033
2051,2058,2053,2048,2051,2053,2045,2032
2051,2054,2050,2045,2052,2059,2042,2037
2048,2053,2049,2049,2054,2035,2051,2040
2054,2054,2053,2051,2064,2036,2076,2047
2052,2048,2047,2054,2071,2045,2081,2048
2052,2050,2041,2054,2060,2052,2081,2057
2051,2047,2051,2051,2057,2057,2073,2056
2051,2051,2049,2052,2060,2061,2069,2064
2047,2049,2042,2053,2059,2055,2062,2065
2036,2042,2042,2058,2047,2050,2049,2066
2034,2040,2038,2052,2052,2042,2028,2073
2036,2039,2039,2049,2055,2029,2031,2073
2034,2032,2031,2039,2038,2030,2039,2068
2039,2030,2031,2045,2042,2036,2037,2078
2045,2038,2036,2050,2050,2062,2032,2077
2049,2042,2030,2047,2049,2066,2036,2062
2043,2040,2032,2040,2039,2069,2028,2059
2053,2036,2033,2042,2038,2073,2016,2054
2050,2045,2039,2041,2042,2048,2012,2044
2040,2050,2037,2043,2034,2007,2019,2037
2045,2050,2044,2048,2041,2006,2026,2042
2051,2051,2046,2054,2040,2023,2032,2040
2055,2051,2049,2050,2048,2039,2050,2039
2051,2052,2051,2056,2052,2041,2048,2032
2055,2054,2042,2054,2052,2045,2047,2031
2055,2046,2038,2049,2052,2042,2050,2024
2052,2049,2041,2052,2050,2046,2052,2026
2054,2054,2042,2054,2052,2048,2040,2022
2055,2048,2036,2045,2045,2042,2040,2012
2047,2042,2035,2042,2044,2036,2040,2023
2049,2044,2040,2051,2053,2039,2040,2031
2056,2045,2035,2044,2053,2038,2051,2028
2058,2050,2035,2049,2052,2030,2034,2031
2050,2050,2035,2049,2054,2031,2048,2028
2052,2049,2039,2052,2056,2030,2051,2033
2050,2052,2045,2046,2043,2023,2061,2045
2048,2056,2040,2040,2019,2007,2028,2045
2048,2046,2037,2035,2004,1991,2025,2043
2038,2040,2033,2032,1991,1972,2010,2046
2024,2037,2030,2027,1990,1971,1997,2046
2029,2037,2033,2042,2014,1995,2012,2056
2043,2049,2045,2060,2056,2006,2008,2081
2044,2056,2050,2075,2086,2035,2043,2089
2047,2049,2053,2072,2104,2052,2046,2079
2044,2036,2038,2059,2086,2040,2028,2069
2032,2030,2037,2051,2054,2019,2025,2065
2037,2040,2044,2046,2051,2029,2056,2064
2041,2039,2040,2049,2061,2089,2052,2067
2043,2039,2037,2051,2056,2149,2029,2066
2044,2049,2046,2055,2062,2159,2058,2067
2050,2048,2045,2051,2062,2145,2075,2060
2050,2052,2049,2049,2059,2112,2065,2049
2044,2048,2047,2052,2068,2097,2037,2045
2041,2045,2044,2039,2051,2062,2049,2028
2042,2046,2044,2054,2054,2044,2047,2021
2043,2046,2049,2052,2071,2030,2046,2017
2048,2051,2059,2065,2082,2016,2044,2023
2053,2061,2062,2062,2074,1994,2035,2028
2060,2066,2065,2066,2076,1987,2045,2035
2061,2060,2058,2066,2075,1962,2056,2033
2056,2055,2056,2061,2064,1968,2043,2020
2050,2049,2052,2057,2054,1992,2035,2025
2048,2057,2058,2053,2035,2027,2036,2018
2044,2056,2051,2049,2016,2059,2049,2018
2038,2049,2052,2050,2028,2076,2070,2026
2042,2048,2054,2046,2032,2078,2040,2025
2046,2045,2054,2037,2034,2071,2034,2024
2045,2049,2054,2042,2037,2069,2060,2028
2041,2046,2054,2045,2032,2063,2050,2032
2040,2048,2058,2050,2023,2054,2050,2034
2042,2050,2060,2052,2017,2043,2046,2047
2045,2053,2056,2050,2020,2051,2041,2052
2048,2050,2062,2050,2020,2052,2045,2064
2052,2054,2064,2051,2017,2054,2057,2065
2044,2053,2057,2047,2028,2052,2054,2071
2044,2052,2060,2051,2041,2047,2054,2069
2040,2049,2052,2046,2034,2038,2054,2071
2034,2043,2050,2038,2044,2036,2041,2070
2043,2049,2054,2044,2050,2042,2050,2076
2046,2050,2051,2042,2054,2047,2053,2074
2046,2043,2050,2046,2041,2042,2046,2071
2046,2046,2052,2046,2036,2040,2052,2062
2038,2044,2049,2045,2033,2035,2058,2048
2042,2041,2048,2043,2029,2027,2044,2039
2042,2044,2054,2045,2036,2032,2032,2037
2042,2048,2056,2047,2036,2039,2061,2038
2051,2049,2050,2050,2035,2043,2048,2037
2052,2050,2053,2053,2033,2047,2048,2030
2045,2048,2054,2050,2039,2052,2032,2031
2048,2050,2059,2053,2044,2056,2022,2027
2048,2052,2062,2053,2052,2052,2032,2026
2045,2056,2057,2055,2040,2056,2047,2024
2043,2048,2049,2047,2036,2051,2042,2025
2032,2038,2044,2041,2039,2053,2035,2020
2034,2043,2047,2045,2059,2059,2045,2033
2040,2047,2052,2050,2071,2065,2029,2036
2043,2052,2046,2053,2064,2064,2046,2041
2042,2043,2045,2053,2056,2056,2043,2040
2045,2041,2037,2049,2051,2051,2060,2046
2049,2041,2042,2041,2047,2055,2057,2056
2050,2035,2035,2041,2054,2051,2059,2057
2048,2037,2039,2049,2047,2050,2058,2055
2047,2042,2037,2049,2051,2057,2053,2057
2043,2038,2040,2055,2048,2056,2045,2059
2042,2047,2044,2059,2061,2069,2051,2066
2046,2037,2045,2057,2061,2068,2060,2073
2035,2041,2037,2055,2053,2066,2032,2077
2038,2037,2038,2055,2052,2054,2049,2080
2039,2038,2038,2045,2043,2050,2031,2073
2025,2029,2036,2046,2037,2052,2040,2073
2024,2026,2039,2048,2036,2052,2056,2074
2028,2043,2048,2050,2042,2040,2060,2078
2028,2046,2049,2049,2032,2035,2030,2073
2029,2041,2036,2047,2030,2025,2038,2064
2028,2036,2037,2044,2045,2027,2051,2062
2035,2037,2042,2043,2047,2027,2042,2058
2045,2041,2043,2044,2050,2042,2057,2053
