CH1,CH2,CH3,CH4,CH5,CH6,CH7,CH8
2042,2045,2063,2043,2031,2042,2049,2089
2039,2036,2051,2034,2033,2035,2031,2082
2033,2030,2043,2031,2043,2035,2033,2078
2029,2028,2048,2040,2041,2038,2037,2088
2032,2034,2050,2037,2031,2036,2051,2083
2039,2038,2048,2031,2030,2032,2044,2074
2037,2036,2051,2043,2038,2032,2038,2071
2045,2040,2053,2060,2031,2023,2041,2069
2048,2051,2062,2051,2002,2020,2037,2054
2056,2056,2063,2052,1996,2011,2035,2056
2052,2058,2055,2045,1989,1993,2030,2044
2046,2052,2041,2034,1983,1999,2033,2036
2038,2047,2038,2044,2029,2024,2037,2031
2041,2045,2037,2056,2065,2051,2043,2036
2044,2043,2032,2054,2105,2071,2058,2030
2050,2046,2031,2049,2124,2086,2059,2029
2055,2043,2027,2041,2112,2084,2058,2026
2055,2050,2031,2035,2082,2067,2028,2014
2055,2054,2041,2034,2058,2062,2040,2018
2061,2058,2039,2028,2051,2062,2051,2024
2058,2055,2035,2029,2053,2055,2049,2023
2058,2047,2041,2040,2061,2052,2044,2027
2058,2054,2047,2049,2058,2056,2050,2018
2054,2055,2058,2050,2054,2057,2061,2028
2060,2049,2052,2053,2052,2059,2067,2043
2061,2054,2052,2051,2052,2053,2046,2046
2057,2051,2046,2051,2042,2047,2047,2049
2051,2045,2049,2049,2044,2045,2044,2058
2059,2044,2053,2057,2044,2038,2034,2062
2052,2051,2076,2063,2050,2048,2033,2063
2058,2056,2086,2060,2051,2052,2043,2061
2050,2047,2084,2066,2047,2057,2028,2063
2045,2046,2079,2062,2054,2058,2043,2073
2043,2044,2062,2064,2051,2052,2052,2076
2042,2040,2055,2051,2049,2049,2045,2079
2043,2047,2059,2054,2050,2053,2063,2087
2050,2055,2061,2063,2060,2047,2043,2080
2049,2050,2064,2066,2064,2048,2045,2081
2046,2043,2053,2058,2054,2046,2042,2063
2045,2031,2041,2048,2041,2046,2036,2064
2036,2034,2036,2047,2044,2046,2043,2050
2042,2038,2039,2056,2052,2053,2061,2053
2044,2041,2045,2069,2065,2054,2056,2039
2047,2038,2036,2078,2063,2051,2049,2038
2047,2036,2027,2078,2061,2049,2052,2037
2044,2040,2027,2075,2068,2046,2043,2038
2040,2035,2022,2077,2057,2045,2054,2028
2045,2034,2023,2066,2055,2040,2053,2024
2045,2041,2024,2059,2050,2039,2049,2022
2048,2033,2013,2045,2032,2032,2034,2018
2036,2011,1993,2021,2019,2027,2035,2015
2040,2009,2002,2028,2027,2032,2039,2021
2054,2030,2028,2041,2029,2033,2024,2026
2054,2042,2055,2046,2038,2042,2036,2024
2055,2064,2068,2043,2053,2061,2042,2027
2059,2057,2063,2041,2054,2058,2036,2033
2054,2048,2055,2033,2046,2050,2018,2031
2041,2041,2044,2024,2041,2041,2036,2040
2038,2038,2032,2003,2025,2040,2025,2046
2042,2059,2070,2023,2030,2049,2038,2051
2056,2084,2111,2056,2045,2056,2061,2064
2059,2092,2113,2066,2051,2059,2066,2077
2063,2078,2087,2060,2040,2059,2055,2072
2057,2067,2077,2058,2026,2051,2052,2082
2056,2066,2074,2073,2028,2047,2054,2083
2054,2057,2072,2070,2039,2047,2047,2072
2047,2048,2064,2061,2038,2048,2047,2077
2044,2043,2061,2053,2035,2043,2039,2082
2052,2050,2063,2045,2031,2038,2043,2080
2051,2054,2065,2046,2026,2036,2035,2085
2060,2061,2072,2054,2038,2038,2045,2074
2053,2069,2069,2059,2046,2044,2049,2064
2052,2069,2059,2060,2045,2046,2049,2053
2044,2066,2049,2045,2037,2046,2046,2045
2048,2055,2036,2040,2036,2045,2035,2043
2056,2056,2036,2039,2039,2042,2043,2036
2051,2055,2036,2045,2048,2043,2045,2035
2051,2054,2040,2043,2047,2048,2044,2027
2051,2058,2033,2037,2041,2046,2046,2027
2045,2054,2037,2034,2045,2053,2030,2024
2045,2052,2038,2032,2041,2051,2059,2030
2048,2057,2033,2024,2024,2044,2059,2025
2052,2054,2024,2017,2016,2026,2047,2021
2043,2045,2022,2018,2000,2022,2046,2021
2040,2042,2026,2028,2013,2029,2040,2015
2031,2038,2029,2034,2034,2050,2050,2012
2041,2047,2039,2059,2062,2069,2060,2026
2048,2056,2046,2073,2071,2073,2068,2037
2050,2052,2053,2065,2068,2075,2064,2042
2052,2049,2061,2068,2078,2079,2065,2044
2058,2051,2058,2065,2070,2073,2055,2040
2055,2050,2058,2057,2055,2066,2059,2050
2060,2051,2052,2060,2045,2055,2043,2058
2058,2040,2038,2045,2034,2052,2023,2063
2053,2034,2024,2039,2036,2050,2034,2070
2046,2036,2022,2047,2044,2064,2047,2072
2039,2049,2044,2055,2055,2075,2066,2076
2043,2045,2044,2057,2050,2071,2055,2076
2027,2026,2033,2046,2034,2060,2050,2067
2022,2020,2030,2048,2033,2051,2026,2075
2031,2034,2048,2053,2037,2057,2037,2078
2035,2035,2029,2046,2028,2045,2042,2074
2035,2030,2019,2044,2028,2038,2020,2072
2040,2027,2012,2048,2017,2022,2031,2066
2043,2027,2013,2053,2018,2028,2033,2055
2040,2042,2017,2059,2027,2037,2041,2043
2033,2039,2017,2060,2029,2040,2032,2036
2022,2026,2012,2060,2040,2038,2040,2024
2023,2019,2020,2065,2051,2047,2023,2021
2024,2026,2026,2071,2062,2057,2028,2018
2031,2027,2030,2065,2063,2048,2028,2020
2033,2040,2034,2061,2064,2049,2032,2022
2045,2052,2044,2058,2056,2049,2036,2029
2055,2051,2047,2046,2048,2050,2042,2028
2054,2056,2053,2034,2038,2039,2027,2020
2050,2059,2065,2043,2050,2047,2026,2018
2046,2058,2065,2060,2058,2058,2018,2019
2047,2050,2046,2048,2055,2053,2030,2025
2041,2041,2016,2052,2050,2047,2037,2023
2036,2040,2011,2068,2058,2061,2046,2021
2030,2054,2023,2088,2064,2065,2028,2024
2046,2069,2033,2088,2063,2062,2056,2028
2043,2063,2035,2076,2055,2059,2048,2035
2036,2050,2019,2048,2047,2051,2041,2040
2027,2038,2009,2037,2036,2040,2039,2041
2032,2044,2032,2035,2043,2047,2057,2057
2046,2054,2041,2037,2054,2053,2052,2079
2060,2051,2039,2032,2049,2055,2054,2082
2052,2049,2038,2037,2049,2053,2054,2074
2045,2046,2046,2038,2044,2044,2059,2071
2041,2055,2049,2037,2037,2039,2036,2064
2036,2046,2049,2028,2032,2039,2032,2071
2040,2050,2050,2023,2029,2039,2044,2087
2050,2053,2061,2037,2040,2043,2040,2081
2039,2059,2082,2038,2040,2040,2044,2082
2044,2063,2094,2031,2029,2038,2048,2084
2048,2071,2104,2030,2026,2039,2046,2077
2052,2079,2098,2034,2026,2042,2056,2069
2059,2084,2092,2044,2035,2050,2062,2065
2067,2082,2076,2045,2035,2051,2046,2055
2069,2075,2059,2041,2034,2049,2050,2048
2069,2070,2050,2037,2041,2045,2058,2047
2063,2061,2043,2040,2038,2043,2061,2043
2059,2053,2036,2035,2030,2042,2061,2029
2047,2052,2032,2038,2036,2044,2046,2024
2047,2057,2041,2047,2045,2049,2056,2020
2053,2065,2045,2049,2045,2047,2062,2015
2049,2054,2033,2032,2042,2042,2043,2018
2048,2047,2027,2035,2042,2044,2035,2011
2049,2061,2049,2044,2054,2052,2047,2013
2048,2065,2057,2052,2060,2049,2045,2011
2046,2070,2060,2058,2058,2053,2040,2007
2044,2062,2044,2052,2058,2046,2041,2011
2042,2054,2048,2053,2065,2050,2036,2021
2038,2048,2045,2057,2064,2053,2034,2032
2039,2046,2046,2066,2069,2058,2066,2040
2044,2056,2046,2072,2079,2064,2059,2041
2041,2053,2039,2075,2077,2073,2048,2047
2029,2049,2033,2070,2072,2078,2047,2050
2030,2037,2030,2073,2069,2080,2052,2059
2027,2044,2032,2074,2068,2071,2045,2056
2026,2040,2025,2076,2062,2046,2042,2064
2034,2039,2026,2086,2064,2022,2060,2077
2033,2038,2035,2096,2070,2023,2053,2069
2022,2021,2026,2082,2062,2033,2040,2063
2012,2018,2022,2085,2053,2035,2046,2062
2027,2030,2015,2072,2040,2036,2038,2072
2027,2030,2031,2063,2037,2031,2045,2072
2032,2040,2030,2036,2016,2037,2033,2063
2040,2042,2039,2017,1996,2049,2020,2055
2040,2037,2041,2011,1981,2046,2013,2051
2036,2038,2041,2016,1972,2048,2035,2041
2037,2043,2054,2036,1983,2037,2034,2044
2039,2046,2071,2061,2005,2009,2034,2040
2040,2048,2069,2070,2041,2001,2052,2043
2044,2055,2064,2066,2053,2011,2044,2036
2036,2054,2057,2053,2046,2022,2058,2032
2036,2058,2054,2045,2048,2045,2058,2028
2047,2068,2048,2041,2049,2055,2055,2021
2058,2065,2044,2030,2044,2049,2032,2029
2054,2062,2054,2028,2044,2046,2032,2020
2049,2065,2064,2027,2064,2051,2051,2026
2056,2071,2059,2025,2070,2053,2047,2018
2052,2066,2051,2018,2066,2050,2054,2022
2051,2062,2047,2014,2062,2051,2049,2027
2051,2064,2055,2020,2062,2055,2048,2032
2060,2076,2070,2035,2068,2055,2051,2043
2063,2073,2072,2058,2077,2053,2054,2039
2060,2064,2063,2058,2070,2056,2057,2046
2056,2065,2067,2055,2062,2055,2062,2053
2055,2067,2064,2042,2060,2051,2058,2054
2050,2059,2063,2047,2044,2037,2046,2065
2053,2064,2067,2051,2021,2024,2064,2071
2052,2064,2065,2054,2010,2012,2048,2079
2045,2059,2054,2051,2000,2002,2031,2072
2038,2044,2045,2045,2012,2017,2026,2072
2032,2041,2041,2056,2046,2033,2036,2087
2037,2044,2051,2069,2076,2049,2046,2090
2054,2059,2054,2075,2096,2062,2056,2090
2050,2057,2050,2071,2126,2072,2063,2079
2048,2052,2046,2060,2144,2072,2066,2072
2044,2057,2057,2062,2148,2069,2061,2066
2048,2072,2074,2056,2148,2072,2079,2054
2056,2072,2077,2057,2141,2068,2086,2049
2060,2063,2070,2046,2134,2066,2067,2042
2053,2060,2068,2040,2125,2057,2060,2037
2048,2054,2064,2036,2107,2048,2044,2031
2047,2054,2055,2041,2078,2050,2036,2025
2047,2052,2045,2035,2046,2054,2032,2031
2054,2050,2036,2026,1930,2050,2032,2024
2057,2040,2031,2005,1859,2040,2031,2017
2046,2041,2022,2004,1922,2041,2032,2010
2038,2030,2017,2024,1958,2046,2042,2019
2038,2028,2022,2046,2012,2045,2042,2023
2052,2038,2032,2068,2035,2041,2051,2019
2047,2032,2032,2071,2040,2034,2046,2012
2045,2026,2022,2058,2038,2039,2036,2014
2043,2030,2013,2058,2058,2049,2026,2019
2045,2028,2010,2056,2070,2047,2047,2030
2042,2029,2011,2054,2061,2045,2053,2027
2043,2029,2010,2049,2056,2051,2060,2038
2039,2034,2012,2044,2052,2054,2056,2040
2038,2031,2019,2042,2054,2045,2044,2047
2035,2038,2032,2036,2057,2042,2034,2061
2041,2043,2051,2040,2050,2044,2054,2064
2033,2046,2058,2044,2051,2041,2040,2067
2035,2049,2066,2027,2039,2044,2023,2081
2039,2052,2073,2021,2038,2037,2026,2080
2043,2044,2065,2008,2032,2037,2031,2084
2042,2050,2068,2008,2037,2041,2032,2094
2055,2062,2076,2008,2043,2044,2056,2090
2053,2059,2074,2013,2044,2047,2041,2085
2057,2065,2081,2021,2044,2046,2051,2077
2052,2064,2073,2032,2034,2051,2047,2077
2060,2068,2076,2033,2032,2050,2055,2072
2058,2064,2069,2036,2024,2046,2055,2061
2059,2060,2066,2034,2028,2045,2056,2047
2054,2061,2072,2035,2033,2046,2059,2037
2051,2056,2071,2035,2036,2045,2047,2032
2053,2058,2075,2045,2038,2046,2053,2034
2054,2058,2070,2044,2038,2042,2053,2027
2053,2053,2066,2033,2026,2040,2039,2017
2046,2051,2063,2037,2019,2034,2055,2019
2045,2052,2058,2028,2023,2023,2060,2019
2036,2038,2044,2030,2035,2027,2057,2021
2039,2040,2046,2024,2059,2040,2066,2014
2048,2055,2049,2041,2073,2051,2064,2016
2037,2056,2056,2054,2080,2053,2070,2025
2043,2068,2068,2058,2079,2057,2076,2027
2047,2073,2071,2053,2072,2054,2075,2039
2052,2063,2060,2047,2062,2051,2074,2038
2045,2060,2054,2048,2066,2050,2077,2037
2038,2048,2057,2050,2064,2056,2073,2041
2043,2044,2060,2059,2064,2061,2077,2041
2038,2046,2056,2068,2062,2060,2069,2050
2032,2044,2054,2070,2061,2056,2076,2062
2037,2039,2054,2075,2056,2057,2069,2072
2043,2038,2056,2079,2057,2062,2068,2080
2037,2037,2040,2074,2058,2064,2065,2081
2041,2038,2031,2072,2058,2065,2054,2080
2039,2040,2020,2061,2050,2060,2048,2085
2047,2043,2010,2053,2054,2066,2072,2100
2053,2050,2015,2056,2058,2072,2079,2098
2057,2055,2023,2068,2063,2084,2074,2088
2058,2055,2030,2077,2066,2088,2076,2059
2047,2044,2025,2072,2058,2081,2056,2057
2045,2043,2034,2066,2050,2079,2054,2050
2049,2047,2043,2068,2044,2047,2070,2042
2043,2049,2040,2063,2047,2012,2043,2047
2037,2048,2042,2051,2041,2016,2044,2040
2047,2040,2033,2034,2028,2020,2023,2031
2036,2033,2023,2020,2018,2018,2029,2027
2033,2031,2028,2015,2019,2030,2021,2028
2044,2040,2057,2009,2024,2031,2027,2022
2044,2050,2073,2017,2034,2031,2042,2017
2035,2048,2062,2019,2033,2029,2033,2013
2027,2029,2028,2010,2026,2028,2033,2014
2017,2028,2020,2005,2029,2030,2026,2011
2033,2036,2030,2012,2030,2035,2045,2018
2037,2035,2037,2014,2031,2038,2049,2015
2045,2050,2052,2027,2042,2044,2047,2025
2049,2060,2054,2032,2044,2045,2059,2027
2050,2061,2048,2036,2050,2046,2059,2040
2047,2058,2048,2038,2046,2049,2049,2046
2042,2050,2044,2038,2043,2042,2037,2053
2042,2046,2048,2036,2036,2047,2059,2060
2049,2045,2045,2032,2037,2052,2066,2070
2051,2044,2043,2039,2033,2052,2040,2076
2054,2044,2052,2037,2031,2055,2060,2089
2051,2048,2053,2048,2033,2054,2056,2096
2051,2053,2050,2049,2036,2054,2047,2096
2052,2055,2058,2050,2041,2051,2040,2087
2047,2052,2052,2050,2043,2049,2053,2084
2044,2049,2053,2056,2056,2053,2056,2088
2051,2050,2052,2058,2055,2055,2066,2093
2050,2044,2049,2058,2062,2053,2077,2092
2047,2041,2039,2051,2069,2046,2053,2078
2038,2038,2042,2053,2076,2044,2057,2075
2042,2040,2048,2061,2066,2056,2049,2070
2045,2058,2055,2064,2060,2051,2036,2054
2044,2062,2058,2065,2062,2050,2044,2044
2052,2060,2057,2064,2057,2058,2037,2044
2055,2056,2050,2059,2057,2064,2068,2046
2056,2056,2053,2052,2067,2072,2074,2047
2065,2051,2049,2054,2051,2068,2068,2043
2066,2052,2047,2037,2053,2070,2064,2039
2057,2049,2044,2024,2052,2072,2045,2033
2056,2042,2033,2007,2039,2075,2046,2020
2037,2033,2023,2013,2043,2070,2048,2007
2028,2031,2021,2030,2041,2071,2062,2006
2033,2037,2029,2042,2055,2070,2058,2015
2038,2040,2021,2042,2052,2052,2038,2019
2036,2034,2010,2041,2055,2048,2043,2018
2040,2030,2000,2043,2058,2056,2047,2022
2042,2041,2008,2052,2075,2061,2059,2025
2039,2038,2002,2051,2065,2040,2042,2024
2038,2035,1999,2045,2059,2028,2043,2031
2046,2050,2004,2054,2056,2019,2039,2044
2056,2055,2005,2054,2057,2016,2027,2053
2055,2050,2002,2043,2051,2009,2037,2056
2052,2046,1997,2039,2045,2016,2045,2069
2052,2037,2005,2038,2034,2020,2038,2086
2060,2038,2013,2039,2022,2028,2043,2087
2050,2029,2011,2034,2019,2021,2037,2084
2037,2018,2007,2028,2016,2016,2033,2076
2034,2030,2033,2043,2027,2023,2031,2077
2041,2054,2077,2076,2051,2033,2041,2072
2045,2057,2097,2090,2065,2042,2056,2083
2041,2052,2112,2104,2069,2041,2058,2072
2043,2050,2107,2106,2066,2043,2062,2066
2042,2047,2097,2104,2062,2050,2042,2061
2042,2043,2082,2085,2044,2052,2045,2044
2042,2040,2075,2048,2034,2052,2008,2024
2033,2045,2066,2013,2016,2048,2005,2021
2037,2049,2074,2011,2020,2015,2028,2029
2041,2058,2094,2033,2032,2011,2034,2025
2053,2064,2097,2041,2030,2017,2034,2028
2053,2068,2076,2027,2033,2024,2035,2030
2049,2061,2069,2027,2042,2030,2019,2028
2050,2058,2066,2031,2038,2036,2026,2016
2043,2042,2061,2031,2011,2035,2012,1998
2024,2027,2048,2024,1992,2030,2023,1994
2030,2036,2049,2020,1993,2047,2038,2008
2047,2051,2059,2030,1985,2045,2046,2009
2050,2060,2068,2033,2007,2020,2039,2018
2055,2063,2072,2038,2041,2011,2042,2029
2061,2064,2072,2052,2076,2019,2056,2037
2069,2061,2069,2054,2076,2026,2046,2038
2056,2056,2070,2058,2058,2017,2052,2042
2054,2052,2068,2064,2025,2008,2047,2041
2043,2044,2053,2047,1994,1996,2042,2042
2046,2038,2049,2046,1989,1998,2027,2046
2037,2035,2054,2050,2018,2021,2035,2047
2037,2045,2052,2064,2025,2037,2025,2058
2042,2049,2047,2098,2031,2062,2035,2068
2052,2057,2058,2139,2066,2083,2013,2080
2063,2067,2063,2158,2088,2074,2035,2087
2059,2064,2057,2161,2101,2049,2058,2093
2062,2066,2057,2155,2100,2048,2064,2084
2055,2062,2049,2139,2078,2044,2042,2082
2047,2054,2037,2114,2061,2047,2058,2073
2045,2040,2031,2088,2054,2031,2048,2059
2039,2034,2033,2078,2073,2031,2043,2056
2036,2024,2040,2060,2112,2034,2047,2057
2044,2027,2033,2033,2133,2042,2055,2054
2046,2036,2045,2026,2138,2048,2051,2039
2045,2035,2062,2021,2145,2050,2058,2029
2035,2041,2073,2027,2154,2050,2046,2029
2038,2034,2072,2019,2149,2054,2060,2032
2048,2037,2057,2016,2136,2054,2051,2037
2049,2033,2049,2018,2115,2054,2054,2026
2058,2032,2045,2036,2079,2046,2060,2019
2052,2031,2046,2051,2016,2028,2036,2005
2039,2025,2036,2046,1951,2022,2031,2006
2036,2023,2037,2053,1988,2034,2043,2006
2050,2038,2050,2084,2040,2050,2037,2007
2048,2038,2046,2077,2039,2046,2051,2012
2043,2031,2035,2069,1999,2031,2035,2009
2045,2031,2026,2066,1973,2016,2018,2011
2045,2034,2025,2063,1988,2017,2031,2021
2053,2038,2016,2059,1994,2019,2026,2028
2051,2029,2010,2046,2005,2024,2031,2025
2043,2027,2012,2051,2022,2040,2049,2034
2045,2034,2025,2050,2046,2059,2031,2044
2045,2035,2017,2022,2041,2052,2023,2054
2042,2037,2015,2007,2042,2047,2031,2063
2043,2029,2016,2005,2043,2040,2019,2073
2055,2042,2043,2010,2046,2038,2033,2085
2070,2063,2058,2013,2052,2045,2042,2096
2063,2060,2055,2012,2033,2033,2029,2084
2046,2050,2058,2016,2040,2032,2040,2084
2034,2043,2066,2024,2040,2038,2041,2094
2047,2045,2053,2021,2041,2041,2033,2081
2057,2046,2043,2016,2038,2048,2057,2073
2063,2056,2051,2030,2040,2044,2052,2074
2054,2056,2049,2044,2060,2053,2029,2068
2048,2049,2042,2042,2074,2051,2034,2054
2041,2042,2039,2018,2072,2056,2034,2034
2035,2040,2038,2013,2054,2059,2016,2033
2044,2038,2043,2019,2032,2060,2048,2034
2056,2045,2050,2017,2025,2050,2050,2024
2048,2038,2045,2006,2020,2048,2038,2023
2041,2046,2056,2015,2025,2047,2039,2020
2052,2061,2074,2026,2028,2055,2050,2018
2067,2078,2078,2038,2035,2058,2051,2025
2071,2071,2073,2043,2041,2047,2059,2028
2066,2063,2066,2034,2031,2035,2073,2025
2068,2062,2058,2039,2038,2035,2058,2024
2070,2068,2067,2043,2052,2041,2071,2027
2064,2065,2063,2047,2048,2042,2067,2024
2056,2069,2068,2052,2037,2048,2066,2030
2064,2067,2072,2049,2028,2048,2074,2031
2059,2067,2069,2049,2032,2047,2057,2034
2059,2069,2066,2050,2045,2048,2052,2036
2062,2062,2062,2056,2056,2051,2060,2049
2068,2058,2062,2057,2055,2054,2056,2049
2064,2061,2061,2054,2051,2055,2068,2059
2060,2056,2061,2054,2052,2054,2072,2072
2056,2058,2054,2048,2041,2048,2072,2073
2051,2051,2052,2044,2049,2047,2069,2077
2053,2050,2058,2048,2048,2043,2062,2081
2050,2050,2054,2053,2053,2047,2067,2080
2050,2045,2050,2052,2068,2046,2062,2085
2049,2041,2044,2057,2073,2046,2036,2082
2051,2043,2043,2056,2078,2044,2031,2080
2053,2044,2043,2051,2060,2045,2034,2078
2053,2046,2047,2056,2052,2048,2039,2077
2052,2047,2046,2059,2046,2051,2056,2073
2052,2050,2048,2047,2044,2043,2043,2063
2052,2047,2040,2047,2037,2045,2048,2059
2054,2052,2042,2052,2042,2049,2044,2043
2053,2054,2044,2057,2050,2054,2041,2036
2049,2049,2042,2058,2055,2055,2055,2027
2046,2042,2032,2064,2062,2059,2046,2033
2054,2041,2034,2058,2064,2050,2040,2028
2047,2040,2031,2058,2050,2038,2042,2024
2055,2042,2030,2059,2051,2040,2040,2024
2057,2038,2031,2064,2047,2045,2040,2021
2058,2040,2034,2064,2046,2042,2043,2006
2054,2034,2037,2074,2056,2039,2032,1999
2038,2034,2037,2074,2059,2048,2021,2008
2050,2029,2040,2068,2058,2051,2037,2003
2047,2025,2030,2062,2063,2053,2041,2015
2040,2019,2034,2066,2057,2052,2026,2016
2040,2026,2045,2066,2054,2046,2045,2020
2049,2041,2054,2074,2062,2048,2045,2029
2064,2057,2066,2079,2056,2045,2037,2036
2062,2065,2068,2070,2058,2041,2045,2040
2058,2059,2062,2070,2066,2048,2030,2051
2063,2046,2056,2065,2056,2043,2043,2058
2051,2045,2057,2059,2053,2042,2053,2059
2054,2042,2050,2047,2046,2039,2046,2063
2048,2038,2043,2041,2048,2047,2051,2074
2042,2038,2034,2029,2052,2050,2063,2080
2045,2033,2026,2019,2043,2047,2062,2084
2037,2026,2017,2016,2038,2046,2059,2091
2042,2032,2033,2021,2044,2048,2065,2094
2053,2048,2047,2040,2045,2053,2070,2089
2060,2054,2057,2046,2028,2048,2060,2087
2059,2055,2065,2050,2034,2056,2056,2084
2059,2052,2064,2053,2024,2049,2049,2069
2053,2053,2059,2050,2021,2048,2039,2053
2051,2048,2059,2051,2018,2042,2040,2034
2043,2048,2051,2049,2034,2052,2035,2033
2047,2047,2048,2052,2047,2057,2040,2030
2053,2050,2049,2057,2050,2046,2036,2039
2059,2048,2050,2056,2045,2045,2045,2041
2064,2048,2052,2061,2048,2046,2044,2040
2061,2047,2051,2057,2053,2056,2031,2018
2058,2043,2041,2050,2051,2061,2057,2019
2052,2036,2035,2044,2051,2056,2054,2002
2043,2022,2025,2041,2034,2059,2034,2000
2041,2024,2028,2037,2027,2067,2041,2002
2047,2038,2033,2038,2031,2066,2049,2007
2043,2043,2038,2040,2031,2068,2046,2007
2044,2048,2041,2040,2044,2065,2039,2021
2051,2050,2048,2052,2055,2038,2047,2030
2055,2051,2049,2066,2073,2041,2072,2030
2042,2040,2045,2065,2085,2051,2060,2027
2050,2041,2038,2055,2072,2074,2050,2040
2049,2041,2038,2057,2060,2083,2054,2045
2058,2045,2055,2061,2059,2088,2032,2053
2061,2050,2062,2071,2059,2091,2040,2052
2052,2045,2064,2076,2056,2072,2047,2060
2049,2039,2062,2081,2081,2036,2046,2063
2044,2040,2063,2086,2090,2031,2040,2070
2037,2039,2059,2082,2081,2038,2062,2075
2034,2042,2059,2068,2058,2031,2041,2078
2038,2032,2048,2057,2047,2037,2048,2078
2038,2037,2045,2059,2060,2054,2037,2078
2053,2045,2048,2060,2058,2046,2049,2078
2060,2048,2041,2056,2040,2032,2026,2073
2056,2047,2044,2046,2033,2027,2025,2060
2050,2046,2042,2044,2027,2041,2043,2058
2047,2041,2030,2024,2006,2050,2029,2041
2042,2033,2023,2009,1976,2036,2026,2031
2035,2034,2014,1998,1944,2021,2026,2028
2039,2037,2021,1988,1926,2005,2030,2026
2039,2040,2018,1993,1933,1988,2036,2029
2038,2032,2013,2006,1976,1991,2033,2022
2044,2040,2018,2029,2034,2038,2070,2027
2062,2053,2028,2059,2084,2077,2077,2025
2064,2053,2041,2065,2118,2102,2086,2023
2067,2046,2038,2074,2115,2119,2080,2013
2051,2036,2030,2070,2104,2107,2071,2008
2045,2032,2022,2077,2080,2095,2056,2009
2047,2031,2027,2083,2084,2081,2062,2010
2044,2032,2027,2083,2085,2081,2062,2016
2050,2040,2036,2091,2088,2074,2061,2024
2049,2048,2040,2085,2062,2069,2044,2015
2049,2044,2038,2088,2072,2061,2036,2017
2045,2042,2039,2091,2092,2059,2043,2019
2037,2040,2042,2098,2091,2065,2031,2023
2043,2048,2041,2107,2091,2066,2039,2037
2051,2051,2055,2106,2070,2055,2024,2036
2051,2038,2048,2088,2030,2042,2035,2040
2046,2036,2043,2072,2005,2056,2054,2055
2043,2032,2030,2049,1979,2053,2033,2069
2037,2029,2027,2015,2008,2042,2046,2061
2020,2026,2022,1995,1972,2016,2033,2063
2019,2028,2041,1993,1974,2008,2029,2061
2032,2034,2066,2027,2030,2026,2033,2068
2041,2037,2087,2041,2046,2036,2049,2080
2055,2045,2091,2044,2049,2037,2048,2088
2062,2062,2093,2057,2046,2041,2049,2081
2068,2068,2081,2060,2052,2062,2039,2077
2066,2078,2096,2068,2120,2087,2059,2071
2061,2080,2095,2078,2168,2100,2048,2060
2059,2073,2091,2070,2166,2097,2050,2056
2058,2067,2086,2069,2153,2096,2048,2046
2056,2058,2074,2066,2144,2102,2053,2042
2062,2066,2071,2077,2134,2102,2034,2041
2070,2072,2072,2068,2110,2092,2035,2046
2065,2067,2055,2051,2089,2082,2042,2040
2063,2059,2052,2044,2073,2043,2037,2029
2069,2061,2057,2037,2040,1990,2045,2027
2052,2054,2047,2011,1950,1987,2012,2012
2044,2049,2038,1995,1916,2008,2011,2016
2043,2050,2040,2009,1966,2044,2039,2016
2052,2060,2052,2032,1997,2066,2037,2031
2047,2060,2059,2040,2006,2053,2031,2024
2054,2048,2046,2037,2023,2039,2025,2024
2050,2051,2049,2034,2035,2038,2052,2031
2044,2051,2046,2027,2024,2055,2021,2033
2047,2045,2043,2029,2019,2081,2030,2040
2049,2047,2053,2029,2014,2086,2034,2034
2046,2054,2054,2034,2016,2088,2051,2036
2036,2053,2053,2038,2011,2077,2054,2044
2043,2047,2051,2040,2036,2036,2049,2061
2048,2052,2053,2057,2064,1999,2049,2076
2047,2052,2056,2051,2068,2018,2049,2078
2043,2050,2054,2057,2057,2040,2043,2078
2049,2053,2052,2061,2067,2066,2053,2086
2049,2041,2044,2054,2082,2069,2049,2075
2032,2024,2029,2040,2081,2067,2031,2065
2021,2022,2028,2045,2081,2071,2041,2068
2022,2019,2031,2046,2073,2077,2051,2066
2020,2028,2032,2041,2052,2077,2051,2064
2030,2032,2042,2044,2037,2063,2050,2060
2038,2037,2040,2039,2027,2053,2041,2055
2043,2039,2036,2050,2031,2054,2043,2059
2046,2044,2039,2050,2042,2049,2033,2053
2051,2047,2040,2053,2044,2051,2049,2037
2044,2046,2039,2060,2064,2062,2064,2036
2039,2055,2040,2067,2081,2063,2066,2028
2036,2049,2041,2068,2083,2064,2056,2027
2036,2047,2033,2063,2079,2062,2052,2023
2038,2053,2032,2069,2095,2063,2042,2022
2036,2055,2045,2077,2077,2066,2036,2017
2042,2056,2044,2076,2080,2062,2046,2012
2035,2049,2040,2073,2084,2054,2049,2009
2034,2048,2037,2049,2035,2049,2047,2008
2039,2057,2034,2024,1968,2031,2044,2008
2037,2051,2035,2015,1979,2033,2058,2013
2041,2047,2036,2028,2019,2046,2051,2021
2036,2046,2036,2048,2062,2070,2058,2021
2042,2053,2048,2064,2085,2084,2061,2029
2049,2059,2058,2062,2059,2075,2061,2039
2045,2058,2048,2034,1982,2041,2052,2047
2047,2059,2050,2027,1983,2035,2050,2054
2054,2058,2055,2033,1984,2042,2052,2058
2054,2058,2055,2034,1961,2050,2049,2049
2052,2054,2051,2029,1934,2047,2030,2060
2045,2042,2048,2023,1926,2044,2024,2062
2044,2044,2049,2025,1946,2043,2037,2065
2041,2043,2054,2033,1957,2039,2045,2071
2043,2047,2046,2042,1982,2008,2022,2084
2049,2048,2045,2059,2044,2008,2019,2085
2055,2060,2053,2073,2120,2046,2067,2091
2059,2060,2060,2077,2162,2068,2074,2082
2062,2058,2059,2078,2169,2076,2053,2082
2059,2054,2050,2076,2163,2076,2060,2073
2058,2057,2050,2071,2142,2062,2056,2065
2049,2058,2049,2071,2118,2051,2048,2063
2050,2058,2052,2062,2096,2043,2042,2055
2056,2059,2052,2050,2042,2041,2040,2040
2054,2057,2049,2046,2054,2059,2041,2028
2044,2045,2045,2048,2048,2041,2041,2023
2029,2036,2032,2046,2033,2034,2042,2024
2038,2037,2039,2048,2032,2043,2050,2023
2038,2037,2037,2041,2019,2052,2052,2021
2044,2040,2038,2027,1988,2040,2048,2015
2034,2042,2031,2017,2001,2030,2027,2008
2025,2037,2037,2023,2040,2041,2036,2002
2024,2037,2040,2035,2042,2057,2050,2007
2034,2050,2049,2044,2042,2060,2065,2008
2035,2052,2052,2048,2048,2058,2053,2009
2040,2051,2047,2047,2061,2050,2036,2014
2037,2050,2044,2047,2066,2056,2051,2017
2041,2050,2052,2052,2075,2059,2043,2013
2039,2043,2044,2055,2074,2052,2042,2033
2037,2052,2050,2052,2077,2059,2048,2044
2044,2057,2056,2057,2076,2059,2064,2055
2050,2058,2055,2055,2071,2061,2083,2065
2049,2058,2052,2051,2065,2063,2080,2069
2046,2055,2054,2053,2066,2055,2071,2079
2049,2047,2042,2048,2047,2056,2067,2081
2042,2046,2043,2042,2038,2047,2067,2088
2051,2051,2052,2043,2030,2043,2062,2091
2052,2045,2046,2044,2024,2045,2060,2089
2044,2037,2042,2043,2023,2046,2068,2077
2041,2041,2036,2035,1988,2017,2057,2071
2032,2035,2032,2027,1956,1991,2035,2076
2042,2042,2038,2020,1948,1977,2021,2064
2038,2042,2034,2013,1943,1971,2010,2054
2048,2032,2033,2014,1973,1989,2032,2047
2050,2034,2034,2023,2019,2033,2032,2040
2047,2040,2049,2058,2110,2106,2064,2050
2062,2054,2070,2090,2175,2148,2085,2059
2063,2063,2075,2093,2178,2144,2072,2042
2057,2056,2060,2079,2140,2117,2050,2025
2045,2052,2054,2061,2099,2091,2052,2015
2046,2045,2048,2054,2079,2071,2044,2017
2044,2041,2047,2055,2109,2076,2038,2011
2044,2042,2050,2056,2135,2073,2026,2014
2049,2049,2047,2058,2143,2045,2042,2014
2047,2036,2046,2054,2135,2029,2039,2015
2043,2036,2040,2058,2138,2037,2039,2017
2044,2049,2053,2060,2131,2047,2046,2019
2044,2041,2055,2057,2120,2056,2055,2017
2050,2046,2055,2053,2102,2060,2045,2020
2048,2052,2056,2057,2079,2064,2051,2024
2048,2054,2056,2055,2019,2084,2053,2023
2051,2051,2052,2035,1910,2085,2032,2016
2044,2043,2042,2027,1898,2073,2023,2022
2037,2043,2041,2029,1936,2092,2030,2032
2047,2056,2050,2033,1961,2076,2048,2046
2046,2053,2054,2049,2004,2017,2064,2064
2056,2060,2059,2061,2063,2018,2068,2077
2049,2053,2057,2071,2088,2042,2068,2084
2052,2051,2064,2064,2096,2058,2048,2090
2046,2052,2062,2064,2099,2058,2050,2092
2047,2047,2055,2064,2092,2060,2029,2093
2048,2045,2052,2064,2087,2060,2036,2097
2059,2052,2055,2068,2084,2064,2051,2100
2052,2056,2055,2067,2086,2049,2057,2091
2049,2051,2056,2063,2068,2027,2029,2088
2046,2053,2056,2057,2055,2002,2024,2067
2043,2048,2052,2054,2057,2009,2020,2057
2042,2051,2048,2057,2064,2016,2018,2045
2044,2046,2048,2053,2056,2020,1997,2043
2044,2046,2045,2048,2042,2022,2006,2031
2044,2046,2046,2038,2029,2026,2006,2024
2045,2055,2045,2044,2008,2008,2018,2027
2043,2053,2046,2047,2003,2010,2020,2027
2039,2057,2049,2049,2018,2037,2027,2018
2041,2051,2047,2051,2026,2058,2033,2020
2046,2045,2051,2053,2028,2068,2038,2023
2046,2042,2046,2044,2031,2048,2017,2011
2035,2038,2036,2040,2026,2031,2033,2012
2031,2036,2035,2037,2029,2030,2038,2009
2037,2037,2033,2033,2031,2036,2036,2004
2041,2033,2033,2037,2045,2030,2033,2006
2036,2042,2039,2050,2051,2048,2055,2016
2040,2047,2045,2056,2066,2046,2061,2023
2046,2054,2051,2056,2079,2045,2065,2034
2050,2053,2051,2061,2081,2050,2060,2036
2047,2054,2055,2060,2072,2060,2057,2044
2044,2047,2051,2060,2063,2064,2067,2049
2046,2040,2042,2054,2061,2061,2068,2054
2041,2040,2040,2049,2055,2059,2070,2060
2046,2035,2040,2048,2058,2050,2075,2062
2038,2031,2036,2047,2059,2047,2073,2067
2030,2025,2037,2047,2058,2052,2070,2071
2036,2018,2041,2050,2063,2046,2068,2072
2030,2013,2034,2041,2058,2039,2057,2066
2034,2014,2039,2046,2058,2039,2068,2071
2038,2033,2045,2054,2054,2047,2065,2069
2043,2040,2038,2049,2053,2045,2061,2075
2039,2029,2035,2045,2054,2049,2073,2062
2036,2030,2033,2040,2060,2047,2075,2065
2047,2040,2043,2049,2055,2044,2082,2065
2049,2051,2049,2044,2055,2047,2079,2062
2052,2050,2049,2044,2052,2049,2077,2060
2053,2050,2045,2038,2041,2040,2069,2043
2046,2048,2041,2033,2043,2035,2062,2036
2058,2048,2052,2044,2049,2032,2043,2035
2056,2048,2050,2046,2052,2040,2045,2030
2054,2040,2049,2040,2040,2025,2064,2025
2061,2046,2048,2040,2044,2027,2067,2025
2066,2050,2055,2037,2030,2012,2048,2016
2064,2056,2048,2036,2018,1995,2037,2010
2046,2040,2042,2033,2025,1998,2022,2004
2031,2037,2042,2036,2050,2014,2042,1998
2033,2049,2056,2047,2060,2021,2025,2002
2040,2053,2051,2047,2061,2024,2026,2007
2048,2046,2054,2050,2064,2011,2035,2018
2045,2049,2055,2055,2061,2019,2046,2020
2044,2057,2060,2052,2050,2038,2061,2036
2039,2060,2058,2049,2057,2076,2068,2041
2043,2062,2060,2048,2062,2094,2067,2046
2041,2062,2054,2047,2066,2093,2075,2048
2042,2061,2052,2046,2067,2087,2071,2054
2046,2056,2056,2043,2071,2081,2072,2063
2041,2054,2054,2047,2068,2083,2054,2067
2055,2053,2052,2049,2057,2078,2058,2073
2046,2057,2056,2047,2041,2078,2068,2085
2045,2059,2060,2048,2044,2080,2059,2091
2045,2052,2053,2041,2045,2086,2052,2092
2039,2046,2043,2041,2027,2043,2045,2088
2039,2048,2047,2040,2026,2020,2057,2092
2046,2054,2053,2041,2032,2029,2060,2083
2043,2054,2044,2034,2025,2051,2056,2080
2045,2050,2040,2035,2025,2068,2061,2071
2040,2046,2041,2038,2049,2078,2067,2069
2041,2043,2036,2045,2085,2069,2059,2062
2049,2043,2037,2046,2073,2056,2058,2057
2045,2036,2029,2043,2064,2075,2067,2046
2046,2036,2024,2039,2059,2080,2080,2040
2045,2035,2027,2041,2063,2084,2078,2041
2047,2036,2029,2038,2054,2074,2060,2033
2045,2034,2025,2036,2052,2056,2062,2029
2043,2037,2031,2032,2055,2060,2064,2013
2036,2040,2036,2042,2046,2056,2058,2010
2036,2038,2039,2038,2042,2049,2057,2005
2023,2026,2026,2034,2035,2036,2046,1998
2011,2020,2026,2032,2035,2036,2039,1993
2024,2028,2028,2041,2043,2045,2060,2002
2034,2032,2032,2037,2046,2033,2053,2009
2033,2035,2037,2038,2049,2035,2047,2011
2041,2040,2045,2051,2052,2034,2046,2024
2047,2053,2043,2054,2062,2034,2056,2033
2055,2052,2047,2060,2054,2047,2069,2040
2056,2052,2047,2055,2058,2060,2068,2056
2058,2046,2042,2052,2054,2047,2062,2054
2051,2047,2041,2052,2058,2038,2058,2047
2049,2043,2043,2049,2059,2036,2062,2059
2044,2046,2042,2048,2068,2040,2072,2065
2045,2046,2048,2051,2063,2036,2060,2064
2051,2052,2056,2052,2055,2032,2058,2070
2049,2048,2057,2048,2046,2027,2057,2064
2041,2042,2047,2039,2044,2023,2046,2067
2034,2029,2036,2034,2038,2034,2045,2072
2047,2029,2045,2039,2038,2049,2056,2086
2059,2046,2051,2047,2038,2053,2064,2085
2058,2053,2057,2048,2047,2059,2061,2086
2061,2058,2070,2054,2047,2061,2062,2075
2061,2060,2066,2057,2051,2066,2072,2055
2040,2056,2059,2055,2039,2052,2064,2032
2033,2056,2053,2055,2040,2044,2046,2028
2028,2049,2052,2045,2041,2032,2044,2031
2034,2044,2045,2039,2030,2030,2033,2033
2040,2052,2049,2042,2041,2037,2037,2036
2054,2067,2059,2049,2051,2056,2051,2045
2062,2071,2062,2050,2062,2067,2063,2038
2053,2065,2060,2051,2058,2091,2046,2033
2050,2062,2061,2051,2042,2111,2054,2019
2041,2055,2055,2042,2030,2131,2050,2011
2033,2037,2044,2034,1992,2129,2041,2014
2032,2036,2039,2033,2008,2112,2049,2019
2044,2041,2052,2042,2030,2043,2048,2015
2044,2041,2052,2043,2034,1964,2040,2022
2043,2050,2059,2054,2034,1988,2042,2025
2047,2057,2053,2057,2048,2026,2033,2018
2045,2052,2056,2056,2037,2041,2047,2021
2043,2051,2058,2048,2027,2034,2047,2028
2039,2052,2060,2052,2020,2035,2044,2033
2043,2056,2060,2053,2015,2023,2046,2038
2042,2049,2059,2041,2011,2012,2045,2041
2036,2044,2056,2039,2055,2038,2064,2047
2044,2050,2048,2049,2069,2059,2069,2059
2044,2047,2044,2050,2069,2077,2065,2072
2038,2042,2041,2042,2074,2096,2067,2081
2042,2036,2033,2033,2070,2093,2082,2085
2037,2031,2024,2027,2063,2078,2070,2071
2030,2033,2033,2030,2063,2070,2073,2069
2032,2055,2045,2041,2056,2067,2058,2066
2030,2052,2036,2040,2064,2076,2063,2063
2027,2046,2039,2034,2053,2086,2054,2058
2027,2042,2036,2037,2047,2090,2034,2064
2036,2040,2036,2033,2038,2085,2037,2060
2049,2045,2032,2036,2027,2073,2021,2044
2038,2044,2036,2039,2026,2068,2018,2037
2033,2053,2045,2045,2034,2044,2022,2034
2039,2056,2050,2051,2035,2004,2014,2033
2036,2057,2045,2052,2037,1996,2026,2023
2039,2053,2047,2043,2031,2022,2022,2022
2037,2047,2048,2042,2029,2036,2026,2025
2036,2043,2037,2044,2035,2051,2042,2030
2030,2040,2037,2040,2039,2045,2046,2022
2028,2034,2039,2036,2044,2041,2034,2014
2029,2032,2036,2032,2063,2034,2031,2019
2030,2030,2044,2051,2087,2058,2040,2028
2044,2052,2058,2066,2105,2081,2047,2032
2041,2055,2052,2057,2097,2074,2029,2028
2039,2047,2047,2058,2092,2072,2023,2020
2033,2043,2040,2059,2085,2082,2016,2016
2032,2042,2034,2049,2073,2080,2026,2019
2023,2036,2032,2042,2072,2084,2033,2029
2031,2041,2031,2039,2068,2080,2061,2032
2028,2033,2032,2033,2051,2064,2060,2021
2035,2039,2035,2032,2045,2038,2049,2041
2036,2043,2044,2039,2053,2022,2067,2047
2033,2040,2047,2046,2065,2035,2077,2058
2039,2043,2040,2051,2079,2050,2075,2064
2034,2035,2036,2050,2081,2077,2079,2070
2035,2031,2035,2047,2094,2104,2078,2085
2038,2032,2035,2047,2094,2130,2093,2084
2044,2029,2034,2036,2074,2121,2094,2086
2037,2034,2031,2041,2070,2126,2100,2077
2044,2044,2037,2046,2073,2134,2092,2072
2045,2046,2036,2045,2072,2143,2071,2075
2046,2048,2040,2044,2072,2139,2063,2071
2051,2048,2042,2040,2056,2098,2061,2060
2041,2046,2043,2033,2033,2082,2064,2055
2041,2044,2045,2032,2013,2058,2035,2037
2038,2048,2051,2034,2008,1988,2031,2025
2041,2049,2052,2039,2018,1972,2044,2032
2045,2052,2062,2048,2045,2007,2054,2033
2051,2064,2066,2060,2059,2006,2046,2026
2060,2071,2076,2054,2041,1969,2044,2027
2058,2071,2072,2056,2059,1967,2042,2030
2054,2074,2067,2054,2062,1977,2034,2017
2052,2062,2060,2039,2041,1993,2040,2016
2054,2051,2051,2030,2036,2005,2021,2012
2049,2048,2049,2032,2033,2004,2020,2008
2055,2050,2056,2041,2053,2013,2017,2013
2049,2053,2060,2047,2055,2016,2026,2012
2059,2053,2058,2052,2062,2026,2019,2021
2056,2057,2061,2052,2056,2031,2045,2034
2061,2055,2062,2052,2067,2060,2084,2035
2059,2054,2065,2060,2068,2075,2058,2034
2047,2052,2055,2053,2068,2086,2057,2031
2052,2046,2056,2060,2076,2079,2044,2038
2043,2049,2050,2049,2073,2045,2024,2042
2041,2042,2044,2045,2066,2029,2010,2044
2041,2029,2037,2036,2054,1999,1994,2054
2038,2029,2037,2035,2053,1989,1995,2059
2041,2040,2045,2038,2053,2018,2009,2073
2047,2030,2038,2040,2048,2048,2010,2078
2046,2037,2024,2028,2024,2043,2002,2073
2045,2029,2023,2022,2012,2025,1994,2064
2042,2034,2039,2038,2027,2026,2003,2059
2048,2036,2040,2032,2020,2037,1997,2054
2041,2033,2037,2023,1999,2045,1997,2035
2035,2034,2034,2019,1993,2019,1980,2028
2035,2039,2029,2011,1970,2009,1978,2029
2043,2033,2033,2010,1948,2010,1986,2019
2039,2035,2033,2008,1954,2026,2014,2000
2032,2027,2031,2006,1967,2033,2006,2003
2040,2034,2032,2024,2023,2037,2036,2013
2045,2042,2040,2049,2084,2056,2044,2012
2045,2043,2049,2064,2128,2066,2054,2022
2047,2053,2044,2063,2137,2073,2061,2023
2048,2054,2050,2064,2133,2080,2056,2018
2050,2050,2045,2058,2117,2070,2045,2025
2063,2047,2045,2059,2113,2067,2054,2020
2051,2045,2041,2054,2100,2054,2034,2018
2047,2045,2036,2051,2094,2058,2050,2025
2060,2058,2040,2055,2119,2064,2032,2027
2057,2049,2046,2054,2148,2070,2057,2022
2052,2047,2046,2042,2155,2081,2056,2017
2049,2051,2046,2035,2128,2071,2043,2019
2049,2053,2046,2024,2086,2059,2043,2023
2044,2050,2042,2030,2072,2068,2053,2021
2040,2045,2045,2032,2067,2071,2047,2026
2036,2045,2048,2033,2051,2084,2041,2038
2040,2039,2050,2027,2017,2081,2033,2038
2046,2038,2047,2015,1956,2076,2058,2045
2042,2031,2050,2003,1871,2074,2041,2044
2036,2032,2052,2010,1894,2063,2042,2043
2033,2043,2062,2030,1963,2029,2044,2056
2045,2048,2071,2047,2021,2021,2039,2070
2046,2039,2062,2041,2052,2049,2037,2068
2048,2032,2062,2037,2070,2058,2032,2062
2050,2042,2071,2040,2076,2073,2023,2059
2041,2033,2062,2039,2082,2094,2037,2046
2036,2033,2060,2035,2070,2119,2056,2050
2033,2030,2054,2033,2042,2153,2045,2045
2029,2022,2043,2027,2011,2172,2051,2031
2030,2029,2045,2026,2022,2144,2043,2030
2041,2031,2044,2028,2014,2034,2009,2010
2030,2036,2042,2019,2009,1971,2006,2008
2030,2046,2057,2038,2025,1976,2027,2021
2040,2052,2066,2050,2048,2012,2025,2024
2042,2042,2058,2046,2053,2031,2041,2028
2044,2049,2060,2038,2051,2050,2058,2024
2055,2051,2055,2033,2041,2058,2047,2021
2052,2047,2055,2038,2042,2077,2049,2007
2050,2042,2048,2039,2048,2075,2053,1999
2031,2039,2048,2030,2034,2059,2040,1992
2034,2029,2049,2029,2028,2030,2014,2006
2042,2045,2055,2034,2024,1992,2001,2017
2046,2048,2055,2035,2034,2005,2030,2022
2041,2049,2053,2044,2052,2032,2045,2025
2039,2056,2057,2051,2065,2055,2040,2028
2044,2064,2057,2055,2068,2080,2066,2034
2043,2062,2063,2049,2074,2076,2056,2036
2041,2053,2053,2050,2072,2070,2074,2047
2042,2052,2051,2054,2090,2072,2059,2049
2040,2049,2041,2050,2084,2080,2071,2050
2047,2031,2037,2039,2051,2102,2062,2044
2040,2035,2034,2019,1998,2112,2064,2044
2032,2033,2031,2015,1985,2119,2039,2055
2032,2029,2031,2015,1986,2112,2043,2064
2036,2031,2034,2018,1998,2071,2049,2066
2032,2025,2040,2036,2046,2013,2015,2063
2036,2033,2054,2050,2098,1998,2010,2063
2040,2043,2060,2061,2107,2028,2034,2069
2036,2051,2057,2055,2102,2045,2048,2063
2040,2048,2055,2057,2097,2044,2041,2044
2035,2041,2049,2041,2077,2018,2024,2034
2025,2041,2051,2035,2050,1996,2030,2016
2023,2057,2062,2036,2024,1989,2022,2011
2035,2063,2068,2034,2013,1983,2005,2005
2041,2056,2063,2027,2007,2005,2006,2015
2038,2056,2056,2025,2031,2025,2031,2015
2045,2070,2075,2056,2086,2052,2048,2025
2060,2077,2080,2066,2103,2080,2062,2022
2056,2078,2077,2068,2110,2114,2083,2021
2063,2071,2070,2064,2101,2130,2075,2014
2057,2060,2061,2054,2077,2114,2074,2012
2048,2044,2033,2037,2061,2111,2060,2008
2045,2041,2032,2035,2028,2044,2043,2008
2051,2045,2036,2031,2000,1969,2040,2014
2046,2039,2025,2027,2000,1983,2045,1999
2031,2030,2022,2017,1998,2016,2018,1993
2034,2030,2029,2020,2004,2034,2055,2009
2040,2040,2039,2043,2045,2054,2047,2014
2036,2042,2036,2049,2076,2075,2052,2019
2030,2037,2039,2051,2112,2101,2057,2019
2039,2044,2048,2043,2114,2103,2070,2028
2049,2054,2053,2049,2105,2094,2060,2040
2048,2050,2050,2045,2084,2064,2056,2043
2044,2049,2047,2042,2051,2005,2052,2068
2054,2047,2055,2048,2020,1985,2049,2078
2058,2050,2053,2043,2007,1992,2051,2079
2059,2052,2056,2052,2043,2015,2055,2079
2048,2038,2042,2043,2047,2033,2062,2071
2042,2030,2041,2049,2058,2056,2046,2062
2038,2041,2055,2051,2038,2072,2061,2065
2043,2049,2052,2042,2030,2075,2033,2066
2049,2049,2052,2045,2012,2067,2040,2069
2053,2047,2055,2046,2002,2065,2051,2058
2049,2045,2046,2022,1991,2089,2039,2036
2039,2035,2043,2020,2070,2140,2049,2022
2030,2036,2053,2043,2102,2174,2062,2017
2041,2044,2055,2052,2103,2154,2054,2017
2038,2038,2052,2050,2111,2033,2039,2016
2038,2041,2051,2048,2091,2005,2019,2017
2033,2045,2049,2047,2073,2033,2046,2014
2044,2050,2054,2047,2064,2053,2054,2011
2050,2050,2048,2049,2057,2054,2044,2009
2043,2049,2047,2049,2051,2039,2029,1998
2033,2035,2038,2036,2035,1990,2022,1988
2036,2029,2039,2032,2024,1973,2003,2003
2038,2039,2042,2027,2026,1979,2039,2003
2045,2038,2037,2024,1995,1997,2060,2012
2042,2038,2050,2022,2001,2019,2046,2012
2043,2042,2053,2027,2026,2047,2048,2016
2045,2045,2052,2029,2034,2041,2035,2016
2043,2045,2058,2035,2048,2011,2026,2029
2043,2044,2050,2038,2056,2008,2051,2032
2042,2038,2052,2043,2074,2018,2033,2030
2047,2043,2046,2044,2074,2037,2047,2044
2042,2040,2044,2042,2079,2057,2040,2066
2038,2042,2047,2042,2089,2070,2045,2059
2037,2042,2053,2044,2102,2085,2044,2076
2044,2044,2052,2046,2108,2077,2050,2078
2047,2045,2054,2050,2092,2078,2057,2078
2045,2036,2047,2046,2102,2088,2039,2070
2042,2038,2055,2048,2099,2110,2062,2071
2039,2049,2063,2044,2083,2098,2074,2068
2036,2052,2067,2038,2053,2061,2056,2057
2043,2050,2055,2031,2030,2025,2025,2053
2033,2040,2049,2030,2023,2027,2028,2043
2039,2039,2053,2030,2016,2020,2039,2038
2042,2041,2051,2034,2007,2021,2042,2032
2042,2051,2054,2037,2022,2047,2056,2039
2054,2050,2050,2042,2033,2083,2074,2032
2057,2056,2055,2045,2037,2108,2081,2026
2054,2055,2049,2044,2032,2101,2070,2010
2047,2052,2043,2046,2037,2077,2058,2003
2041,2047,2049,2041,2045,2086,2041,2004
2042,2047,2042,2033,2030,2085,2041,2000
2040,2039,2036,2025,2024,2062,2034,1993
2033,2036,2036,2022,2017,2063,2009,1997
2031,2040,2042,2028,2032,2066,2034,2000
2045,2047,2048,2041,2056,2069,2047,2011
2049,2049,2053,2058,2072,2059,2048,2021
2047,2054,2054,2059,2070,2055,2052,2028
2051,2051,2053,2052,2078,2056,2058,2029
2048,2049,2049,2051,2083,2042,2049,2036
2050,2047,2045,2048,2083,2036,2029,2033
2052,2051,2042,2053,2078,2008,2042,2028
2046,2040,2039,2047,2073,1978,2029,2045
2042,2039,2039,2051,2073,1978,2010,2054
2043,2042,2038,2047,2064,1982,2023,2057
2041,2036,2042,2042,2055,1988,2013,2060
2039,2036,2038,2039,2052,2000,2020,2060
2042,2038,2047,2040,2060,1998,2036,2064
2041,2033,2043,2036,2058,2022,2016,2067
2037,2019,2028,2024,2041,2058,2015,2049
2030,2008,2024,2020,2020,2076,2039,2046
2032,2020,2037,2022,2015,2097,2027,2048
2030,2027,2035,2020,2013,2091,2019,2050
2031,2030,2045,2024,2020,2056,2029,2062
2041,2049,2047,2034,2049,2042,2045,2063
2052,2058,2055,2053,2073,2064,2040,2054
2050,2061,2059,2055,2081,2077,2076,2048
2042,2061,2059,2055,2084,2063,2065,2041
2051,2066,2064,2053,2077,2054,2052,2022
2052,2059,2059,2047,2070,2056,2057,2011
2040,2047,2053,2045,2062,2048,2045,2007
2039,2044,2048,2046,2048,2035,2038,1998
2035,2036,2040,2034,2041,2035,2038,1993
2033,2039,2044,2038,2044,2042,2050,1998
2030,2040,2051,2043,2041,2068,2044,1995
2035,2037,2044,2040,2035,2076,2051,1996
2032,2038,2045,2037,2037,2076,2042,1997
2028,2043,2048,2037,2035,2067,2036,1985
2028,2030,2046,2044,2044,2042,2029,2002
2032,2034,2052,2054,2053,2030,2033,2013
2036,2033,2052,2059,2078,2044,2048,2007
2032,2036,2053,2063,2076,2047,2051,2008
2032,2036,2061,2057,2074,2051,2054,2014
2028,2042,2065,2056,2062,2050,2030,2023
2043,2043,2060,2058,2062,2051,2037,2030
2045,2042,2053,2054,2074,2060,2028,2043
2047,2042,2058,2055,2092,2075,2067,2053
2047,2048,2054,2053,2096,2092,2071,2061
2037,2040,2050,2048,2097,2094,2077,2069
2043,2040,2049,2059,2096,2087,2060,2069
2042,2047,2057,2059,2081,2062,2048,2071
2040,2031,2048,2047,2060,2029,2029,2061
2040,2030,2044,2040,2060,2032,2050,2074
2044,2041,2046,2051,2067,2032,2045,2072
2046,2046,2048,2048,2083,2028,2070,2067
2038,2040,2049,2042,2078,2023,2063,2058
2049,2045,2049,2043,2064,2024,2061,2057
2052,2051,2053,2052,2082,2036,2056,2049
2062,2054,2059,2046,2093,2033,2048,2050
2051,2050,2051,2048,2087,2033,2042,2035
2041,2046,2045,2047,2081,2059,2040,2030
2039,2043,2048,2047,2061,2095,2055,2026
2038,2045,2045,2047,1998,2147,2052,2021
2036,2040,2049,2035,1947,2130,2030,2011
2037,2041,2045,2038,1986,2047,2007,2010
2037,2044,2049,2038,2010,1963,2005,2009
2041,2043,2059,2046,2021,2011,2010,2000
2035,2033,2045,2045,2029,2054,2012,2005
2030,2034,2048,2040,2022,2061,2038,2000
2040,2042,2047,2051,2021,2046,2021,2006
2044,2043,2050,2053,2026,2016,2025,1999
2049,2045,2047,2048,2026,1998,2037,2000
2041,2044,2050,2040,2026,2005,2044,2000
2046,2036,2047,2033,2015,2026,2052,2007
2042,2032,2044,2030,1989,2029,2053,1997
2038,2035,2038,2018,1970,2032,2035,2007
2048,2033,2036,2011,1947,2040,2039,2016
2048,2031,2041,2008,1944,2060,2010,2025
2047,2040,2048,2020,1961,2076,2012,2044
2053,2048,2053,2039,1991,2064,2023,2068
2059,2060,2064,2059,2038,2005,2031,2085
2064,2059,2068,2064,2091,1993,2040,2094
2059,2052,2064,2079,2125,2021,2066,2088
2045,2042,2054,2069,2124,2043,2057,2075
2033,2034,2046,2058,2118,2059,2068,2072
2039,2037,2049,2059,2108,2063,2058,2073
2043,2035,2048,2055,2099,2064,2072,2082
2046,2043,2055,2052,2069,2064,2083,2081
2054,2042,2053,2050,2059,2067,2096,2073
2055,2041,2054,2051,2056,2070,2094,2075
2045,2041,2049,2043,2042,2069,2074,2054
2048,2042,2044,2037,2023,2061,2059,2049
2053,2047,2045,2035,2011,2064,2068,2043
2056,2040,2045,2039,2022,2059,2052,2033
2053,2046,2046,2042,2021,2048,2046,2034
2050,2042,2041,2039,2033,2049,2052,2021
2045,2036,2043,2043,2054,2041,2046,2018
2046,2042,2054,2050,2063,2026,2037,2011
2043,2039,2045,2053,2069,2003,2024,2009
2044,2030,2039,2044,2050,1991,2021,1999
2041,2035,2037,2041,2042,1996,2034,2002
2046,2040,2039,2038,2038,2005,2046,2011
2043,2038,2043,2038,2041,2016,2051,2013
2047,2039,2047,2040,2047,2041,2043,2020
2052,2047,2047,2047,2053,2058,2052,2036
2058,2049,2049,2047,2055,2063,2057,2036
2054,2049,2050,2042,2049,2048,2041,2036
2052,2045,2050,2043,2044,2042,2037,2039
2045,2047,2054,2044,2047,2042,2034,2042
2041,2053,2057,2047,2048,2036,2043,2056
2038,2053,2056,2055,2064,2029,2072,2064
2047,2049,2061,2058,2074,2028,2060,2073
2041,2048,2057,2056,2076,2036,2059,2074
2041,2043,2057,2051,2068,2040,2067,2085
2046,2041,2050,2042,2053,2031,2076,2074
2035,2030,2035,2031,2041,2019,2058,2073
2030,2026,2031,2035,2034,2008,2037,2078
2046,2037,2050,2052,2038,2025,2033,2078
2061,2043,2059,2050,2053,2041,2043,2079
2064,2047,2057,2048,2059,2043,2054,2073
2062,2050,2062,2047,2050,2045,2034,2058
2065,2055,2056,2041,2035,2047,2054,2060
2064,2051,2053,2035,2019,2048,2067,2060
2069,2050,2054,2040,2021,2055,2065,2049
2058,2051,2047,2038,2028,2044,2054,2042
2053,2045,2051,2041,2024,2026,2038,2022
2043,2044,2050,2037,2030,2027,2060,2025
2044,2043,2059,2041,2021,2019,2053,2030
2044,2045,2055,2043,2017,2018,2072,2030
2049,2043,2053,2041,2031,2025,2057,2035
2050,2044,2053,2047,2044,2031,2042,2020
2049,2038,2042,2042,2038,2022,2053,2018
2047,2032,2037,2037,2046,2036,2055,2025
2049,2037,2041,2042,2056,2065,2063,2024
2047,2032,2035,2040,2061,2097,2069,2034
2055,2038,2039,2047,2069,2113,2055,2024
2046,2045,2048,2054,2072,2101,2055,2024
2041,2055,2051,2058,2051,2090,2073,2018
2051,2061,2056,2067,2076,2070,2056,2028
2054,2066,2061,2068,2082,2040,2049,2046
2047,2071,2060,2059,2075,2036,2034,2052
2043,2061,2058,2057,2070,2041,2040,2054
2041,2057,2049,2056,2052,2050,2065,2059
2051,2056,2054,2050,2060,2053,2062,2070
2051,2057,2046,2045,2062,2053,2028,2081
2058,2062,2046,2036,2033,2052,2045,2086
2057,2058,2044,2036,2074,2057,2023,2083
2044,2047,2046,2042,2088,2060,2029,2082
2050,2046,2048,2045,2078,2066,2057,2078
2049,2058,2053,2051,2073,2069,2057,2072
2051,2051,2045,2051,2082,2067,2043,2065
2049,2046,2043,2046,2065,2057,2033,2063
2046,2040,2042,2037,2053,2036,2039,2058
2057,2050,2050,2045,2041,2029,2016,2057
2067,2060,2055,2050,2050,2032,2042,2048
2058,2056,2053,2046,2065,2040,2047,2044
2053,2050,2047,2050,2050,2029,2028,2036
2048,2053,2051,2047,2056,2040,2051,2027
2047,2062,2061,2058,2072,2040,2071,2026
2040,2054,2054,2055,2057,2034,2062,2026
2037,2048,2048,2052,2051,2038,2051,2021
2040,2051,2052,2049,2044,2054,2051,2031
2048,2053,2045,2043,2001,2059,2065,2021
2037,2043,2037,2032,1962,2058,2042,2018
2036,2043,2037,2028,1965,2049,2036,2016
2044,2041,2052,2028,1985,2047,2050,2031
2043,2050,2048,2033,1988,2046,2036,2022
2041,2045,2049,2032,2008,2046,2061,2024
2045,2055,2060,2051,2071,2065,2049,2030
2050,2059,2061,2061,2080,2087,2061,2040
2045,2057,2049,2041,2036,2061,2046,2037
2045,2042,2042,2030,2013,2032,2020,2042
2038,2042,2044,2039,2039,2031,2026,2051
2049,2051,2049,2046,2063,2052,2023,2054
2050,2049,2050,2060,2105,2065,2063,2071
2058,2055,2064,2077,2124,2068,2057,2081
2058,2063,2063,2073,2106,2057,2029,2084
2054,2054,2061,2068,2093,2035,2025,2085
2046,2057,2057,2056,2078,2014,2035,2086
2039,2040,2040,2050,2057,2016,2007,2087
2039,2040,2037,2047,2043,2033,2051,2085
2047,2044,2045,2046,2055,2050,2052,2081
2043,2048,2047,2050,2066,2062,2051,2076
2031,2043,2042,2046,2070,2053,2062,2073
2037,2042,2046,2042,2047,2041,2052,2063
2033,2039,2043,2050,2043,2046,2035,2056
2033,2042,2043,2050,2052,2054,2050,2052
2044,2037,2039,2056,2060,2068,2063,2046
2047,2038,2040,2059,2064,2096,2052,2049
2045,2033,2036,2056,2060,2085,2049,2039
2043,2032,2033,2047,2047,2058,2042,2031
2042,2031,2036,2055,2039,2045,2037,2033
2053,2036,2043,2054,2045,2052,2049,2031
2062,2041,2052,2056,2049,2078,2065,2031
2063,2036,2050,2052,2060,2087,2060,2024
2052,2026,2036,2053,2066,2082,2058,2023
2057,2029,2039,2055,2064,2089,2059,2027
2059,2035,2042,2056,2056,2072,2042,2019
2043,2036,2047,2052,2044,2034,2053,2023
2043,2036,2046,2047,2024,2034,2029,2024
2040,2040,2038,2036,1998,2035,2009,2015
2036,2037,2033,2027,1988,2049,2010,2029
2042,2040,2035,2025,1981,2062,2009,2027
2038,2038,2038,2031,1990,2033,2032,2039
2038,2041,2038,2045,2013,1987,2017,2054
2052,2060,2060,2066,2059,1984,2028,2073
2055,2066,2073,2077,2101,2007,2043,2074
2053,2062,2066,2071,2113,2030,2047,2080
2049,2058,2061,2063,2103,2045,2029,2082
2052,2047,2059,2056,2097,2046,2045,2087
2051,2037,2053,2050,2074,2056,2031,2086
2032,2019,2042,2047,2060,2061,2039,2083
2039,2021,2043,2053,2061,2069,2068,2089
2040,2045,2055,2052,2057,2074,2074,2083
2040,2044,2060,2056,2065,2075,2067,2084
2045,2046,2057,2056,2055,2065,2068,2080
2053,2051,2059,2053,2056,2068,2065,2072
2048,2054,2055,2051,2056,2064,2071,2065
2053,2055,2058,2050,2056,2057,2055,2051
2050,2063,2063,2051,2063,2064,2056,2041
2063,2068,2074,2050,2061,2071,2050,2040
2058,2058,2066,2051,2055,2076,2057,2041
2051,2050,2065,2051,2068,2081,2050,2041
2042,2053,2058,2051,2073,2094,2039,2043
2040,2053,2068,2061,2082,2113,2052,2047
2043,2064,2059,2061,2081,2121,2055,2047
2055,2067,2057,2055,2078,2124,2051,2034
2040,2053,2047,2047,2071,2124,2054,2038
2044,2047,2049,2058,2069,2120,2076,2039
2059,2060,2054,2059,2051,2042,2036,2031
2057,2054,2054,2062,2038,1949,2055,2029
2045,2055,2056,2057,2037,1923,2045,2024
2044,2049,2059,2057,2043,1939,2059,2035
2048,2052,2057,2057,2050,1973,2072,2044
2053,2053,2062,2064,2056,2004,2082,2050
2050,2055,2055,2068,2057,2036,2092,2056
2056,2057,2059,2068,2070,2057,2087,2059
2054,2054,2056,2061,2059,2039,2088,2056
2045,2049,2050,2055,2053,2027,2083,2062
2054,2045,2049,2052,2048,2030,2068,2071
2050,2043,2047,2053,2047,2033,2051,2074
2047,2045,2044,2056,2038,2033,2062,2079
2053,2050,2046,2051,2038,2029,2049,2082
2048,2041,2045,2051,2042,2035,2063,2093
2051,2043,2047,2051,2044,2051,2051,2087
2056,2052,2044,2049,2047,2055,2057,2089
2054,2056,2040,2049,2038,2035,2055,2084
2053,2053,2046,2046,2040,2028,2051,2082
2055,2053,2045,2043,2040,2022,2068,2076
2061,2049,2044,2049,2039,2022,2064,2073
2063,2062,2047,2051,2042,2014,2053,2068
2069,2060,2044,2060,2054,2026,2061,2059
2068,2061,2047,2057,2054,2045,2065,2056
2054,2059,2044,2053,2061,2069,2056,2048
2050,2058,2036,2052,2058,2094,2058,2041
2055,2048,2032,2050,2053,2119,2056,2035
2057,2050,2031,2051,2051,2136,2056,2030
2052,2047,2032,2048,2044,2109,2061,2026
2046,2050,2034,2042,2032,2020,2037,2011
2048,2042,2021,2038,2016,1971,2036,2007
2043,2032,2020,2042,2027,2003,2026,2009
2047,2036,2027,2052,2040,2019,2051,2015
2056,2042,2032,2053,2042,2029,2054,2022
2051,2042,2035,2050,2044,2041,2063,2030
2055,2042,2032,2050,2041,2046,2065,2018
2054,2041,2033,2048,2045,2054,2060,2027
2050,2040,2031,2053,2050,2050,2063,2026
2047,2036,2038,2051,2044,2061,2057,2041
2050,2030,2035,2039,2010,2057,2055,2038
2046,2033,2034,2033,1985,2042,2051,2047
2039,2029,2028,2030,1968,2005,2052,2058
2038,2024,2024,2032,1972,1987,2049,2076
2054,2045,2042,2061,2023,1995,2071,2089
2070,2064,2059,2088,2068,2027,2071,2100
2072,2065,2060,2092,2098,2043,2063,2102
2068,2062,2056,2084,2090,2055,2069,2097
2053,2050,2041,2068,2095,2055,2060,2085
2047,2039,2040,2062,2112,2058,2074,2088
2047,2047,2043,2058,2117,2062,2072,2080
2045,2045,2046,2057,2118,2057,2048,2080
2033,2041,2038,2048,2122,2055,2047,2077
2039,2041,2036,2046,2131,2063,2058,2080
2042,2052,2041,2048,2130,2064,2073,2065
2041,2048,2041,2044,2110,2072,2066,2051
2049,2047,2040,2042,2084,2063,2053,2059
2059,2042,2046,2036,1990,2048,2023,2045
2056,2040,2039,2021,1925,2026,2008,2034
2051,2044,2036,2018,1967,2022,2008,2030
2051,2049,2037,2026,1987,2006,2019,2027
2048,2049,2044,2028,2011,1997,2026,2029
2056,2058,2042,2034,2026,2005,2036,2027
2054,2057,2037,2040,2028,2012,2037,2024
2060,2064,2034,2034,2025,2004,2031,2021
2055,2056,2033,2035,2017,1998,2024,2027
2054,2060,2040,2039,2032,2003,2032,2032
2061,2072,2043,2047,2031,2007,2036,2028
2062,2069,2047,2050,2036,2013,2029,2034
2063,2070,2049,2055,2044,2019,2042,2033
2063,2071,2059,2053,2045,2030,2039,2033
2062,2063,2055,2052,2050,2037,2044,2042
2062,2062,2050,2054,2043,2046,2054,2053
2064,2063,2047,2052,2037,2041,2061,2055
2064,2058,2040,2049,2040,2044,2057,2057
2061,2045,2034,2053,2063,2041,2040,2058
2057,2038,2039,2052,2053,2051,2046,2063
2045,2041,2045,2051,2050,2061,2046,2072
2053,2045,2056,2049,2052,2071,2040,2074
2045,2044,2047,2045,2051,2065,2032,2068
2033,2047,2046,2044,2055,2058,2035,2064
2025,2042,2045,2049,2057,2050,2043,2068
2027,2041,2048,2054,2066,2052,2049,2082
2039,2044,2056,2060,2067,2050,2054,2088
2045,2055,2054,2053,2056,2038,2049,2088
2050,2057,2052,2045,2040,2028,2036,2081
2061,2057,2055,2044,2035,2009,2032,2071
2056,2053,2042,2034,2027,1980,2014,2068
2054,2053,2039,2033,2019,1971,2013,2044
2046,2049,2035,2031,2028,1973,2018,2035
2053,2045,2041,2041,2051,1986,2022,2035
2059,2055,2045,2047,2059,1995,2039,2043
2056,2049,2042,2048,2054,2031,2051,2050
2062,2049,2044,2046,2039,2055,2026,2041
2051,2043,2036,2045,2034,2070,2030,2025
2040,2031,2033,2035,2019,2058,2017,2021
2043,2033,2027,2031,2006,2031,2055,2011
2039,2033,2032,2033,2005,2028,2058,2019
2038,2037,2031,2033,2019,2053,2066,2022
2047,2049,2039,2044,2027,2082,2078,2030
2053,2062,2052,2049,2036,2101,2074,2037
2057,2062,2051,2048,2030,2116,2081,2036
2055,2062,2049,2042,2025,2112,2086,2029
2054,2059,2040,2030,2014,2091,2049,2026
2048,2048,2040,2036,2023,2073,2056,2020
2048,2035,2034,2030,2033,2064,2043,2021
2037,2027,2016,2020,2034,2065,2042,2022
2024,2020,2013,2022,2055,2058,2022,2033
2029,2021,2018,2025,2045,2028,2004,2046
2030,2029,2037,2033,2054,2025,2024,2052
2034,2044,2047,2045,2076,2045,2043,2066
2047,2061,2058,2048,2095,2065,2035,2070
2049,2065,2061,2053,2096,2072,2044,2082
2057,2068,2067,2062,2091,2083,2052,2092
2059,2066,2061,2054,2086,2088,2059,2087
2050,2056,2056,2051,2070,2087,2054,2090
2050,2058,2055,2055,2065,2093,2063,2090
2057,2062,2055,2053,2061,2086,2068,2093
2053,2053,2048,2047,2050,2069,2063,2080
2050,2052,2044,2051,2031,2055,2063,2076
2043,2055,2045,2049,2028,2052,2043,2072
2047,2046,2042,2047,2024,2048,2032,2064
2053,2055,2044,2044,2017,2024,2012,2061
2053,2054,2043,2042,2014,2022,2005,2048
2043,2046,2037,2039,2021,2024,2027,2032
2038,2043,2044,2041,2032,2029,2036,2033
2048,2042,2039,2038,2036,2029,2034,2039
2052,2045,2040,2043,2030,2028,2051,2033
2062,2043,2043,2039,2037,2036,2016,2022
2058,2045,2039,2040,2028,2028,1998,2018
2057,2040,2039,2035,2030,2024,2010,2011
2049,2040,2042,2037,2038,2033,2004,2017
2052,2040,2046,2044,2038,2044,2027,2015
2054,2045,2057,2047,2045,2048,2022,2015
2046,2042,2053,2047,2036,2050,2038,2014
2043,2045,2056,2048,2051,2064,2053,2034
2049,2046,2065,2049,2056,2080,2049,2045
2041,2053,2063,2056,2065,2082,2049,2039
2040,2053,2068,2059,2077,2075,2049,2040
2047,2062,2072,2067,2076,2081,2079,2043
2044,2056,2064,2060,2072,2080,2062,2049
2046,2054,2062,2062,2061,2079,2054,2063
2042,2055,2061,2063,2062,2077,2052,2067
2055,2061,2064,2067,2058,2073,2059,2082
2049,2070,2064,2065,2059,2068,2061,2088
2050,2058,2060,2065,2055,2061,2037,2091
2047,2054,2055,2056,2063,2056,2048,2088
2042,2042,2049,2048,2056,2038,2038,2092
2041,2043,2045,2050,2062,2051,2044,2092
2046,2054,2053,2056,2066,2067,2048,2093
2052,2056,2054,2058,2063,2050,2025,2085
2056,2062,2059,2060,2058,1997,2025,2083
2055,2065,2060,2058,2056,1981,2028,2075
2050,2057,2059,2053,2052,1994,2028,2068
2046,2052,2055,2053,2044,2012,2045,2059
2054,2059,2056,2058,2050,2033,2041,2056
2058,2056,2058,2048,2044,2049,2055,2047
2057,2058,2045,2045,2033,2062,2044,2035
2053,2061,2046,2040,2026,2084,2046,2029
2043,2054,2038,2036,2024,2096,2056,2025
2051,2051,2039,2034,2027,2102,2046,2029
2055,2046,2044,2037,2030,2090,2050,2029
2052,2051,2044,2050,2045,2050,2070,2034
2056,2048,2044,2042,2065,2031,2041,2029
2056,2036,2035,2043,2063,2053,2019,2027
2052,2038,2036,2040,2056,2083,2053,2020
2063,2045,2037,2041,2054,2096,2055,2026
2063,2046,2037,2045,2049,2047,2059,2024
2061,2040,2045,2045,2048,1998,2056,2026
2052,2051,2046,2048,2051,1998,2057,2027
2047,2047,2049,2056,2072,2017,2063,2023
2041,2044,2054,2060,2083,2032,2057,2032
2042,2048,2062,2065,2079,2045,2050,2030
2042,2052,2061,2068,2092,2047,2062,2046
2062,2065,2067,2066,2091,2047,2067,2062
2063,2071,2064,2069,2088,2042,2064,2076
2066,2064,2060,2069,2087,2039,2063,2073
2059,2064,2060,2066,2093,2034,2058,2082
2062,2067,2060,2057,2072,2037,2061,2092
2062,2060,2059,2051,2035,2039,2048,2090
2060,2053,2050,2030,1985,2051,2051,2089
2050,2045,2045,2029,2010,2062,2062,2095
2058,2048,2047,2032,2022,2073,2062,2093
2060,2047,2040,2032,2037,2076,2041,2090
2060,2046,2041,2041,2043,2077,2061,2087
2058,2054,2049,2049,2049,2069,2042,2083
2055,2047,2046,2045,2054,2061,2049,2073
2056,2046,2046,2052,2058,2053,2071,2070
2051,2050,2048,2051,2056,2035,2060,2057
2050,2058,2051,2052,2046,2018,2065,2053
2046,2054,2048,2050,2045,2017,2062,2050
2056,2057,2055,2056,2044,2019,2075,2037
2046,2054,2053,2047,2040,2010,2054,2037
2051,2051,2045,2046,2039,2017,2045,2030
2038,2043,2042,2048,2033,2037,2044,2021
2043,2043,2046,2042,2026,2047,2026,2014
2040,2042,2039,2035,2006,2045,2026,2010
2037,2029,2036,2041,1972,2016,2018,2000
2040,2033,2038,2046,2008,1998,2014,2011
2044,2041,2044,2044,2047,2002,2025,2015
2047,2040,2044,2052,2046,2029,2058,2021
2045,2039,2043,2049,2052,2046,2064,2022
2045,2045,2052,2053,2034,2049,2054,2032
2049,2043,2044,2047,2030,2051,2062,2040
2050,2039,2043,2050,2044,2052,2073,2044
2052,2045,2046,2043,2031,2042,2055,2052
2047,2038,2046,2024,2021,2032,2064,2058
2050,2034,2042,2034,2076,2056,2069,2069
2056,2043,2046,2047,2102,2082,2084,2076
2054,2041,2047,2051,2093,2089,2093,2081
2051,2037,2044,2039,2066,2078,2075,2078
2044,2031,2044,2038,2042,2059,2044,2080
2044,2029,2039,2035,2032,2057,2052,2082
2035,2026,2038,2028,2033,2065,2051,2080
2032,2031,2035,2027,2033,2059,2047,2083
2042,2037,2042,2035,2025,2067,2043,2080
2043,2042,2044,2030,2009,2075,2047,2061
2037,2038,2042,2032,2009,2074,2033,2057
2040,2040,2047,2026,1994,2038,2039,2052
2039,2037,2043,2026,1988,1998,2036,2053
2045,2042,2049,2024,2006,1994,2062,2058
2061,2043,2053,2045,2053,2012,2069,2056
2062,2048,2050,2061,2091,2018,2064,2041
2059,2052,2050,2058,2094,2008,2068,2040
2060,2053,2048,2046,2072,2005,2059,2031
2063,2052,2043,2039,2023,1997,2035,2031
2064,2049,2040,2028,1989,1989,2035,2026
2056,2047,2045,2024,1974,1990,2024,2015
2053,2045,2043,2020,1976,1994,2042,2016
2048,2035,2033,2020,1997,2001,2039,2017
2048,2034,2036,2041,2039,2013,2045,2023
2058,2051,2051,2059,2076,2040,2044,2034
2072,2058,2054,2063,2110,2063,2031,2034
2062,2058,2053,2066,2120,2091,2068,2025
2063,2058,2054,2059,2104,2088,2048,2032
2061,2058,2047,2056,2085,2078,2040,2038
2062,2053,2050,2049,2088,2068,2031,2044
2068,2053,2049,2056,2085,2064,2045,2048
2060,2046,2048,2053,2076,2063,2036,2053
2067,2048,2047,2050,2081,2062,2048,2058
2057,2047,2047,2045,2063,2057,2059,2073
2057,2048,2049,2039,2059,2049,2064,2080
2059,2046,2044,2045,2059,2052,2067,2087
2064,2046,2050,2045,2060,2050,2065,2096
2060,2041,2046,2044,2047,2047,2059,2094
2051,2043,2043,2037,2034,2045,2029,2089
2040,2035,2033,2034,2020,2046,2029,2090
2037,2030,2033,2043,2047,2048,2038,2092
2046,2034,2033,2041,2064,2046,2027,2084
2044,2034,2033,2039,2065,2038,2035,2078
2043,2032,2038,2039,2055,2030,2023,2071
2044,2038,2034,2041,2049,2017,2024,2068
2044,2044,2034,2043,2054,1997,2036,2064
2045,2049,2039,2042,2051,2009,2045,2059
2047,2045,2027,2045,2053,2027,2028,2051
2047,2047,2032,2048,2058,2046,2039,2040
2047,2047,2032,2051,2053,2055,2046,2036
2051,2055,2037,2048,2054,2063,2054,2038
2048,2052,2038,2050,2054,2079,2070,2040
2054,2050,2040,2045,2048,2081,2068,2036
2055,2050,2033,2043,2044,2065,2066,2042
2057,2051,2036,2041,2030,2048,2064,2036
2055,2051,2029,2039,2022,2034,2056,2025
2048,2034,2028,2030,2013,2026,2052,2024
2053,2036,2028,2027,2007,2023,2039,2020
2060,2049,2033,2035,2027,2033,2059,2028
2056,2047,2040,2032,2043,2041,2046,2034
2045,2046,2044,2038,2044,2036,2037,2034
2040,2046,2054,2045,2041,2040,2046,2042
2058,2054,2067,2057,2060,2044,2059,2051
2070,2055,2070,2059,2071,2050,2061,2055
2065,2061,2072,2062,2080,2047,2042,2052
2054,2056,2066,2055,2074,2070,2050,2056
2044,2050,2060,2047,2062,2072,2051,2055
2035,2052,2063,2039,2056,2047,2047,2058
2039,2054,2060,2042,2048,2033,2040,2072
2046,2057,2058,2045,2047,2040,2065,2098
2056,2062,2055,2041,2046,2045,2071,2102
2058,2064,2049,2046,2047,2046,2054,2096
2044,2040,2040,2035,2040,2048,2033,2093
2040,2038,2039,2040,2037,2054,2059,2092
2043,2043,2049,2045,2033,2052,2065,2095
2044,2042,2046,2042,2034,2039,2053,2082
2046,2041,2046,2039,2038,2028,2060,2066
2045,2040,2047,2043,2035,2030,2058,2076
2042,2048,2047,2044,2030,2020,2042,2072
2052,2060,2051,2049,2021,2016,2046,2069
2060,2059,2052,2046,2043,2000,2047,2068
2060,2059,2052,2045,2070,2005,2038,2064
2060,2055,2046,2044,2097,2015,2034,2052
2053,2052,2046,2049,2097,2038,2032,2042
2054,2051,2050,2058,2105,2084,2036,2039
2048,2051,2045,2054,2103,2108,2059,2035
2050,2052,2045,2050,2091,2084,2044,2031
2052,2049,2040,2047,2062,1996,2037,2020
2057,2043,2034,2037,2017,1964,2051,2011
2048,2034,2023,2028,1940,2014,2054,2020
2042,2034,2028,2023,1907,2047,2055,2023
2056,2042,2043,2039,1969,2041,2046,2032
2057,2048,2049,2057,2025,2034,2057,2032
2054,2052,2049,2051,2068,2075,2065,2036
2053,2049,2050,2053,2078,2132,2081,2044
2057,2043,2048,2048,2067,2153,2074,2049
2061,2042,2042,2045,2061,2143,2091,2062
2066,2044,2044,2047,2060,2113,2080,2064
2062,2043,2041,2048,2048,2067,2049,2067
2057,2038,2038,2043,2040,2008,2054,2074
2049,2032,2030,2032,2012,1991,2046,2069
2052,2037,2036,2037,2005,1997,2042,2069
2046,2036,2046,2038,2008,2011,2036,2071
2034,2036,2050,2039,2013,2028,2029,2066
2035,2031,2048,2039,2021,2045,2033,2064
2040,2037,2052,2051,2050,2060,2029,2075
2041,2040,2058,2061,2061,2064,2035,2088
2052,2046,2058,2057,2059,2063,2040,2087
2053,2046,2057,2050,2065,2054,2049,2081
2055,2048,2054,2047,2072,2047,2052,2079
2056,2048,2056,2052,2066,2048,2051,2082
2045,2047,2054,2056,2062,2050,2062,2076
2052,2049,2060,2052,2043,2045,2041,2071
2048,2044,2051,2049,2038,2037,2053,2068
2050,2041,2047,2046,2024,2033,2030,2064
2054,2051,2050,2047,2032,2033,2049,2058
2060,2056,2059,2045,2038,2035,2042,2057
2061,2054,2055,2041,2030,2040,2051,2049
2067,2050,2050,2037,2028,2036,2036,2040
2056,2044,2049,2039,2032,2037,2045,2036
2050,2042,2040,2041,2031,2035,2044,2026
2045,2034,2038,2037,2028,2039,2034,2022
2037,2028,2036,2033,2032,2037,2041,2016
2035,2029,2034,2035,2042,2042,2041,2001
2034,2038,2041,2043,2051,2045,2037,2012
2037,2040,2044,2047,2046,2043,2044,2020
2050,2039,2046,2045,2046,2047,2055,2022
2040,2038,2050,2051,2050,2044,2039,2021
2043,2043,2054,2047,2056,2050,2053,2030
2051,2047,2053,2055,2058,2049,2061,2039
2057,2052,2061,2054,2054,2033,2045,2044
2055,2051,2061,2053,2058,2025,2050,2051
2052,2051,2059,2055,2060,2025,2056,2056
2054,2057,2066,2057,2055,2027,2060,2068
2061,2062,2065,2056,2062,2033,2057,2076
2059,2061,2072,2059,2065,2026,2054,2087
2062,2062,2057,2056,2062,2031,2052,2085
2055,2056,2053,2052,2050,2046,2053,2093
2056,2056,2052,2037,2031,2056,2062,2086
2047,2045,2045,2026,1999,2064,2067,2088
