CH1,CH2,CH3,CH4,CH5,CH6,CH7,CH8
2042,2049,2061,2045,2051,2043,2045,2041
2054,2069,2091,2063,2061,2047,2059,2039
2060,2076,2095,2059,2058,2051,2058,2041
2062,2074,2090,2058,2059,2046,2068,2037
2053,2067,2074,2062,2054,2048,2044,2035
2052,2052,2059,2050,2044,2044,2045,2037
2043,2050,2051,2040,2042,2045,2060,2036
2058,2060,2062,2045,2041,2047,2043,2041
2056,2063,2058,2046,2052,2052,2052,2049
2058,2060,2055,2043,2050,2048,2038,2047
2057,2053,2046,2039,2048,2034,2061,2048
2054,2056,2045,2036,2033,2039,2048,2050
2049,2055,2047,2038,2043,2049,2066,2052
2048,2056,2047,2055,2068,2054,2077,2053
2054,2056,2045,2052,2063,2045,2081,2056
2051,2052,2039,2046,2049,2041,2073,2059
2051,2045,2031,2046,2040,2044,2069,2063
2051,2043,2024,2048,2010,2042,2063,2064
2049,2044,2022,2049,1999,2038,2049,2066
2049,2040,2033,2048,2000,2042,2057,2064
2049,2041,2030,2047,2000,2044,2049,2060
2039,2030,2024,2033,1959,2035,2054,2061
2037,2027,2027,2038,1984,2039,2042,2060
2050,2030,2031,2050,2009,2041,2050,2053
2039,2026,2027,2060,2033,2047,2054,2053
2033,2024,2024,2059,2078,2055,2056,2046
2032,2025,2021,2069,2103,2050,2041,2040
2034,2028,2017,2062,2088,2038,2041,2032
2033,2030,2022,2066,2069,2034,2055,2035
2035,2040,2045,2068,2046,2035,2047,2031
2039,2042,2043,2056,2020,2031,2058,2027
2041,2035,2030,2037,2013,2030,2037,2028
2041,2030,2021,2029,2018,2035,2042,2029
2043,2042,2049,2041,2026,2037,2039,2026
2053,2050,2065,2039,2030,2035,2035,2031
2051,2056,2060,2028,2027,2037,2044,2030
2050,2060,2054,2025,2028,2041,2054,2029
2046,2054,2043,2023,2048,2044,2044,2024
2045,2055,2037,2015,2056,2041,2054,2032
2051,2066,2054,2021,2057,2053,2062,2037
2056,2075,2066,2025,2057,2060,2075,2050
2065,2075,2079,2034,2055,2066,2061,2051
2069,2066,2081,2032,2045,2065,2064,2044
2060,2052,2069,2029,2043,2062,2056,2038
2056,2045,2048,2025,2010,2060,2054,2038
2043,2040,2053,2021,1978,2050,2028,2037
2038,2044,2048,2025,1980,2042,2038,2042
2032,2034,2049,2023,1981,2013,2019,2043
2031,2036,2045,2023,2000,1989,2038,2046
2035,2045,2054,2047,2054,2030,2069,2057
2052,2056,2060,2066,2091,2053,2051,2074
2051,2053,2066,2074,2100,2074,2068,2076
2055,2050,2058,2072,2099,2078,2050,2075
2043,2040,2052,2066,2075,2059,2047,2063
2036,2037,2047,2062,2064,2049,2051,2058
2044,2053,2050,2071,2056,2057,2052,2049
2038,2044,2045,2073,2050,2053,2026,2049
2033,2037,2052,2075,2047,2051,2033,2052
2032,2036,2060,2077,2045,2050,2041,2054
2044,2037,2064,2082,2044,2045,2044,2053
2046,2048,2074,2088,2050,2053,2052,2043
2048,2054,2074,2086,2065,2054,2068,2043
2051,2050,2066,2086,2055,2056,2056,2040
2049,2040,2054,2074,2051,2049,2063,2035
2041,2034,2034,2055,2038,2053,2058,2035
2036,2036,2027,2034,2032,2047,2057,2032
2043,2040,2034,2038,2035,2052,2048,2031
2044,2047,2052,2040,2042,2059,2058,2034
2051,2064,2068,2051,2047,2070,2066,2043
2053,2073,2072,2049,2050,2070,2060,2038
2050,2073,2064,2054,2052,2070,2049,2037
2053,2076,2066,2055,2050,2073,2069,2040
2050,2072,2064,2053,2056,2083,2052,2045
2057,2070,2063,2047,2055,2068,2042,2043
2057,2068,2056,2043,2044,2043,2056,2039
2059,2064,2057,2046,2042,2028,2032,2038
2058,2057,2061,2054,2040,2033,2050,2040
2056,2066,2067,2070,2049,2038,2056,2048
2055,2068,2069,2070,2049,2034,2051,2051
2048,2066,2072,2060,2042,2032,2053,2059
2047,2061,2070,2065,2044,2033,2045,2053
2051,2058,2075,2056,2045,2043,2026,2058
2049,2054,2064,2045,2046,2058,2040,2065
2050,2050,2043,2039,2053,2063,2036,2068
2051,2047,2038,2039,2056,2061,2049,2067
2052,2047,2028,2035,2046,2042,2039,2062
2048,2040,2025,2036,2045,2038,2022,2057
2038,2046,2032,2033,2043,2036,2040,2060
2048,2043,2029,2026,2023,2023,2044,2061
2051,2039,2024,2018,2009,2018,2053,2067
2044,2047,2026,2013,2008,2018,2059,2060
2048,2053,2024,2013,2019,2024,2038,2047
2044,2042,2019,2000,2018,2031,2036,2038
2048,2043,2028,2020,2051,2047,2044,2043
2058,2053,2039,2035,2059,2044,2049,2041
2056,2054,2045,2037,2046,2036,2056,2033
2053,2051,2047,2045,2055,2046,2049,2032
2048,2053,2042,2049,2054,2051,2060,2036
2045,2051,2038,2046,2050,2051,2062,2034
2046,2053,2037,2049,2048,2047,2056,2036
2055,2052,2038,2042,2047,2053,2055,2034
2052,2049,2039,2040,2051,2057,2039,2030
2042,2041,2036,2037,2036,2054,2044,2027
2033,2037,2037,2034,2033,2052,2038,2027
2035,2044,2043,2041,2043,2056,2050,2034
2036,2042,2035,2046,2036,2050,2061,2029
2041,2043,2031,2045,2038,2055,2054,2038
2041,2038,2020,2045,2034,2059,2060,2032
2045,2034,2005,2041,2036,2065,2065,2041
2036,2026,1989,2038,2041,2082,2062,2042
2037,2019,1972,2040,2043,2090,2060,2050
2040,2020,1975,2047,2042,2093,2064,2045
2037,2017,1968,2041,2050,2088,2056,2052
2043,2020,1973,2047,2051,2082,2057,2050
2044,2027,1992,2059,2068,2082,2060,2052
2042,2033,2010,2065,2072,2078,2036,2056
2047,2037,2016,2070,2070,2081,2039,2057
2048,2034,2005,2070,2077,2072,2046,2053
2048,2031,2010,2077,2071,2054,2039,2052
2037,2026,2019,2068,2072,2040,2031,2054
2039,2034,2032,2072,2070,2021,2058,2059
2039,2036,2041,2055,2042,2004,2052,2048
2036,2033,2040,2039,2027,1987,2057,2041
2034,2026,2047,2032,2010,1994,2051,2047
2045,2036,2064,2033,2012,2003,2058,2048
2053,2047,2080,2029,2005,2014,2042,2037
2046,2050,2077,2015,1998,2029,2041,2030
2042,2061,2086,2016,2002,2034,2015,2038
2042,2069,2096,2030,2011,2041,2042,2042
2052,2072,2093,2040,2023,2053,2045,2040
2057,2074,2099,2039,2027,2062,2056,2035
2049,2068,2100,2039,2027,2065,2054,2033
2049,2068,2097,2039,2033,2064,2045,2036
2055,2068,2093,2043,2039,2058,2038,2039
2061,2064,2090,2048,2028,2027,2034,2028
2046,2058,2074,2049,2036,2019,2038,2030
2045,2055,2072,2049,2047,2031,2044,2041
2060,2062,2078,2056,2045,2043,2048,2028
2057,2063,2066,2040,2012,2060,2028,2029
2052,2061,2064,2035,1985,2067,2043,2031
2054,2062,2065,2037,1965,2065,2029,2026
2048,2060,2068,2032,1967,2053,2027,2033
2041,2062,2066,2041,2034,2025,2051,2049
2052,2065,2077,2062,2119,2000,2058,2064
2051,2071,2082,2082,2168,2016,2074,2070
2058,2066,2082,2081,2199,2042,2072,2075
2054,2068,2078,2076,2207,2066,2063,2074
2049,2065,2070,2070,2177,2075,2068,2073
2053,2063,2061,2063,2135,2076,2045,2075
2046,2050,2059,2058,2098,2076,2068,2074
2052,2056,2055,2062,2069,2067,2055,2064
2045,2047,2058,2050,1965,2042,2034,2060
2035,2045,2051,2041,1935,2032,2041,2072
2048,2056,2059,2047,1973,2029,2056,2064
2052,2055,2058,2050,1995,2027,2047,2060
2056,2052,2053,2048,2004,2022,2059,2050
2047,2054,2057,2050,2021,2021,2052,2043
2051,2058,2050,2050,2024,2016,2039,2041
2044,2045,2044,2049,2029,2015,2035,2039
2049,2049,2053,2047,2034,2024,2033,2037
2049,2049,2048,2046,2047,2024,2041,2027
2053,2056,2051,2047,2060,2041,2053,2028
2055,2057,2054,2051,2060,2042,2062,2034
2055,2052,2053,2053,2052,2056,2049,2034
2054,2054,2052,2046,2040,2071,2058,2032
2047,2052,2053,2047,2040,2075,2038,2028
2052,2052,2050,2046,2034,2070,2054,2028
2050,2049,2046,2035,2023,2056,2057,2024
2035,2037,2040,2035,2001,2022,2053,2029
2033,2040,2045,2050,2009,1996,2067,2041
2038,2044,2050,2049,2009,1998,2035,2036
2042,2041,2049,2039,2005,2011,2030,2030
2048,2047,2047,2043,2031,2030,2038,2031
2050,2044,2060,2060,2062,2050,2050,2036
2056,2057,2066,2075,2089,2064,2060,2041
2060,2060,2077,2082,2097,2071,2058,2047
2059,2058,2079,2084,2085,2064,2042,2041
2056,2051,2074,2076,2071,2054,2049,2044
2060,2052,2071,2077,2057,2043,2040,2049
2059,2047,2058,2064,2037,2043,2044,2049
2051,2048,2051,2056,2034,2044,2039,2040
2046,2045,2038,2056,2045,2041,2049,2051
2048,2044,2033,2054,2037,2033,2043,2058
2046,2045,2029,2058,2040,2036,2031,2054
2037,2042,2011,2046,2031,2039,2026,2049
2039,2039,2005,2042,2043,2052,2046,2050
2041,2042,2011,2047,2055,2060,2053,2049
2040,2043,2012,2039,2049,2057,2049,2045
2038,2039,2004,2027,2044,2050,2043,2048
2038,2037,2003,2014,2043,2051,2043,2049
2040,2037,2018,2006,2047,2052,2049,2056
2049,2044,2021,2001,2044,2055,2058,2057
2045,2044,2029,2009,2054,2055,2038,2046
2049,2042,2034,2014,2053,2054,2053,2040
2044,2037,2034,2024,2048,2053,2051,2040
2043,2035,2033,2033,2059,2059,2060,2042
2050,2038,2033,2050,2060,2054,2054,2040
2050,2044,2032,2052,2059,2055,2051,2039
2055,2049,2042,2056,2052,2052,2055,2039
2052,2051,2042,2049,2055,2059,2054,2033
2054,2052,2046,2049,2058,2052,2049,2032
2046,2038,2038,2037,2060,2052,2044,2032
2043,2038,2046,2044,2068,2061,2039,2040
2057,2062,2057,2054,2073,2068,2042,2037
2057,2058,2052,2053,2080,2067,2046,2036
2061,2053,2056,2051,2074,2066,2042,2048
2060,2053,2059,2054,2069,2063,2038,2048
2062,2059,2062,2055,2064,2057,2050,2055
2066,2055,2057,2047,2060,2047,2065,2047
2060,2051,2062,2052,2051,2040,2053,2052
2061,2051,2057,2054,2044,2030,2053,2050
2060,2053,2057,2051,2043,2035,2050,2060
2060,2049,2056,2048,2041,2031,2043,2057
2056,2047,2057,2052,2034,2030,2036,2060
2051,2049,2061,2045,2021,2024,2027,2061
2046,2048,2063,2042,2010,2026,2033,2066
2046,2040,2055,2036,2016,2031,2032,2066
2049,2043,2053,2031,2022,2029,2031,2059
2034,2034,2042,2030,2045,2032,2038,2056
2040,2041,2050,2044,2069,2050,2040,2061
2050,2048,2055,2048,2064,2052,2032,2055
2043,2046,2054,2046,2053,2049,2034,2046
2051,2042,2049,2040,2050,2056,2047,2050
2054,2040,2043,2037,2056,2057,2036,2046
2051,2042,2045,2044,2052,2065,2055,2050
2051,2050,2051,2045,2061,2059,2063,2046
2053,2058,2049,2047,2060,2064,2062,2050
2057,2053,2051,2050,2057,2064,2066,2040
2052,2050,2046,2044,2057,2057,2053,2036
2052,2051,2041,2048,2052,2052,2059,2031
2050,2050,2038,2050,2049,2050,2054,2039
2051,2051,2046,2048,2056,2046,2062,2037
2052,2046,2043,2045,2053,2048,2060,2032
2061,2047,2041,2048,2053,2054,2063,2038
2056,2039,2032,2035,2045,2047,2060,2031
2047,2037,2028,2036,2042,2044,2034,2026
2047,2039,2035,2045,2052,2049,2031,2031
2042,2047,2039,2044,2059,2044,2056,2034
2049,2049,2044,2047,2054,2044,2054,2032
2049,2046,2044,2047,2045,2036,2056,2030
2044,2040,2041,2042,2042,2038,2043,2030
2042,2039,2034,2046,2046,2044,2042,2031
2039,2046,2038,2048,2047,2048,2048,2040
2048,2047,2047,2052,2055,2061,2040,2049
2047,2051,2049,2049,2057,2077,2067,2054
2050,2045,2057,2056,2058,2077,2073,2060
2050,2049,2061,2055,2049,2064,2064,2058
2049,2044,2059,2048,2047,2067,2056,2055
2054,2044,2056,2047,2056,2069,2056,2062
2060,2054,2064,2051,2058,2060,2034,2070
2060,2054,2058,2047,2054,2049,2044,2066
2057,2034,2043,2039,2041,2041,2044,2064
2040,2030,2031,2031,2036,2044,2031,2067
2031,2028,2028,2030,2042,2063,2035,2066
2040,2040,2034,2037,2043,2074,2058,2068
2052,2048,2042,2043,2055,2084,2060,2060
2048,2048,2048,2041,2047,2093,2063,2048
2037,2041,2051,2041,2039,2079,2055,2035
2033,2037,2053,2033,2019,2037,2046,2027
2042,2047,2054,2036,2019,1989,2030,2032
2048,2051,2058,2035,2024,1976,2040,2039
2056,2056,2054,2036,2035,1991,2020,2040
2059,2064,2056,2032,2036,2011,2033,2035
2059,2064,2053,2027,2044,2014,2016,2030
2060,2065,2051,2030,2047,2019,2012,2023
2055,2063,2052,2028,2043,2023,2024,2022
2052,2059,2048,2032,2046,2035,2039,2022
2050,2059,2046,2034,2048,2039,2043,2030
2046,2051,2048,2036,2054,2052,2026,2027
2051,2050,2046,2036,2054,2055,2046,2028
2049,2052,2056,2037,2063,2068,2046,2032
2053,2059,2052,2040,2067,2067,2051,2033
2059,2056,2055,2046,2066,2068,2051,2042
2055,2052,2054,2044,2057,2060,2059,2039
2055,2050,2045,2041,2058,2060,2056,2037
2048,2051,2043,2046,2060,2057,2052,2041
2046,2042,2042,2041,2053,2048,2051,2045
2046,2042,2048,2042,2047,2043,2073,2047
2047,2039,2044,2039,2045,2032,2068,2051
2048,2042,2040,2041,2043,2018,2038,2054
2046,2041,2045,2033,2033,2008,2046,2048
2040,2037,2045,2028,2026,2018,2050,2055
2040,2035,2041,2031,2030,2028,2065,2059
2037,2042,2044,2037,2027,2031,2048,2056
2036,2034,2042,2034,2035,2032,2053,2056
2038,2037,2041,2037,2035,2035,2046,2064
2052,2054,2052,2042,2040,2039,2052,2053
2048,2049,2048,2036,2038,2049,2053,2051
2043,2049,2044,2031,2034,2068,2038,2044
2056,2048,2045,2030,2032,2076,2062,2053
2054,2046,2040,2028,2026,2069,2058,2056
2053,2051,2048,2028,2025,2042,2035,2062
2059,2057,2055,2042,2037,2003,2042,2054
2053,2055,2053,2047,2053,1996,2053,2044
2055,2054,2056,2040,2058,2018,2054,2037
2047,2043,2045,2035,2033,2022,2054,2026
2047,2039,2038,2021,2029,2032,2044,2027
2049,2042,2036,2022,2044,2043,2043,2028
2053,2038,2041,2031,2063,2059,2047,2028
2057,2047,2042,2033,2067,2066,2060,2022
2055,2039,2036,2031,2062,2069,2050,2028
2050,2033,2041,2028,2050,2080,2037,2028
2052,2046,2052,2031,2058,2095,2042,2039
2059,2049,2055,2034,2067,2094,2046,2033
2059,2048,2051,2039,2070,2096,2061,2034
2059,2047,2050,2040,2058,2098,2068,2044
2060,2045,2054,2042,2094,2097,2078,2050
2054,2052,2059,2049,2114,2097,2071,2049
2063,2055,2057,2046,2109,2069,2070,2052
2061,2056,2057,2053,2106,2050,2060,2058
2059,2054,2064,2055,2078,2035,2048,2056
2051,2052,2059,2051,2056,2028,2053,2065
2054,2051,2057,2051,2067,2010,2062,2074
2064,2052,2054,2043,2060,1998,2047,2079
2063,2046,2056,2029,2039,1983,2030,2076
2055,2043,2048,2022,2014,1972,2018,2079
2051,2051,2049,2026,2038,1993,2014,2073
2053,2046,2041,2034,2036,2023,2016,2066
2051,2043,2046,2039,2039,2052,2007,2067
2062,2049,2052,2040,2041,2061,2014,2062
2058,2042,2050,2039,2038,2050,2027,2055
2047,2047,2046,2034,2030,2028,2025,2042
2048,2049,2050,2037,2030,2033,2028,2040
2043,2048,2051,2036,2027,2047,2032,2024
2050,2047,2046,2034,2029,2045,2035,2026
2051,2043,2045,2035,2027,2039,2029,2013
2043,2043,2045,2036,2034,2050,2010,2008
2045,2040,2050,2036,2048,2051,2031,2003
2046,2046,2057,2033,2060,2061,2035,2008
2044,2048,2057,2034,2065,2067,2048,2009
2045,2050,2058,2042,2073,2058,2053,2012
2050,2054,2053,2042,2064,2037,2047,2019
2050,2047,2056,2042,2055,2025,2040,2020
2037,2041,2052,2036,2046,2007,2032,2015
2044,2036,2039,2032,2045,2003,2050,2023
2052,2043,2047,2032,2049,2007,2024,2028
2044,2037,2042,2038,2057,2021,2032,2031
2047,2039,2047,2039,2066,2030,2043,2033
2054,2044,2046,2038,2067,2031,2031,2040
2055,2036,2038,2035,2065,2036,2036,2030
2051,2037,2030,2031,2054,2046,2024,2033
2049,2031,2035,2025,2040,2058,2021,2038
2038,2030,2032,2023,2031,2062,2030,2035
2037,2036,2039,2023,2017,2053,2026,2031
2035,2035,2039,2021,2000,2025,2014,2039
2038,2030,2038,2028,2020,2008,2025,2049
2033,2042,2046,2039,2059,2019,2033,2050
2034,2045,2051,2057,2091,2051,2033,2051
2042,2041,2044,2059,2116,2075,2045,2051
2037,2030,2036,2047,2106,2077,2042,2046
2032,2026,2039,2043,2084,2070,2032,2052
2044,2044,2052,2044,2089,2066,2053,2060
2049,2051,2060,2048,2119,2068,2047,2058
2056,2054,2061,2054,2139,2072,2046,2055
2053,2056,2056,2059,2162,2077,2054,2052
2054,2053,2064,2063,2170,2078,2040,2055
2062,2050,2065,2061,2161,2077,2052,2062
2064,2067,2072,2061,2139,2058,2064,2058
2073,2074,2075,2051,2114,2044,2056,2050
2071,2072,2072,2055,2082,2041,2039,2052
2064,2066,2065,2050,2060,2052,2038,2037
2061,2051,2058,2038,1993,2050,2042,2034
2057,2053,2059,2032,1931,2048,2058,2034
2050,2052,2065,2039,1954,2043,2049,2028
2057,2057,2060,2031,1956,2035,2050,2029
2051,2054,2057,2025,1953,2017,2032,2021
2043,2039,2042,2025,1966,2012,2035,2019
2042,2036,2040,2025,1981,2031,2034,2029
2051,2051,2048,2034,2022,2053,2032,2036
2050,2048,2057,2055,2061,2065,2039,2028
2049,2050,2055,2049,2081,2081,2054,2035
2049,2044,2052,2056,2090,2091,2050,2035
2047,2044,2053,2057,2078,2080,2054,2027
2060,2045,2056,2049,2065,2072,2056,2034
2052,2048,2054,2046,2071,2076,2058,2050
2051,2043,2058,2046,2069,2086,2036,2053
2048,2044,2051,2046,2066,2070,2059,2050
2042,2040,2045,2035,2047,2058,2043,2043
2039,2034,2041,2037,2052,2070,2047,2049
2037,2030,2031,2049,2068,2099,2060,2056
2035,2036,2027,2039,2070,2098,2049,2066
2041,2032,2021,2035,2066,2102,2042,2061
2037,2024,2020,2032,2058,2107,2056,2057
2035,2028,2022,2036,2063,2100,2054,2060
2045,2045,2028,2041,2065,2047,2041,2055
2044,2042,2023,2039,2061,2037,2033,2047
2046,2031,2022,2044,2052,2035,2024,2047
2042,2030,2019,2039,2044,2048,2021,2044
2038,2025,2023,2037,2041,2054,2044,2039
2038,2026,2016,2035,2046,2035,2041,2027
2038,2022,2012,2037,2043,2026,2040,2027
2039,2028,2025,2033,2036,2021,2040,2020
2041,2032,2022,2038,2029,2028,2025,2019
2041,2032,2029,2034,2035,2035,2049,2021
2034,2036,2035,2039,2033,2036,2024,2022
2042,2034,2040,2040,2022,2034,2004,2015
2040,2039,2045,2035,2005,2016,1998,2009
2038,2039,2042,2030,1988,1999,2010,2014
2032,2033,2048,2027,1980,1989,2018,2015
2031,2033,2060,2032,1997,2005,2027,2017
2038,2037,2062,2031,2013,2018,2030,2020
2044,2043,2070,2038,2035,2038,2035,2033
2048,2054,2079,2046,2042,2036,2030,2048
2058,2055,2072,2045,2050,2041,2034,2047
2065,2058,2076,2051,2069,2051,2034,2059
2060,2069,2084,2058,2086,2057,2048,2049
2062,2069,2097,2055,2069,2043,2049,2047
2060,2074,2097,2050,2056,2035,2034,2044
2058,2070,2094,2054,2057,2035,2039,2044
2052,2063,2086,2047,2049,2036,2024,2042
2045,2054,2075,2044,2045,2037,2025,2043
2043,2054,2077,2048,2037,2035,2034,2049
2048,2056,2086,2051,2041,2046,2036,2058
2047,2060,2088,2054,2050,2060,2046,2053
2047,2055,2080,2051,2055,2060,2035,2053
2047,2046,2074,2044,2046,2052,2042,2060
2057,2055,2075,2041,2048,2046,2042,2066
2051,2054,2071,2046,2049,2044,2034,2059
2051,2053,2070,2043,2053,2047,2045,2051
2052,2051,2072,2046,2051,2049,2037,2055
2059,2060,2071,2052,2065,2046,2043,2048
2052,2052,2071,2047,2069,2043,2029,2049
2055,2061,2071,2053,2064,2052,2031,2046
2055,2056,2069,2051,2064,2054,2033,2044
2052,2053,2058,2050,2054,2053,2045,2038
2049,2044,2058,2045,2054,2060,2050,2036
2049,2041,2054,2042,2053,2060,2053,2032
2048,2047,2056,2040,2050,2063,2054,2033
2047,2042,2058,2048,2053,2061,2056,2034
2049,2045,2059,2041,2054,2056,2055,2036
2050,2047,2056,2036,2045,2056,2060,2033
2041,2030,2046,2042,2054,2046,2055,2029
2037,2027,2047,2038,2067,2069,2057,2036
2047,2043,2054,2044,2071,2083,2053,2034
2045,2056,2059,2052,2077,2087,2056,2035
2046,2055,2059,2053,2076,2080,2063,2038
2051,2056,2061,2049,2074,2084,2060,2039
2045,2055,2060,2053,2074,2086,2056,2041
2048,2050,2071,2064,2068,2093,2062,2050
2046,2043,2078,2071,2071,2103,2046,2039
2036,2038,2068,2072,2069,2089,2045,2038
2033,2035,2067,2068,2064,2073,2046,2043
2043,2036,2058,2074,2056,2049,2043,2047
2040,2031,2051,2082,2060,2030,2044,2050
2040,2031,2037,2076,2043,2016,2030,2054
2041,2027,2023,2065,2037,2008,2032,2047
2040,2026,2003,2051,2031,2003,2017,2050
2036,2013,1987,2034,2004,1998,2015,2049
2038,2008,1973,2035,2005,2012,2012,2056
2036,2013,1979,2035,2014,2031,2011,2047
2035,2010,1979,2043,2029,2043,2030,2042
2034,2016,1969,2047,2037,2043,2017,2032
2035,2009,1958,2033,2045,2051,2015,2027
2023,2008,1941,2018,2047,2051,2002,2020
2024,2008,1937,2008,2053,2049,2036,2036
2037,2012,1939,1996,2052,2044,2029,2044
2041,2016,1948,1984,2037,2031,2038,2038
2050,2030,1979,1984,2036,2034,2042,2040
2056,2049,2019,2004,2056,2044,2053,2046
2061,2054,2040,2028,2067,2052,2057,2035
2054,2062,2055,2046,2062,2055,2050,2030
2054,2064,2066,2057,2064,2049,2035,2024
2053,2059,2071,2058,2056,2040,2059,2025
2048,2052,2071,2050,2043,2028,2044,2018
2043,2047,2080,2036,2032,2032,2051,2029
2053,2062,2085,2033,2033,2042,2072,2034
2051,2067,2107,2027,2037,2043,2073,2035
2048,2069,2120,2020,2038,2047,2060,2037
2047,2072,2137,2033,2044,2046,2051,2048
2056,2081,2153,2032,2039,2056,2044,2044
2064,2083,2149,2035,2045,2060,2033,2057
2064,2078,2129,2032,2047,2064,2033,2056
2062,2075,2107,2036,2041,2063,2055,2062
2062,2072,2092,2047,2052,2068,2068,2068
2055,2074,2093,2042,2057,2065,2059,2064
2057,2066,2084,2048,2062,2069,2042,2057
2059,2068,2082,2042,2057,2070,2044,2058
2055,2062,2076,2041,2062,2070,2043,2066
2058,2058,2072,2038,2051,2063,2040,2062
2056,2050,2064,2031,2043,2045,2013,2051
2042,2041,2054,2030,2045,2029,1995,2048
2043,2040,2056,2034,2042,2036,2005,2054
2052,2043,2059,2033,2052,2045,2030,2052
2044,2051,2058,2038,2047,2048,2036,2041
2048,2052,2059,2042,2051,2047,2050,2044
2048,2050,2058,2043,2052,2055,2051,2042
2043,2050,2058,2042,2053,2049,2063,2035
2044,2054,2050,2043,2054,2052,2058,2036
2039,2049,2057,2051,2063,2053,2078,2029
2044,2050,2058,2053,2054,2053,2065,2027
2050,2048,2060,2052,2056,2049,2063,2034
2051,2050,2058,2050,2058,2042,2054,2030
2046,2044,2054,2047,2059,2045,2052,2029
2050,2038,2055,2046,2058,2058,2046,2029
2049,2041,2052,2047,2053,2056,2066,2033
2054,2041,2049,2050,2050,2046,2046,2024
2049,2033,2058,2067,2045,2027,2035,2030
2054,2043,2074,2078,2046,2017,2037,2042
2068,2058,2092,2095,2049,2027,2040,2042
2070,2053,2086,2091,2055,2030,2034,2045
2063,2056,2088,2093,2032,2032,2041,2040
2055,2050,2077,2084,2039,2056,2058,2035
2055,2047,2068,2083,2049,2077,2059,2033
2051,2042,2058,2078,2043,2078,2055,2021
2051,2046,2047,2063,2042,2063,2049,2031
2046,2044,2040,2069,2061,2028,2049,2038
2051,2047,2044,2072,2077,2024,2068,2046
2052,2049,2040,2077,2085,2037,2064,2041
2049,2056,2034,2071,2075,2055,2046,2047
2045,2045,2031,2050,2051,2066,2046,2047
2039,2039,2027,2032,2038,2055,2042,2054
2039,2036,2023,2003,2031,2040,2018,2039
2026,2029,2018,1989,2028,2050,2028,2045
2032,2027,2013,1981,2022,2060,2028,2057
2045,2042,2018,1987,2025,2069,2055,2056
2039,2032,2012,1980,2035,2091,2059,2053
2041,2028,2009,1986,2035,2093,2067,2052
2040,2029,2023,2001,2042,2074,2074,2044
2049,2037,2034,2016,2038,2056,2064,2041
2047,2041,2044,2025,2044,2020,2060,2050
2053,2037,2038,2031,2067,2014,2046,2043
2046,2034,2040,2026,2073,2020,2057,2030
2047,2034,2031,2025,2074,2033,2061,2024
2044,2037,2031,2031,2054,2039,2050,2031
2046,2036,2038,2027,2042,2039,2051,2024
2043,2040,2044,2025,2036,2036,2039,2024
2040,2045,2049,2024,2043,2048,2048,2019
2033,2038,2042,2031,2056,2053,2045,2007
2029,2029,2036,2026,2060,2056,2047,2016
2036,2031,2041,2031,2069,2075,2064,2039
2052,2043,2049,2047,2079,2079,2065,2046
2052,2048,2045,2041,2076,2072,2073,2042
2064,2048,2048,2047,2079,2062,2081,2034
2053,2046,2049,2049,2074,2052,2063,2030
2053,2047,2041,2048,2069,2032,2051,2037
2042,2047,2036,2044,2072,2025,2038,2041
2037,2042,2035,2050,2067,2030,2051,2043
2042,2038,2030,2040,2066,2033,2049,2049
2044,2038,2027,2030,2048,2040,2062,2046
2046,2042,2025,2026,2008,2047,2062,2055
2052,2037,2022,2021,2020,2050,2059,2064
2049,2042,2031,2029,2041,2059,2066,2064
2050,2052,2031,2036,2043,2065,2067,2062
2051,2045,2032,2031,2046,2079,2066,2059
2044,2035,2024,2021,2020,2090,2046,2052
2040,2035,2019,2019,1984,2083,2046,2053
2041,2039,2028,2024,2010,2080,2043,2055
2035,2036,2033,2033,2039,2062,2021,2057
2039,2047,2043,2045,2056,2046,2038,2057
2052,2053,2045,2056,2087,2050,2054,2059
2062,2057,2060,2064,2078,2056,2051,2064
2064,2060,2050,2057,2058,2031,2057,2060
2066,2051,2045,2059,2047,2004,2040,2046
2066,2047,2046,2050,2015,1997,2035,2033
2053,2045,2046,2032,1955,1982,2015,2024
2048,2043,2052,2025,1950,1967,2009,2021
2039,2034,2046,2024,1968,1972,1980,2013
2034,2025,2036,2021,1982,1974,2000,2018
2042,2021,2039,2038,2022,1991,2021,2018
2040,2025,2052,2061,2079,2018,2028,2024
2050,2032,2064,2081,2114,2055,2057,2031
2060,2050,2082,2104,2136,2087,2074,2036
2063,2068,2094,2107,2119,2083,2063,2027
2057,2066,2092,2109,2103,2073,2056,2029
2062,2057,2082,2106,2133,2068,2027,2025
2060,2048,2066,2105,2146,2077,2049,2034
2053,2043,2052,2103,2155,2075,2046,2041
2049,2042,2040,2102,2152,2066,2040,2030
2054,2040,2039,2099,2149,2062,2034,2030
2045,2042,2042,2091,2130,2066,2038,2037
2049,2042,2047,2093,2121,2073,2044,2043
2046,2038,2049,2091,2106,2075,2050,2040
2040,2041,2037,2083,2082,2072,2037,2045
2035,2022,2005,2050,1992,2043,2035,2042
2023,2009,1987,2006,1903,2027,2031,2043
2026,2011,1981,1983,1933,2029,2021,2045
2023,2009,1986,1979,1972,2026,2015,2052
2025,2020,2009,1987,2008,2039,2037,2060
2048,2041,2016,1986,2014,2049,2052,2061
2057,2044,2019,1987,2016,2053,2058,2062
2059,2046,2030,1992,2024,2063,2060,2063
2057,2049,2049,2015,2029,2060,2040,2060
2056,2055,2063,2031,2025,2058,2038,2052
2057,2057,2067,2039,2009,2047,2053,2033
2055,2051,2057,2043,2002,2035,2046,2022
2044,2037,2037,2028,2000,2045,2038,2017
2045,2031,2025,2032,2024,2056,2047,2028
2048,2029,2021,2048,2053,2077,2064,2042
2051,2036,2018,2053,2056,2072,2053,2034
2055,2037,2006,2047,2052,2058,2043,2029
2054,2038,2014,2058,2036,2048,2050,2028
2049,2038,2031,2071,2039,2049,2057,2024
2053,2027,2031,2066,2038,2037,2035,2018
2041,2019,2026,2063,2045,2027,2025,2018
2032,2034,2036,2080,2063,2042,2036,2019
2035,2038,2049,2083,2080,2052,2020,2010
2040,2041,2043,2080,2098,2050,2039,2017
2047,2042,2041,2074,2086,2056,2056,2026
2054,2049,2045,2070,2058,2063,2047,2027
2057,2061,2056,2072,2047,2065,2050,2033
2061,2062,2052,2069,2054,2057,2050,2043
2056,2060,2057,2071,2053,2058,2037,2047
2052,2062,2055,2072,2054,2056,2052,2045
2048,2050,2062,2066,2045,2049,2027,2043
2044,2035,2053,2035,2032,2037,2028,2053
2029,2023,2037,2000,2005,2030,2027,2047
2024,2013,2048,1988,1994,2027,2035,2046
2033,2041,2080,1998,2010,2039,2045,2058
2047,2063,2100,1997,2018,2040,2038,2058
2058,2079,2106,2002,2015,2056,2045,2058
2060,2080,2111,2027,2041,2067,2040,2070
2070,2080,2108,2038,2044,2069,2062,2063
2062,2072,2095,2037,2047,2077,2058,2052
2061,2061,2090,2036,2042,2089,2051,2056
2060,2056,2087,2036,2044,2097,2043,2044
2064,2064,2078,2045,2037,2098,2047,2042
2059,2062,2085,2045,2039,2098,2046,2043
2065,2066,2089,2056,2050,2097,2036,2042
2072,2069,2085,2055,2053,2092,2058,2038
2070,2064,2081,2055,2053,2094,2051,2039
2067,2060,2080,2053,2055,2087,2067,2039
2067,2063,2080,2070,2050,2070,2062,2027
2065,2056,2082,2077,2047,2058,2063,2021
2051,2055,2087,2085,2047,2023,2049,2023
2053,2048,2084,2074,2039,1990,2034,2024
2042,2042,2082,2082,2031,1983,2035,2021
2036,2042,2078,2092,2038,2014,2041,2028
2042,2050,2078,2087,2034,2028,2056,2031
2040,2048,2059,2078,2035,2044,2064,2032
2046,2044,2040,2076,2033,2051,2056,2028
2038,2037,2024,2069,2033,2051,2053,2026
2035,2025,2011,2058,2032,2044,2053,2026
2037,2024,2012,2054,2037,2045,2052,2029
2031,2027,2017,2055,2045,2050,2047,2037
2041,2032,2017,2055,2048,2051,2051,2035
2041,2030,2011,2048,2055,2049,2050,2042
2035,2022,2008,2036,2054,2043,2035,2039
2029,2020,2011,2032,2054,2046,2034,2038
2032,2022,2025,2032,2057,2052,2033,2054
2042,2030,2034,2035,2057,2060,2046,2062
2047,2038,2049,2042,2043,2048,2048,2057
2040,2035,2055,2048,2039,2045,2044,2056
2034,2043,2062,2051,2041,2051,2056,2051
2044,2049,2069,2059,2042,2058,2064,2057
2044,2056,2063,2059,2039,2044,2065,2060
2049,2054,2050,2053,2033,2044,2058,2056
2049,2042,2024,2027,2020,2034,2039,2052
2047,2034,2015,2008,2026,2027,2040,2039
2046,2032,2013,1982,2030,2025,2045,2046
2046,2029,2023,1975,2028,2026,2049,2039
2052,2045,2042,1988,2038,2024,2044,2035
2044,2057,2060,2021,2051,2032,2052,2032
2040,2062,2092,2053,2053,2038,2056,2022
2042,2062,2099,2064,2046,2046,2054,2029
2045,2060,2094,2074,2055,2056,2063,2029
2051,2057,2093,2081,2061,2052,2061,2035
2060,2055,2087,2083,2055,2058,2062,2034
2051,2053,2071,2082,2057,2057,2054,2034
2056,2057,2066,2095,2064,2070,2066,2038
2061,2055,2061,2094,2068,2068,2065,2026
2052,2058,2041,2084,2068,2064,2062,2024
2053,2049,2026,2085,2074,2065,2058,2034
2048,2042,2005,2076,2060,2062,2072,2035
2049,2039,1994,2068,2055,2062,2076,2044
2047,2045,1981,2052,2043,2060,2077,2044
2046,2040,1967,2028,2038,2049,2074,2046
2043,2039,1953,1996,2033,2046,2071,2057
2045,2032,1953,1984,2033,2052,2080,2058
2044,2035,1953,1972,2039,2053,2076,2068
2048,2028,1949,1969,2036,2057,2076,2066
2044,2024,1950,1960,2033,2055,2067,2068
2048,2031,1966,1972,2029,2057,2060,2073
2051,2032,1979,1977,2018,2044,2055,2070
2042,2034,2002,1995,2015,2046,2031,2064
2045,2056,2031,2006,2024,2045,2044,2063
2057,2063,2045,2026,2035,2047,2060,2061
2057,2070,2068,2031,2045,2045,2050,2055
2066,2082,2081,2036,2039,2039,2038,2055
2066,2080,2073,2037,2043,2035,2046,2053
2061,2070,2074,2046,2042,2043,2055,2049
2060,2065,2067,2048,2050,2054,2061,2045
2061,2064,2074,2049,2045,2052,2054,2039
2059,2063,2074,2051,2042,2052,2063,2033
2052,2062,2061,2047,2041,2045,2056,2025
2042,2054,2042,2041,2038,2037,2049,2030
2046,2051,2026,2041,2037,2036,2054,2031
2057,2053,2019,2038,2043,2029,2039,2032
2058,2058,2021,2032,2034,2031,2042,2033
2052,2054,2013,2025,2023,2020,2045,2032
2049,2047,2008,2020,2017,2018,2043,2029
2046,2041,2009,2012,2018,2056,2048,2028
2055,2046,2012,2017,2039,2076,2061,2026
2049,2043,2010,2016,2047,2070,2045,2026
2048,2041,2002,2019,2041,2060,2039,2030
2050,2041,2001,2030,2048,2035,2012,2043
2058,2050,2018,2044,2061,2024,2051,2052
2057,2053,2031,2051,2068,2042,2051,2050
2061,2055,2053,2050,2045,2052,2067,2049
2057,2057,2061,2042,2036,2050,2054,2051
2046,2053,2079,2060,2033,2044,2061,2050
2051,2069,2116,2077,2049,2045,2054,2060
2054,2072,2120,2075,2048,2041,2027,2056
2049,2064,2116,2073,2024,2031,2046,2056
2047,2063,2095,2071,2000,2027,2040,2064
2041,2057,2088,2063,1977,2026,2027,2057
2035,2042,2073,2059,1961,2029,2033,2052
2028,2042,2072,2060,1967,2036,2040,2051
2043,2057,2086,2069,1971,2050,2043,2052
2050,2056,2090,2082,1970,2035,2048,2051
2056,2068,2085,2090,1987,2026,2060,2047
2046,2058,2068,2079,1980,2024,2034,2043
2044,2053,2054,2061,1956,2014,2032,2036
2045,2053,2052,2073,2055,2013,2062,2048
2052,2059,2056,2104,2168,2034,2068,2056
2058,2050,2048,2110,2211,2045,2051,2051
2052,2044,2028,2101,2200,2061,2067,2047
2050,2026,1999,2060,2141,2061,2062,2040
2046,2024,1981,2034,2078,2038,2049,2025
2038,2021,1973,2004,2012,2017,2038,2009
2031,2023,1981,1975,1947,2013,2032,2017
2039,2037,1984,1963,1955,2016,2049,2020
2051,2043,1995,1971,2027,2045,2046,2029
2057,2042,1985,1985,2058,2065,2044,2030
2060,2051,1990,1996,2063,2052,2051,2028
2050,2046,2012,2014,2058,2051,2056,2032
2045,2058,2036,2012,2045,2052,2063,2041
2048,2065,2045,2023,2049,2053,2064,2036
2049,2058,2055,2030,2043,2046,2045,2040
2041,2050,2062,2044,2027,2039,2048,2033
2034,2060,2081,2052,2020,2040,2066,2034
2036,2070,2101,2070,2034,2052,2070,2041
2050,2081,2113,2087,2041,2057,2061,2049
2046,2077,2112,2094,2053,2050,2045,2052
2044,2069,2108,2085,2056,2044,2051,2056
2046,2078,2107,2079,2072,2041,2056,2062
2044,2076,2099,2061,2065,2044,2052,2065
2039,2072,2096,2054,2052,2045,2041,2057
2040,2062,2084,2052,2057,2051,2040,2062
2040,2066,2076,2053,2062,2062,2048,2074
2046,2061,2060,2047,2074,2070,2069,2067
2050,2051,2054,2041,2136,2073,2057,2064
2045,2048,2045,2038,2155,2074,2068,2056
2038,2040,2049,2032,2156,2059,2050,2054
2042,2044,2056,2039,2125,2055,2054,2051
2044,2048,2062,2048,2121,2045,2048,2039
2043,2053,2061,2061,2116,2040,2047,2029
2034,2043,2065,2061,2108,2050,2047,2035
2034,2052,2070,2073,2106,2058,2063,2038
2040,2057,2076,2089,2064,2052,2033,2041
2046,2061,2064,2078,1944,2037,2050,2039
2044,2056,2056,2057,1897,2040,2047,2045
2049,2057,2047,2062,1920,2036,2043,2039
2050,2055,2040,2051,1926,2031,2047,2038
2048,2050,2035,2059,1970,2037,2050,2038
2052,2056,2046,2075,1996,2041,2064,2046
2058,2076,2068,2088,2024,2039,2068,2049
2065,2083,2077,2083,2047,2043,2077,2051
2067,2081,2067,2080,2085,2060,2080,2051
2067,2076,2053,2058,2077,2065,2059,2050
2067,2074,2058,2044,2059,2055,2058,2049
2061,2070,2056,2035,2035,2057,2044,2050
2056,2069,2049,2020,2029,2063,2061,2054
2053,2057,2032,2024,2051,2076,2067,2057
2046,2049,2027,2018,2051,2080,2066,2056
2045,2045,2034,2020,2023,2081,2059,2058
2044,2052,2040,2023,2019,2076,2058,2064
2052,2051,2036,2028,2025,2063,2054,2064
2048,2045,2041,2043,2005,2004,2043,2069
2043,2040,2045,2052,1994,2012,2032,2058
2037,2027,2038,2057,1989,2032,2026,2056
2038,2027,2032,2078,1992,2050,2027,2060
2045,2038,2035,2101,1983,2058,2044,2056
2053,2041,2030,2106,1997,2043,2044,2065
2057,2049,2034,2121,2026,2011,2057,2068
2063,2053,2037,2112,2050,2016,2056,2057
2053,2046,2033,2098,2088,2049,2047,2054
2054,2053,2028,2086,2116,2045,2066,2050
2056,2054,2020,2060,2046,2049,2055,2045
2051,2052,2028,2066,2046,2066,2048,2040
2048,2048,2037,2062,2087,2072,2046,2032
2049,2051,2045,2059,2090,2066,2035,2041
2057,2058,2053,2059,2086,2057,2042,2041
2061,2058,2042,2045,2069,2036,2044,2039
2052,2052,2022,2028,2041,2016,2038,2031
2048,2043,2011,2010,2023,2008,2031,2025
2037,2031,1994,2002,1957,2018,2030,2019
2040,2025,1992,2018,1967,2031,2037,2023
2039,2029,1995,2029,2107,2068,2044,2024
2043,2032,2004,2038,2139,2088,2044,2024
2047,2036,2014,2020,2108,2060,2039,2030
2048,2039,2024,2000,2105,2034,2026,2037
2053,2044,2025,1996,2092,2037,2031,2050
2052,2041,2019,1991,2070,2058,2046,2058
2053,2043,2026,2010,2128,2096,2059,2064
2057,2049,2033,2021,2169,2115,2037,2073
2063,2047,2032,2018,2155,2088,2038,2068
2048,2033,2022,1994,2130,2044,2046,2074
2042,2035,2027,1992,2046,1994,2031,2071
2042,2041,2043,1995,1918,1984,2008,2067
2044,2046,2046,2022,1937,1998,2029,2062
2048,2053,2052,2032,1953,2027,2032,2057
2037,2042,2048,2037,1947,2060,2034,2065
2040,2043,2052,2035,1960,2077,2056,2070
2048,2059,2070,2031,1871,2038,2043,2056
2044,2047,2067,2016,1814,1996,2046,2056
2047,2047,2065,2041,1932,1983,2060,2082
2050,2045,2053,2055,2054,2011,2062,2076
2049,2036,2044,2060,2064,2036,2071,2048
2040,2026,2035,2022,1993,2064,2057,2026
2039,2037,2036,2018,2006,2073,2064,2012
2037,2038,2033,2026,2046,2068,2043,2012
2037,2037,2036,2019,2061,2037,2024,2015
2037,2040,2042,2036,2058,2011,2030,2022
2046,2049,2052,2055,2076,2007,2035,2027
2047,2046,2042,2060,2048,2004,2054,2029
2045,2046,2056,2053,2011,2015,2049,2029
2045,2050,2050,2060,1994,2017,2041,2019
2037,2029,2031,2030,1972,2004,2026,2012
2036,2027,2029,2051,2032,2039,2052,2034
2057,2053,2047,2074,2123,2062,2057,2050
2070,2055,2046,2071,2106,2070,2052,2051
2067,2057,2050,2060,2036,2098,2066,2046
2066,2053,2050,2056,2017,2097,2064,2044
2053,2052,2057,2056,2060,2084,2031,2038
2056,2058,2058,2058,2079,2071,2026,2046
2064,2058,2050,2067,2089,2042,2041,2049
2065,2056,2045,2067,2098,2030,2041,2055
2066,2064,2058,2061,2105,2042,2034,2056
2059,2066,2060,2063,2086,2048,2043,2048
2052,2062,2052,2058,2088,2052,2047,2056
2059,2060,2054,2050,2081,2053,2041,2061
2064,2054,2050,2052,2077,2046,2044,2067
2058,2052,2051,2044,2078,2043,2025,2060
2045,2057,2055,2027,2046,2035,2024,2065
2040,2060,2047,2007,2010,2041,2028,2069
2055,2071,2058,2007,2065,2061,2028,2072
2058,2072,2054,2018,2126,2085,2046,2071
2059,2069,2046,2023,2137,2088,2059,2063
2066,2066,2053,2038,2177,2091,2051,2073
2070,2073,2054,2051,2180,2104,2070,2076
2080,2079,2060,2058,2230,2133,2084,2077
2081,2078,2060,2069,2253,2137,2090,2070
2080,2070,2052,2061,2206,2102,2077,2066
2064,2055,2030,2046,2112,2042,2053,2059
2060,2044,2020,2015,1931,2004,2048,2061
2061,2045,2017,2021,1901,2019,2050,2050
2064,2056,2032,2045,1985,2054,2059,2046
2073,2059,2039,2026,1915,2043,2065,2043
2070,2063,2034,1977,1762,2028,2045,2035
2064,2048,2024,1980,1839,2018,2027,2020
2043,2029,2015,2000,1913,2033,2021,2010
2030,2031,2026,2042,2065,2068,2049,2016
2019,2027,2038,2078,2176,2085,2054,2022
2017,2024,2037,2082,2126,2071,2052,2024
2019,2031,2043,2058,2021,2053,2068,2037
2027,2034,2047,2048,1977,2050,2074,2047
2044,2047,2055,2056,2049,2072,2079,2059
2045,2051,2063,2064,2112,2074,2078,2071
2056,2054,2065,2067,2159,2073,2091,2073
2064,2062,2081,2077,2209,2081,2089,2083
2065,2072,2083,2082,2211,2074,2088,2082
2065,2066,2083,2074,2168,2073,2075,2081
2064,2069,2074,2066,2131,2067,2045,2072
2055,2064,2060,2047,2066,2053,2038,2065
2048,2048,2048,2022,1896,2001,2021,2049
2034,2029,2028,1995,1791,1970,1992,2035
2027,2023,2026,2009,1870,1974,1997,2045
2037,2043,2045,2047,1964,1999,2013,2061
2054,2060,2066,2071,2003,1986,2034,2058
2053,2055,2051,2057,1996,1987,2030,2053
2053,2045,2038,2046,1997,2001,2031,2056
2068,2041,2046,2074,2048,2023,2055,2057
2076,2038,2037,2069,2036,2018,2036,2064
2077,2048,2039,2065,2011,2026,2039,2048
2080,2042,2041,2076,1992,2031,2043,2036
2074,2044,2047,2081,2018,2045,2030,2027
2060,2048,2045,2083,2067,2068,2045,2025
2054,2043,2049,2106,2114,2111,2067,2035
2051,2047,2057,2129,2157,2132,2074,2044
2044,2054,2064,2122,2098,2109,2068,2041
2042,2050,2053,2084,2021,2089,2061,2055
2059,2050,2045,2056,1998,2081,2061,2054
2051,2026,2024,2014,1920,2040,2022,2042
2043,2016,2028,2009,1935,2010,2024,2045
2051,2037,2039,2039,2036,2000,2028,2039
2063,2046,2048,2027,1996,1985,2031,2038
2059,2050,2041,2022,1932,1997,2030,2034
2053,2043,2039,2017,1896,2014,2034,2024
2045,2034,2044,2039,2041,2053,2030,2029
2042,2038,2049,2069,2202,2081,2040,2048
2048,2046,2048,2086,2248,2083,2038,2056
2053,2045,2049,2070,2202,2067,2040,2058
2046,2055,2052,2063,2145,2034,2048,2061
2041,2060,2057,2057,2136,2027,2047,2066
2040,2058,2054,2056,2119,2020,2040,2070
2046,2054,2050,2049,2088,1995,2056,2066
2045,2042,2041,2041,2061,2007,2039,2069
2045,2034,2032,2053,2078,2021,2043,2068
2034,2027,2024,2036,2066,2026,2039,2065
2033,2023,2033,2033,2044,2025,2036,2057
2036,2033,2037,2040,2041,2025,2039,2047
2035,2042,2054,2060,2076,2043,2043,2053
2040,2049,2052,2079,2074,2067,2043,2060
2053,2051,2048,2072,2035,2071,2044,2055
2053,2049,2050,2061,2057,2072,2052,2056
2047,2047,2055,2065,2092,2078,2048,2054
2063,2053,2055,2074,2102,2069,2046,2051
2064,2049,2052,2066,2098,2049,2055,2049
2062,2047,2051,2053,2100,2025,2023,2047
2055,2037,2043,2032,2037,1977,2015,2037
2045,2026,2035,2003,1909,1926,1998,2019
2038,2030,2046,2025,1913,1938,1994,2016
2037,2034,2048,2068,1996,1988,2019,2029
2050,2041,2050,2086,2118,2032,2027,2029
2053,2032,2056,2097,2170,2053,2033,2039
2057,2038,2062,2100,2157,2076,2047,2046
2061,2054,2072,2101,2109,2094,2060,2061
2066,2058,2079,2091,2060,2096,2059,2055
2066,2066,2064,2064,2002,2106,2048,2060
2066,2067,2066,2050,2029,2139,2056,2061
2065,2069,2060,2028,2033,2151,2020,2038
2056,2064,2050,2007,1939,2136,2040,2032
2045,2048,2042,1978,1811,2099,2032,2029
2044,2042,2038,1966,1688,1967,2009,2046
2058,2044,2044,2001,1790,1882,2016,2068
2064,2046,2053,2057,2002,1925,2026,2079
2077,2047,2058,2099,2192,2009,2044,2080
2076,2051,2053,2080,2115,2036,2038,2073
2065,2044,2045,2041,2039,2024,2025,2060
2052,2034,2037,2034,2089,2029,2018,2060
2051,2041,2040,2041,2116,2042,2031,2060
2046,2036,2039,2050,2131,2043,2019,2064
2041,2035,2036,2049,2080,2032,2007,2063
2048,2048,2040,2039,2010,2035,2025,2068
2065,2052,2053,2050,1966,1983,2014,2073
2060,2053,2047,2024,1907,1944,1988,2052
2049,2043,2030,1992,1855,1963,1995,2057
2053,2051,2038,2040,2039,2057,2026,2062
2052,2047,2042,2065,2156,2110,2051,2052
2059,2041,2030,2058,2133,2142,2066,2045
2060,2035,2030,2069,2142,2132,2050,2038
2054,2035,2032,2062,2111,2108,2040,2040
2057,2044,2052,2075,2077,2056,2072,2059
2068,2062,2068,2062,2006,2020,2084,2062
2072,2068,2066,2027,1886,2026,2078,2056
2069,2054,2058,2021,1838,2045,2054,2054
2070,2042,2049,2027,1904,2076,2059,2045
2055,2029,2032,2041,1943,2090,2032,2033
2049,2029,2040,2030,1887,2091,2055,2049
2061,2053,2061,2053,1894,2088,2061,2054
2068,2063,2066,2074,1876,2076,2045,2058
2060,2060,2062,2076,1910,2021,2047,2053
2059,2058,2054,2083,2056,2000,2040,2038
2041,2050,2057,2061,2130,1974,2036,2031
2033,2050,2055,2050,2109,1976,2033,2047
2053,2067,2071,2089,2182,2033,2031,2054
2060,2071,2070,2101,2265,2074,2015,2055
2051,2061,2061,2080,2260,2076,2029,2063
2052,2050,2060,2065,2189,2086,2023,2058
2040,2050,2072,2089,2176,2099,2034,2071
2048,2051,2081,2103,2197,2104,2032,2069
2056,2047,2093,2106,2150,2106,2051,2077
2043,2050,2090,2123,2200,2111,2040,2071
2042,2030,2087,2118,2188,2082,2033,2071
2034,2033,2074,2104,2111,2062,2044,2072
2051,2035,2077,2108,2110,2058,2043,2078
2057,2039,2060,2112,2097,2054,2071,2077
2057,2044,2046,2124,2025,2023,2041,2058
2048,2040,2038,2122,1958,2022,2024,2043
2036,2037,2037,2106,2016,2054,2027,2048
2041,2044,2041,2079,1994,2064,2045,2040
2046,2046,2026,2041,2001,2048,2027,2042
2044,2041,2016,2037,2132,2032,2030,2046
2052,2046,2024,2055,2233,2032,2053,2066
2065,2062,2032,2063,2239,2050,2072,2067
2064,2064,2033,2079,2333,2073,2084,2057
2061,2065,2020,2081,2393,2086,2073,2056
2057,2058,2014,2060,2267,2073,2058,2059
2057,2057,2009,2038,2176,2040,2045,2054
2059,2053,2012,2003,2040,1998,2023,2046
2047,2051,2017,1950,1826,1949,2001,2041
2050,2049,2011,1890,1594,1918,2019,2050
2045,2055,2026,1957,1700,1974,2033,2059
2053,2055,2037,2013,1949,2025,2052,2048
2049,2045,2029,1995,2014,2028,2043,2036
2043,2036,2025,1991,2098,2053,2057,2048
2049,2056,2045,2009,2098,2068,2060,2060
2058,2060,2039,2028,2111,2061,2048,2065
2065,2060,2047,2063,2203,2044,2059,2064
2064,2051,2049,2077,2223,2029,2012,2053
2036,2046,2044,2078,2246,2030,2008,2042
2028,2049,2054,2096,2249,2027,2013,2051
2043,2058,2068,2086,2173,2048,2033,2065
2061,2057,2065,2080,2102,2064,2022,2065
2058,2058,2051,2069,2088,2094,2044,2064
2049,2041,2047,2053,2062,2113,2046,2055
2034,2040,2049,2026,1943,2097,2055,2077
2052,2065,2068,2000,1768,2080,2044,2086
2061,2071,2066,2024,1838,2092,2067,2089
2056,2060,2060,2019,1888,2117,2066,2080
2049,2050,2047,2001,1931,2151,2053,2061
2044,2037,2045,2008,2001,2158,2038,2046
2034,2030,2037,1986,1898,2119,2006,2029
2029,2028,2025,1966,1847,2095,2006,2020
2035,2030,2028,1996,1887,2074,2034,2023
2040,2044,2041,2023,1960,1989,2032,2039
2037,2057,2058,2060,2063,1953,2048,2040
2039,2056,2072,2105,2195,2010,2056,2037
2039,2063,2072,2128,2237,2068,2074,2043
2040,2059,2070,2116,2188,2058,2056,2039
2038,2064,2066,2091,2098,2013,2031,2024
2032,2045,2049,2061,1995,1981,2021,2026
2041,2046,2042,2062,2032,2011,2029,2032
2038,2058,2042,2068,2046,2044,2047,2045
2056,2053,2040,2056,2066,2053,2051,2041
2046,2055,2033,2068,2132,2067,2055,2052
2055,2055,2029,2073,2142,2051,2049,2054
2049,2047,2014,2042,2100,2026,2044,2054
2041,2038,2003,2043,2171,2033,2027,2060
2040,2036,2003,2070,2297,2062,2027,2060
2043,2040,2011,2090,2338,2072,2025,2056
2046,2037,2010,2076,2253,2034,2003,2058
2051,2027,2002,2040,2096,2024,2003,2065
2050,2019,1999,2029,1977,2033,2007,2056
2034,2011,2002,2015,1844,2034,2004,2057
2044,2029,2026,2017,1859,2040,2012,2072
2055,2041,2042,2034,1948,2021,2007,2069
2053,2027,2041,2042,1976,1994,2007,2056
2039,2027,2041,2078,2100,2007,2016,2052
2028,2036,2054,2074,2076,1997,2027,2052
2029,2050,2062,2079,2050,2008,2051,2057
2030,2061,2071,2100,2080,2037,2042,2051
2034,2065,2082,2122,2116,2045,2045,2058
2050,2070,2104,2126,2160,2047,2044,2058
2048,2072,2100,2130,2195,2043,2047,2052
2043,2067,2083,2106,2101,2026,2025,2037
2041,2058,2068,2076,2022,2010,2037,2044
2040,2052,2059,2050,2040,2010,2035,2036
2037,2041,2040,2034,2034,2014,2026,2017
2025,2034,2036,2030,2034,2010,2031,2008
2025,2036,2038,2005,2007,1993,1993,1993
2022,2034,2031,1974,1960,1990,1981,1995
2010,2028,2033,1994,1936,2014,1994,1994
2011,2031,2034,2006,1963,2040,2030,2008
2022,2044,2047,2032,2009,2054,2036,2020
2044,2058,2065,2045,2025,2064,2050,2020
2051,2063,2075,2048,2036,2066,2047,2020
2049,2069,2077,2052,2033,2055,2052,2031
2050,2064,2079,2056,2030,2052,2051,2032
2041,2058,2080,2067,2035,2058,2044,2037
2045,2060,2076,2073,2044,2057,2068,2046
2048,2066,2074,2075,2045,2055,2065,2053
2053,2075,2081,2077,2045,2051,2065,2058
2052,2069,2076,2070,2052,2055,2068,2062
2052,2062,2074,2070,2053,2060,2077,2058
2054,2060,2072,2068,2051,2061,2065,2054
2049,2053,2064,2072,2052,2057,2047,2064
2051,2056,2057,2070,2056,2061,2060,2068
2052,2061,2058,2071,2054,2052,2031,2072
2049,2058,2053,2070,2046,2058,2006,2069
2036,2053,2043,2060,2057,2059,2028,2055
2033,2050,2036,2067,2068,2073,2039,2060
2042,2054,2033,2063,2064,2070,2047,2064
2051,2044,2030,2058,2064,2069,2041,2054
2049,2041,2021,2052,2072,2062,2040,2045
2044,2033,2021,2040,2082,2052,2057,2038
2039,2038,2017,2033,2081,2041,2040,2031
2043,2037,2007,2036,2087,2035,2046,2027
2035,2033,2008,2030,2065,2022,2033,2028
2034,2030,2000,2025,2020,2021,2048,2027
2036,2032,2009,2025,1986,2031,2018,2024
2043,2042,2015,2033,2006,2044,2040,2030
2043,2043,2017,2032,2022,2045,2040,2031
2040,2041,2015,2021,2013,2034,2042,2030
2035,2042,2020,2022,2006,2028,2017,2031
2045,2047,2047,2035,1998,2017,2010,2031
2033,2049,2058,2033,1990,2013,2017,2019
2035,2048,2059,2038,2006,2035,2046,2022
2038,2050,2069,2061,2050,2067,2061,2029
2049,2049,2064,2071,2069,2070,2062,2034
2041,2043,2053,2052,2064,2058,2049,2030
2044,2050,2052,2049,2066,2062,2043,2036
2046,2055,2058,2054,2062,2064,2048,2038
2048,2062,2058,2045,2053,2066,2062,2040
2047,2057,2051,2043,2020,2076,2056,2034
2039,2046,2038,2031,1998,2077,2052,2029
2036,2040,2024,2026,1990,2075,2045,2034
2037,2038,2022,2025,1985,2063,2041,2036
2041,2041,2016,2035,2005,2032,2024,2055
2045,2042,2017,2046,2055,2037,2043,2066
2048,2042,2028,2058,2094,2070,2064,2065
2044,2032,2021,2059,2140,2089,2056,2061
2041,2017,2021,2064,2162,2091,2064,2054
2029,2029,2027,2064,2158,2100,2040,2049
2034,2033,2017,2057,2142,2073,2052,2042
2031,2032,2009,2044,2102,2047,2037,2050
2040,2034,2001,2044,2042,2052,2045,2058
2049,2040,2006,2041,1988,2055,2046,2052
2047,2039,2002,2020,1842,2040,2050,2049
2049,2036,2004,2028,1842,2015,2041,2041
2049,2035,2009,2034,1904,1986,2046,2038
2038,2035,2014,2032,1948,1992,2040,2029
2031,2034,2022,2028,1991,2008,2042,2035
2032,2036,2039,2036,2032,2022,2029,2030
2037,2050,2059,2052,2090,2033,2032,2025
2033,2053,2069,2062,2140,2047,2046,2021
2041,2064,2093,2070,2117,2046,2028,2022
2039,2070,2111,2066,2049,2047,2011,2019
2038,2064,2106,2057,1986,2038,2025,2026
2035,2056,2093,2054,1999,2039,2050,2028
2038,2052,2088,2063,2049,2035,2041,2029
2044,2049,2084,2070,2061,2037,2026,2024
2038,2043,2088,2065,2104,2057,2036,2022
2033,2045,2080,2084,2240,2107,2050,2032
2042,2043,2076,2109,2300,2121,2050,2047
2036,2038,2068,2099,2264,2101,2050,2037
2036,2035,2056,2098,2265,2074,2036,2037
2032,2037,2059,2077,2238,2069,2030,2048
2033,2032,2045,2047,2144,2042,2016,2030
2026,2030,2036,2010,1965,2020,2028,2024
2016,2019,2026,2010,1850,2032,2042,2031
2022,2025,2027,2024,1907,2060,2061,2041
2029,2029,2035,2036,1973,2073,2063,2057
2042,2041,2042,2043,2005,2037,2047,2069
2041,2037,2051,2058,2020,2013,2055,2070
2042,2046,2050,2064,2031,2012,2041,2071
2054,2057,2049,2071,2055,2015,2037,2064
2052,2057,2058,2081,2073,2038,2044,2061
2055,2052,2061,2089,2082,2060,2045,2055
2046,2052,2059,2087,2075,2063,2053,2051
2052,2041,2056,2088,2076,2055,2037,2044
2038,2037,2057,2085,2066,2057,2016,2034
2034,2036,2047,2082,2057,2052,2024,2032
2034,2033,2040,2074,2042,2046,2029,2023
2040,2030,2038,2063,2012,2039,2054,2029
2039,2025,2022,2054,2019,2037,2041,2029
2029,2023,2021,2053,1997,2073,2050,2028
2029,2030,2031,2049,1983,2112,2049,2035
2035,2043,2047,2033,1953,2112,2047,2030
2039,2050,2062,2016,1932,2104,2037,2028
2033,2052,2057,2007,1938,2101,2059,2028
2033,2050,2059,2004,1996,2034,2068,2060
2046,2066,2065,2031,2060,2024,2084,2066
2054,2069,2061,2042,2081,2018,2086,2074
2061,2072,2067,2061,2160,2039,2102,2072
2056,2066,2063,2062,2203,2071,2102,2073
2062,2062,2059,2054,2192,2092,2112,2071
2058,2056,2062,2038,2152,2090,2101,2056
2050,2048,2055,2029,2091,2072,2067,2046
2037,2040,2054,2021,2022,2038,2057,2044
2039,2044,2060,2033,2024,2040,2059,2059
2046,2042,2056,2034,2008,2044,2047,2065
2048,2043,2060,2035,2014,2049,2052,2075
2046,2050,2061,2049,2035,2058,2049,2072
2041,2053,2069,2061,2058,2061,2058,2056
2034,2051,2063,2059,2058,2055,2040,2053
2032,2035,2048,2042,2001,2022,2006,2049
2032,2036,2041,2036,1969,1997,1999,2052
2035,2043,2047,2019,1850,1958,1998,2044
2034,2037,2037,2011,1878,1957,2007,2038
2030,2037,2039,2030,2045,1992,2008,2033
2024,2030,2029,2046,2186,2005,2006,2024
2027,2029,2028,2065,2246,2026,1993,2021
2032,2031,2045,2072,2205,2053,2015,2021
2046,2039,2045,2064,2161,2074,2025,2028
2049,2043,2046,2068,2169,2087,2042,2028
2038,2037,2046,2071,2146,2083,2046,2021
2035,2034,2050,2071,2117,2078,2039,2018
2028,2035,2045,2066,2076,2063,2033,2016
2031,2041,2053,2057,2061,2044,2022,2014
2034,2038,2052,2043,1988,2043,2025,2019
2042,2045,2047,2022,1856,2005,2030,2020
2040,2042,2040,2024,1931,1983,2029,2032
2048,2045,2053,2049,2025,2008,2048,2040
2055,2061,2058,2063,2058,2035,2063,2038
2058,2060,2056,2060,2077,2051,2066,2046
2058,2053,2053,2058,2091,2047,2065,2035
2056,2044,2048,2056,2087,2038,2059,2031
2046,2043,2048,2058,2088,2048,2052,2038
2056,2042,2050,2066,2085,2062,2052,2040
2051,2047,2052,2065,2072,2067,2059,2039
2040,2047,2049,2058,2072,2072,2058,2032
2037,2040,2046,2056,2065,2075,2050,2040
2032,2045,2049,2062,2065,2076,2060,2053
2034,2041,2052,2069,2061,2072,2064,2054
2032,2045,2050,2064,2062,2065,2050,2051
2034,2038,2039,2061,2057,2054,2023,2053
2032,2030,2042,2056,2054,2039,2031,2049
2034,2032,2038,2049,2049,2014,2024,2053
2033,2034,2040,2048,2044,2004,2047,2066
2049,2045,2045,2055,2054,2004,2064,2063
2052,2048,2042,2057,2049,1992,2065,2059
2051,2050,2042,2060,2037,1995,2049,2050
2053,2048,2042,2048,2006,2002,2029,2045
2054,2048,2041,2040,1987,2009,2055,2036
2046,2051,2046,2034,1985,2016,2047,2033
2041,2048,2050,2038,2011,2037,2049,2038
2048,2055,2057,2060,2057,2058,2057,2041
2053,2061,2061,2070,2098,2064,2050,2040
2048,2056,2059,2072,2114,2082,2055,2038
2043,2044,2048,2065,2100,2080,2054,2025
2041,2044,2038,2053,2074,2066,2042,2029
2042,2043,2039,2049,2064,2068,2051,2025
2041,2041,2031,2049,2066,2068,2045,2025
2034,2035,2028,2046,2060,2066,2031,2018
2033,2034,2031,2050,2064,2075,2053,2023
2040,2045,2036,2060,2077,2091,2062,2029
2050,2054,2042,2064,2073,2093,2054,2029
2050,2050,2044,2064,2056,2073,2074,2026
2047,2045,2039,2066,2051,2060,2051,2023
2049,2039,2040,2053,2045,2042,2031,2026
2042,2036,2047,2056,2042,2032,2026,2031
2043,2038,2046,2055,2044,2028,2046,2024
2046,2039,2052,2056,2046,2034,2064,2025
2045,2041,2055,2052,2045,2035,2057,2037
2033,2038,2062,2051,2041,2039,2053,2045
2044,2035,2064,2050,2045,2048,2054,2058
2038,2047,2074,2062,2046,2043,2066,2065
2039,2057,2080,2064,2029,2031,2048,2061
2044,2053,2079,2063,2030,2031,2044,2065
2039,2044,2064,2049,2021,2028,2038,2053
2033,2037,2053,2040,2027,2039,2043,2058
2038,2040,2051,2044,2047,2049,2049,2050
2032,2040,2047,2053,2069,2057,2053,2050
2031,2043,2045,2053,2070,2067,2055,2043
2029,2039,2038,2046,2054,2070,2061,2044
2034,2034,2032,2040,2046,2064,2069,2036
2033,2029,2025,2049,2046,2069,2049,2032
2039,2040,2028,2046,2044,2074,2045,2032
2038,2042,2032,2049,2049,2067,2066,2032
2040,2047,2035,2054,2049,2070,2054,2032
2039,2041,2037,2054,2052,2059,2057,2032
2046,2044,2036,2054,2055,2051,2062,2035
2051,2050,2039,2061,2054,2054,2050,2032
2050,2051,2042,2061,2053,2055,2049,2032
2050,2053,2040,2055,2063,2056,2047,2022
2039,2043,2029,2053,2054,2048,2033,2014
2036,2042,2032,2053,2056,2056,2036,2015
2036,2050,2048,2058,2062,2061,2057,2019
2049,2052,2047,2062,2059,2059,2053,2025
2051,2055,2048,2059,2073,2053,2042,2026
2044,2049,2049,2058,2068,2036,2032,2024
2050,2042,2050,2061,2067,2015,2028,2023
2049,2048,2052,2060,2063,2016,2065,2027
2049,2050,2045,2056,2056,2022,2057,2031
2044,2048,2044,2047,2065,2029,2035,2027
2040,2045,2045,2048,2061,2032,2051,2034
2042,2042,2041,2052,2059,2041,2054,2041
2044,2039,2041,2054,2052,2038,2048,2056
2040,2040,2035,2051,2051,2030,2039,2052
2033,2030,2030,2051,2046,2032,2041,2052
2028,2027,2020,2052,2054,2050,2062,2052
2025,2015,2016,2054,2048,2050,2070,2057
2028,2010,2017,2056,2058,2065,2076,2055
2036,2028,2034,2063,2059,2067,2074,2055
2036,2032,2039,2060,2053,2055,2056,2048
2038,2036,2044,2066,2042,2060,2047,2038
2036,2035,2050,2055,2046,2074,2031,2032
2034,2037,2049,2057,2048,2088,2026,2028
2030,2038,2046,2052,2045,2091,2040,2026
2033,2037,2045,2057,2050,2079,2035,2028
2039,2040,2056,2060,2045,2027,2045,2027
2044,2044,2056,2051,2044,2007,2030,2026
2048,2045,2057,2056,2046,2024,2042,2034
2050,2050,2061,2059,2053,2036,2058,2038
2058,2050,2060,2054,2048,2043,2061,2031
2048,2056,2055,2055,2041,2063,2059,2027
2046,2048,2049,2039,2002,2076,2046,2015
2032,2030,2032,2022,1960,2064,2036,2008
2027,2026,2030,2011,1946,2064,2043,2013
2034,2035,2036,2020,1955,2047,2028,2028
2038,2038,2045,2028,1998,2007,2046,2047
2043,2049,2050,2058,2080,2025,2057,2036
2047,2052,2053,2064,2099,2056,2066,2040
2046,2045,2046,2064,2106,2091,2056,2045
2043,2045,2044,2059,2098,2093,2060,2054
2049,2046,2040,2058,2077,2078,2061,2052
2048,2046,2052,2059,2075,2084,2060,2060
2046,2049,2051,2063,2082,2085,2055,2058
2051,2053,2054,2061,2083,2056,2056,2057
2047,2057,2049,2059,2085,2022,2029,2056
2051,2059,2050,2064,2073,2017,2016,2060
2053,2056,2046,2063,2064,2016,2034,2061
2046,2048,2046,2054,2061,2019,2042,2058
2038,2032,2033,2049,2054,2039,2024,2058
2041,2029,2031,2044,2055,2059,2029,2063
2044,2042,2042,2053,2063,2067,2062,2054
2037,2044,2047,2049,2071,2072,2071,2057
2037,2045,2053,2057,2079,2084,2085,2061
2036,2043,2056,2064,2078,2089,2088,2053
2039,2048,2057,2060,2074,2086,2072,2051
2043,2046,2057,2057,2065,2072,2081,2047
2046,2047,2051,2056,2056,2052,2082,2037
2038,2049,2060,2050,2047,2023,2063,2025
2037,2049,2057,2051,2043,2011,2063,2025
2043,2048,2056,2055,2045,2020,2079,2027
2049,2051,2056,2060,2050,2025,2072,2025
2043,2053,2056,2061,2054,2031,2051,2025
2045,2053,2061,2065,2048,2028,2053,2027
2041,2050,2066,2058,2051,2029,2046,2023
2034,2043,2065,2047,2035,2016,2043,2021
2034,2039,2060,2046,2038,2019,2038,2029
2042,2056,2064,2056,2050,2026,2063,2028
2048,2054,2062,2053,2056,2030,2065,2031
2045,2045,2056,2053,2054,2033,2086,2027
2043,2045,2050,2047,2054,2034,2074,2026
2036,2038,2047,2050,2053,2042,2071,2031
2039,2044,2053,2051,2057,2044,2065,2038
2042,2043,2058,2054,2060,2047,2076,2035
2041,2048,2059,2054,2052,2040,2062,2036
2042,2050,2051,2055,2047,2026,2044,2040
2033,2044,2053,2048,2044,2029,2021,2048
2035,2040,2049,2041,2040,2042,2038,2050
2032,2041,2044,2039,2037,2046,2067,2061
2036,2040,2047,2041,2035,2041,2075,2064
2039,2039,2046,2034,2045,2030,2066,2061
2031,2029,2038,2030,2051,2024,2064,2061
2031,2036,2043,2036,2061,2026,2060,2065
2042,2043,2050,2048,2064,2032,2057,2060
2041,2040,2043,2048,2054,2030,2054,2062
2041,2046,2052,2049,2059,2035,2051,2056
2051,2044,2047,2050,2051,2045,2072,2049
2044,2048,2055,2049,2060,2046,2075,2038
2052,2050,2053,2055,2071,2053,2053,2035
2047,2058,2056,2057,2071,2053,2038,2032
2043,2053,2052,2048,2054,2069,2054,2031
2035,2042,2045,2040,2035,2051,2055,2034
2039,2042,2045,2040,2030,2033,2057,2029
2040,2042,2046,2045,2027,2039,2052,2028
2042,2042,2039,2040,2034,2031,2034,2025
2041,2041,2044,2042,2056,2045,2023,2032
2045,2044,2047,2054,2082,2062,2044,2032
2043,2036,2045,2053,2070,2054,2028,2023
2041,2029,2039,2045,2058,2047,2018,2029
2046,2042,2044,2048,2062,2046,2058,2037
2048,2046,2046,2055,2083,2057,2054,2042
2047,2045,2042,2057,2088,2059,2057,2039
2048,2039,2042,2053,2086,2056,2055,2040
2040,2040,2035,2052,2074,2052,2058,2039
2041,2037,2035,2047,2067,2060,2061,2043
2040,2040,2037,2047,2071,2064,2063,2042
2040,2036,2034,2045,2068,2054,2047,2045
2033,2030,2040,2042,2062,2042,2057,2047
2039,2030,2038,2050,2056,2045,2062,2047
2042,2031,2039,2051,2060,2050,2058,2059
2042,2035,2039,2048,2049,2062,2064,2058
2040,2028,2038,2043,2053,2066,2058,2056
2038,2031,2043,2042,2052,2069,2052,2059
2033,2034,2045,2033,2044,2066,2052,2064
2037,2038,2052,2038,2049,2035,2045,2067
2043,2051,2069,2049,2050,2013,2055,2073
2045,2053,2072,2053,2056,2026,2054,2072
2049,2053,2066,2056,2062,2035,2052,2068
2051,2055,2070,2055,2066,2049,2059,2063
2051,2051,2063,2055,2066,2055,2067,2062
2057,2056,2054,2055,2067,2057,2072,2053
2056,2057,2050,2054,2063,2057,2051,2046
2051,2052,2049,2050,2059,2052,2053,2042
2053,2055,2048,2052,2053,2053,2060,2035
2049,2050,2057,2053,2061,2055,2052,2040
2053,2053,2060,2052,2047,2059,2050,2034
2050,2054,2059,2049,2047,2056,2048,2025
2051,2047,2056,2047,2048,2050,2046,2029
2047,2051,2056,2052,2055,2038,2022,2030
2054,2043,2043,2048,2050,2022,2020,2021
2039,2041,2042,2043,2053,2029,2038,2022
2041,2046,2050,2054,2059,2048,2057,2034
2050,2048,2052,2053,2060,2070,2061,2034
2052,2052,2048,2057,2067,2072,2067,2039
2047,2049,2052,2055,2065,2058,2061,2038
2049,2042,2053,2049,2059,2041,2054,2034
2040,2043,2044,2052,2062,2037,2059,2041
2048,2043,2044,2052,2065,2042,2057,2043
2044,2048,2047,2056,2062,2033,2066,2054
2042,2042,2044,2055,2061,2038,2053,2057
2045,2044,2049,2055,2068,2049,2057,2059
2046,2047,2045,2052,2059,2060,2075,2064
2051,2046,2044,2049,2043,2052,2063,2061
2044,2039,2043,2045,2027,2047,2053,2060
2039,2042,2044,2044,2031,2051,2057,2062
2044,2046,2040,2044,2040,2028,2071,2066
2040,2041,2039,2049,2042,2023,2056,2059
2039,2046,2044,2056,2051,2038,2051,2064
2049,2045,2043,2051,2053,2056,2058,2063
2051,2039,2043,2052,2056,2077,2064,2058
2048,2041,2042,2045,2028,2100,2053,2052
2050,2045,2039,2036,1995,2098,2035,2049
2043,2042,2043,2041,1977,2082,2040,2028
2038,2041,2041,2037,1966,2065,2022,2022
2038,2033,2040,2041,1980,2028,2039,2025
2047,2042,2046,2060,2021,2010,2047,2036
2053,2043,2049,2073,2060,2053,2041,2036
2052,2044,2048,2068,2026,2114,2046,2033
2048,2037,2040,2063,2013,2128,2042,2015
2034,2027,2030,2057,2040,2103,2029,2007
2030,2016,2022,2045,2030,2044,2010,2004
2031,2017,2028,2066,2104,1985,2032,2009
2040,2022,2030,2105,2181,1995,2030,2020
2044,2027,2054,2119,2210,2011,2062,2035
2054,2045,2067,2136,2213,2032,2058,2051
2059,2042,2069,2108,2161,2015,2077,2048
2057,2040,2063,2089,2101,2044,2073,2047
2052,2040,2062,2067,1965,2063,2052,2036
2053,2038,2062,2046,1875,2072,2059,2048
2052,2047,2058,2028,1919,2062,2057,2046
2049,2047,2048,2038,1979,2007,2068,2053
2053,2052,2049,2048,2016,1976,2047,2056
2047,2049,2046,2047,2032,1983,2044,2049
2041,2048,2049,2045,2048,1979,2034,2051
2040,2057,2052,2056,2064,1990,2024,2065
2046,2066,2066,2074,2079,1996,2036,2080
2058,2069,2067,2077,2080,2009,2043,2080
2059,2064,2054,2066,2070,2007,2063,2076
2052,2049,2036,2050,2038,2002,2061,2079
2050,2052,2047,2054,2026,2020,2042,2090
2061,2068,2057,2047,1997,2020,2051,2080
2063,2074,2058,2045,2008,2018,2040,2067
2059,2066,2051,2026,2036,2028,2039,2069
2056,2062,2047,2026,2051,2046,2047,2068
2064,2062,2048,2028,2064,2078,2076,2081
2063,2064,2052,2018,2064,2090,2069,2066
2064,2059,2047,2003,2039,2080,2065,2061
2056,2052,2036,2011,2048,2067,2045,2059
2058,2053,2043,2039,2086,2078,2047,2047
2054,2057,2046,2046,2086,2053,2077,2036
2051,2056,2043,2037,2032,2053,2064,2028
2049,2043,2037,2029,2019,2065,2055,2026
2050,2049,2042,2029,1989,2061,2066,2021
2049,2049,2042,2020,1978,2047,2046,2022
2046,2036,2034,2013,1955,2008,2040,2021
2046,2033,2028,2009,1964,1973,2042,2032
2056,2047,2036,2016,2003,1989,2062,2035
2066,2058,2044,2022,2008,1989,2059,2044
2061,2056,2049,2024,2033,2016,2067,2047
2061,2053,2052,2032,2095,2045,2051,2044
2053,2042,2045,2040,2139,2053,2048,2030
2036,2042,2037,2035,2134,2070,2049,2028
2037,2041,2045,2050,2138,2082,2056,2047
2050,2048,2047,2053,2127,2068,2063,2064
2052,2050,2049,2056,2103,2057,2047,2069
2060,2047,2048,2045,2084,2047,2050,2067
2059,2047,2048,2038,2081,2054,2044,2072
2066,2052,2043,2047,2077,2053,2052,2069
2064,2051,2044,2041,2072,2043,2055,2078
2059,2050,2043,2033,2059,2044,2045,2074
2054,2040,2026,2028,2057,2044,2039,2074
2056,2034,2028,2034,2054,2045,2069,2072
2057,2044,2037,2043,2062,2050,2067,2075
2066,2051,2040,2042,2062,2044,2061,2072
2056,2048,2035,2042,2068,2041,2087,2068
2054,2044,2035,2040,2063,2049,2064,2061
2043,2039,2034,2047,2064,2051,2053,2045
2038,2033,2032,2041,2057,2036,2048,2036
2031,2026,2022,2039,2053,2039,2042,2041
2034,2030,2022,2039,2054,2052,2047,2043
2048,2037,2021,2043,2065,2076,2046,2045
2051,2039,2025,2061,2075,2080,2046,2033
2048,2036,2030,2065,2069,2086,2033,2025
2043,2040,2044,2074,2070,2113,2045,2026
2042,2035,2039,2068,2063,2106,2047,2031
2040,2036,2034,2068,2057,2074,2041,2029
2044,2026,2030,2065,2058,2062,2047,2039
2048,2029,2025,2068,2063,2058,2061,2043
2053,2045,2031,2082,2081,2077,2063,2048
2058,2048,2028,2080,2074,2077,2066,2039
2053,2050,2027,2075,2064,2076,2048,2028
2043,2044,2017,2071,2061,2064,2057,2027
2032,2035,2008,2065,2053,2053,2037,2025
2033,2037,2005,2060,2047,2052,2022,2038
2033,2036,1998,2054,2043,2057,2021,2047
2039,2031,1994,2045,2025,2035,2032,2050
2038,2033,1986,2027,1996,2000,2026,2057
2040,2032,1990,2002,1984,1993,2026,2058
2038,2030,2003,1988,1978,2006,2022,2061
2035,2032,2018,1978,1988,2025,2032,2069
2045,2040,2041,2002,2023,2051,2051,2076
2058,2059,2069,2011,2047,2062,2056,2076
2055,2050,2061,2006,2039,2049,2046,2069
2044,2048,2050,1987,2026,2044,2052,2076
2053,2051,2040,1986,2022,2060,2051,2077
2053,2048,2045,1998,2040,2059,2047,2079
2062,2056,2045,2012,2031,2049,2046,2074
2062,2060,2054,2019,2030,2044,2071,2072
2064,2064,2067,2021,2036,2051,2063,2057
2056,2060,2066,2029,2045,2045,2048,2051
2054,2050,2065,2042,2069,2050,2056,2052
2057,2060,2078,2048,2082,2056,2072,2049
2059,2063,2084,2054,2065,2054,2064,2042
2054,2068,2083,2052,2029,2053,2062,2046
2052,2058,2065,2055,2056,2056,2067,2048
2057,2056,2053,2060,2079,2058,2066,2049
2060,2062,2044,2068,2089,2060,2077,2055
2062,2065,2041,2074,2089,2068,2060,2049
2057,2058,2031,2066,2057,2050,2062,2044
2054,2048,2023,2062,2049,2040,2072,2041
2054,2053,2025,2068,2081,2044,2067,2046
2056,2055,2010,2043,2051,2025,2066,2051
2053,2045,2003,2026,2032,2039,2062,2043
2045,2047,1999,2012,2002,2067,2051,2046
2045,2042,1996,2002,1954,2070,2049,2035
2049,2044,2012,1988,1932,2075,2050,2035
2050,2045,2023,1986,1934,2056,2046,2040
2047,2055,2036,2009,1965,2000,2042,2053
2052,2063,2057,2039,2050,2002,2069,2065
2054,2056,2065,2058,2092,2032,2077,2064
2050,2050,2064,2057,2096,2065,2059,2074
2057,2049,2072,2055,2086,2066,2050,2080
2056,2053,2071,2043,2060,2051,2061,2081
2055,2059,2088,2044,2051,2047,2069,2083
2048,2061,2092,2045,2037,2036,2058,2076
2041,2054,2096,2040,2034,2050,2054,2072
2040,2053,2092,2047,2036,2058,2083,2066
2045,2055,2075,2049,2041,2061,2070,2064
2046,2058,2069,2043,2038,2062,2064,2063
2052,2052,2064,2046,2032,2029,2061,2070
2051,2055,2062,2052,2037,2013,2042,2072
2052,2057,2055,2051,2042,2010,2048,2063
2060,2062,2060,2050,2041,2034,2064,2065
2060,2056,2054,2053,2054,2070,2088,2061
2055,2055,2048,2054,2070,2084,2086,2060
2058,2052,2054,2052,2060,2087,2091,2058
2060,2052,2064,2057,2057,2074,2070,2061
2059,2056,2067,2054,2049,2054,2074,2054
2057,2058,2065,2049,2041,2041,2066,2044
2059,2059,2057,2050,2047,2039,2072,2049
2056,2043,2048,2049,2052,2035,2064,2038
2044,2041,2042,2042,2049,2030,2048,2033
2053,2050,2047,2050,2053,2040,2045,2045
2055,2061,2045,2049,2051,2051,2036,2042
2051,2060,2053,2050,2058,2072,2066,2048
2053,2054,2052,2040,2055,2083,2049,2050
2053,2056,2046,2035,2024,2063,2037,2048
2053,2061,2046,2026,1995,2049,2065,2050
2052,2062,2047,2019,1973,2042,2052,2054
2054,2056,2049,2022,1978,2040,2060,2065
2049,2057,2043,2026,1998,2078,2079,2063
2051,2063,2052,2035,2018,2112,2079,2068
2051,2061,2061,2049,2021,2125,2074,2073
2055,2062,2052,2038,2055,2130,2069,2072
2046,2055,2046,2039,2091,2089,2047,2080
2054,2057,2050,2052,2134,2054,2044,2090
2053,2056,2050,2063,2168,2008,2043,2093
2060,2051,2049,2072,2197,1993,2056,2096
2055,2054,2044,2073,2188,2020,2063,2094
2058,2054,2042,2065,2145,2040,2052,2075
2049,2047,2034,2055,2066,2030,2060,2061
2044,2042,2031,2045,1998,2020,2061,2054
2040,2043,2034,2023,1872,2004,2047,2054
2047,2045,2044,2017,1874,1982,2026,2058
2050,2049,2052,2040,1958,1987,2042,2064
2057,2054,2061,2045,2019,2023,2070,2062
2065,2055,2045,2045,2044,2045,2062,2057
2055,2053,2053,2043,2050,2053,2074,2057
2054,2053,2056,2038,2047,2066,2080,2055
2060,2052,2042,2036,2036,2076,2091,2060
2058,2048,2045,2024,2021,2072,2086,2051
2053,2047,2031,2018,2010,2077,2087,2046
2046,2042,2018,2006,2005,2085,2062,2035
2038,2023,2012,2009,2010,2069,2043,2039
2040,2036,2024,2027,2029,2022,2050,2046
2047,2049,2037,2039,2059,2007,2065,2044
2049,2045,2031,2041,2077,2032,2077,2042
2044,2044,2030,2040,2088,2065,2070,2038
2038,2047,2030,2047,2085,2076,2070,2034
2042,2042,2041,2041,2086,2071,2052,2040
2045,2044,2042,2045,2075,2070,2053,2044
2047,2040,2052,2046,2068,2066,2062,2060
2047,2045,2066,2051,2052,2048,2063,2063
2048,2041,2072,2051,2033,2040,2034,2062
2045,2040,2078,2045,1995,2028,2026,2062
2040,2036,2089,2042,1949,2023,2043,2075
2049,2041,2090,2043,1974,2020,2052,2069
2047,2037,2086,2046,2024,2040,2070,2072
2043,2036,2077,2052,2043,2050,2052,2070
2036,2021,2059,2057,2048,2035,2047,2064
2032,2024,2052,2056,2052,2033,2040,2064
2038,2030,2050,2060,2050,2035,2040,2063
2038,2037,2049,2056,2056,2039,2031,2062
2039,2036,2049,2058,2054,2034,2031,2061
2040,2042,2040,2057,2045,2028,2032,2050
2043,2040,2037,2053,2038,2030,2061,2052
2044,2042,2042,2052,2050,2039,2069,2045
2043,2046,2034,2051,2047,2039,2056,2044
2047,2045,2032,2042,2031,2023,2043,2045
2052,2046,2024,2027,1994,2000,2044,2047
2050,2049,2025,2013,1987,1995,2026,2047
2046,2053,2019,1995,1981,1995,2007,2037
2047,2049,2012,1987,2001,2022,2041,2035
2059,2058,2028,2013,2052,2059,2064,2046
2066,2066,2041,2022,2068,2079,2066,2038
2059,2050,2035,2017,2044,2093,2053,2028
2049,2047,2033,2023,2036,2087,2045,2037
2054,2052,2042,2027,2037,2080,2050,2040
2052,2055,2047,2037,2031,2059,2066,2049
2064,2057,2058,2060,2043,2023,2055,2063
2072,2060,2061,2063,2037,2022,2074,2060
2068,2062,2057,2055,2010,2024,2073,2063
2066,2058,2054,2041,1973,2030,2059,2060
2053,2048,2045,2040,1977,2047,2060,2058
2060,2054,2052,2051,1991,2075,2085,2072
2061,2054,2052,2044,1974,2076,2079,2082
2062,2049,2042,2039,1970,2069,2082,2080
2056,2048,2042,2047,2019,2074,2065,2082
2061,2053,2044,2046,2023,2063,2075,2090
2055,2049,2040,2033,2007,2057,2076,2081
2057,2043,2028,2031,2017,2048,2055,2074
2046,2029,2016,2020,2056,2057,2051,2077
2038,2030,2023,2029,2087,2080,2076,2079
2052,2048,2039,2033,2108,2093,2088,2083
2063,2054,2052,2035,2074,2086,2086,2082
2061,2056,2049,2041,2070,2069,2075,2080
2061,2053,2049,2052,2079,2062,2063,2075
2062,2053,2046,2069,2069,2051,2058,2056
2058,2049,2057,2085,2087,2060,2059,2057
2068,2063,2054,2090,2074,2066,2064,2052
2072,2062,2063,2080,2050,2051,2040,2047
2076,2058,2062,2066,2037,2029,2021,2041
2069,2050,2056,2054,2011,2021,2026,2047
2058,2045,2056,2040,2019,2035,2039,2048
2064,2046,2052,2050,2042,2049,2027,2037
2061,2045,2053,2051,2032,2046,2056,2031
2062,2048,2057,2059,2043,2029,2040,2028
2055,2035,2046,2062,2050,2013,2033,2017
2053,2029,2040,2064,2064,2011,2033,2027
2046,2041,2046,2073,2066,2021,2020,2023
2044,2034,2042,2064,2066,2020,2031,2019
2036,2031,2028,2047,2052,2042,2024,2022
2032,2023,2010,2032,2022,2020,2022,2021
2028,2021,2000,2018,2004,1986,2001,2027
2028,2021,2008,2009,2006,1991,2025,2042
2040,2030,2021,2023,2043,2023,2043,2038
2043,2039,2023,2025,2058,2039,2053,2045
2045,2033,2020,2014,2057,2044,2032,2047
2040,2031,2028,2010,2040,2040,2042,2056
2041,2031,2028,2011,2037,2052,2035,2060
2046,2044,2030,2015,2023,2052,2031,2066
2042,2040,2036,2019,2018,2051,2036,2067
2048,2044,2040,2027,2004,2037,2026,2065
2044,2037,2039,2025,1990,2031,2018,2067
2047,2036,2042,2023,1996,2052,2036,2069
2047,2045,2039,2023,2004,2060,2029,2070
2053,2053,2046,2028,2004,2060,2049,2068
2056,2052,2049,2028,2029,2061,2052,2065
2064,2059,2052,2035,2034,2060,2054,2073
2074,2060,2056,2039,2030,2063,2057,2078
2071,2057,2060,2035,2024,2060,2043,2062
2067,2053,2059,2039,2023,2050,2038,2054
2069,2056,2058,2040,2034,2062,2042,2047
2072,2051,2057,2049,2040,2066,2038,2044
2060,2056,2058,2045,2045,2064,2045,2035
2055,2051,2058,2046,2044,2063,2041,2040
2056,2055,2052,2048,2035,2076,2059,2047
2058,2052,2055,2052,2040,2093,2063,2045
2053,2040,2050,2052,2043,2098,2071,2038
2044,2032,2042,2047,2030,2085,2070,2034
2041,2030,2046,2044,2024,2082,2054,2034
2048,2042,2051,2047,2035,2088,2052,2036
2052,2043,2050,2054,2061,2084,2052,2040
2050,2038,2045,2059,2080,2072,2050,2039
2049,2042,2050,2052,2072,2051,2032,2044
2055,2045,2040,2046,2058,2057,2041,2046
2055,2043,2043,2037,2052,2074,2047,2047
2047,2041,2038,2032,2050,2082,2057,2054
2042,2031,2036,2031,2045,2084,2048,2061
2047,2033,2033,2032,2044,2086,2038,2062
2051,2033,2036,2026,2040,2074,2050,2066
2054,2038,2033,2021,2047,2056,2050,2070
2053,2039,2032,2026,2042,2024,2059,2069
2050,2038,2051,2035,2023,2018,2032,2068
2045,2042,2057,2036,2020,2032,2027,2064
2044,2041,2066,2041,2020,2030,2016,2063
2040,2030,2063,2041,2017,2015,2038,2071
2041,2036,2070,2050,2020,2024,2045,2069
2054,2045,2060,2053,2017,2023,2040,2066
2048,2040,2045,2055,2013,2019,2038,2063
2047,2033,2037,2053,2009,2019,2047,2054
2047,2037,2030,2055,2016,2024,2041,2055
2050,2047,2021,2051,2020,2029,2056,2055
2054,2044,2010,2054,2020,2027,2054,2049
2056,2041,2002,2049,2013,2035,2028,2054
2053,2042,1999,2044,2008,2051,2050,2053
2047,2042,1990,2044,2028,2059,2040,2037
2053,2041,1981,2034,2038,2055,2039,2044
2050,2039,1980,2028,2033,2051,2036,2047
2059,2046,1979,2026,2032,2048,2056,2051
2054,2048,1982,2025,2034,2047,2054,2049
2060,2045,1984,2014,2031,2044,2050,2045
2057,2035,1987,2002,2018,2041,2043,2045
2054,2024,1987,2004,2015,2033,2043,2039
2042,2025,1994,1995,2011,2042,2043,2040
2043,2021,1998,1997,2012,2062,2034,2042
2053,2037,2021,2004,2008,2069,2052,2045
2052,2044,2053,2021,2024,2069,2059,2055
2064,2072,2088,2049,2058,2062,2052,2056
2070,2076,2093,2050,2067,2043,2051,2065
2066,2080,2077,2053,2086,2042,2049,2068
2061,2067,2069,2040,2091,2061,2055,2057
2051,2054,2051,2030,2111,2071,2046,2061
2053,2051,2053,2037,2136,2071,2044,2071
2058,2054,2071,2038,2113,2051,2044,2072
2062,2052,2076,2044,2058,2041,2064,2077
2062,2059,2089,2052,2012,2044,2068,2078
2063,2061,2102,2038,1914,2028,2088,2072
2050,2055,2094,2032,1924,2040,2055,2068
2053,2045,2087,2040,1961,2023,2024,2072
2056,2050,2094,2056,1988,2018,2044,2083
2056,2061,2095,2057,2003,2017,2051,2080
2057,2059,2086,2057,2005,2031,2039,2078
2055,2050,2072,2053,2015,2046,2040,2070
2055,2048,2067,2050,2019,2058,2054,2069
2060,2049,2067,2059,2041,2083,2050,2065
2057,2048,2069,2068,2050,2094,2064,2067
2064,2049,2064,2069,2074,2091,2047,2050
2062,2044,2060,2067,2089,2094,2060,2042
2060,2042,2063,2070,2100,2095,2051,2040
2054,2054,2067,2078,2096,2080,2051,2037
2049,2045,2067,2072,2073,2069,2056,2039
2036,2040,2063,2060,2072,2091,2060,2032
2049,2038,2060,2073,2090,2102,2077,2039
2050,2035,2060,2055,2041,2077,2038,2037
2043,2026,2050,2026,1974,2029,2029,2024
2038,2026,2050,2023,1929,1977,2037,2032
2042,2035,2060,2040,1923,1982,2031,2030
2046,2039,2062,2046,1965,2009,2041,2034
2050,2043,2072,2058,1991,2040,2039,2033
2051,2041,2075,2062,2002,2052,2036,2040
2049,2046,2069,2057,2008,2000,2039,2040
2046,2044,2068,2057,1989,1988,2035,2041
2048,2038,2071,2072,2009,2006,2038,2051
2042,2033,2069,2079,2034,2025,2032,2055
2033,2021,2055,2072,2038,2026,2034,2039
2029,2018,2043,2066,2029,2031,2040,2033
2024,2019,2027,2057,2021,2026,2041,2048
2029,2029,2025,2050,2007,2038,2057,2072
2051,2041,2036,2054,2016,2040,2045,2086
2057,2049,2037,2048,2023,2049,2034,2086
2059,2058,2035,2059,2059,2053,2033,2075
2045,2047,2023,2054,2085,2067,2047,2068
2030,2044,2012,2058,2071,2072,2068,2068
2046,2047,2010,2052,2071,2072,2062,2067
2049,2053,2016,2046,2041,2065,2062,2068
2058,2059,2018,2034,2037,2058,2051,2066
2058,2057,2012,2020,2043,2054,2049,2060
2060,2050,2004,2005,2027,2048,2031,2051
2058,2048,2017,1998,2016,2049,2056,2052
2058,2054,2037,2014,2032,2067,2066,2054
2058,2059,2044,2018,2017,2070,2062,2041
2052,2069,2056,2026,2015,2069,2070,2054
2061,2073,2069,2034,2013,2062,2041,2059
2060,2076,2069,2037,2022,2047,2059,2055
2061,2074,2066,2039,2027,2041,2047,2042
2051,2065,2060,2036,2027,2033,2036,2040
2049,2060,2064,2032,2027,2006,2033,2019
2036,2046,2051,2038,2046,2015,2028,2022
2037,2049,2058,2046,2060,2026,2044,2030
2045,2063,2064,2049,2051,2048,2056,2028
2041,2056,2058,2045,2036,2057,2035,2026
2036,2054,2045,2038,2024,2061,2034,2028
2042,2052,2032,2034,2020,2068,2029,2034
2044,2042,2016,2043,2022,2069,2045,2046
2045,2034,2011,2050,2034,2034,2058,2057
2047,2031,2018,2065,2052,2012,2051,2060
2057,2047,2027,2070,2053,2026,2048,2064
2070,2049,2032,2084,2063,2037,2059,2065
2073,2055,2036,2089,2099,2052,2049,2072
2075,2047,2047,2099,2116,2051,2049,2064
2063,2043,2040,2098,2096,2045,2030,2063
2051,2035,2044,2095,2079,2045,2030,2065
2048,2028,2052,2094,2060,2037,2023,2061
2043,2026,2045,2087,2054,2038,2022,2054
2031,2025,2048,2094,2072,2056,2041,2057
2044,2035,2060,2100,2076,2067,2052,2062
2042,2044,2064,2088,2062,2073,2053,2067
2041,2049,2063,2078,2042,2057,2044,2050
2035,2057,2083,2072,2028,2034,2045,2048
2039,2060,2090,2070,2025,2031,2035,2043
2043,2065,2098,2068,2021,2035,2032,2040
2041,2064,2103,2079,2025,2036,2041,2032
2045,2062,2103,2073,2033,2054,2061,2034
2045,2055,2096,2052,2035,2053,2048,2037
2048,2045,2065,2035,2030,2052,2051,2038
2048,2042,2050,2026,2027,2047,2059,2039
2054,2050,2046,2022,2047,2048,2052,2039
2055,2062,2051,2024,2054,2041,2046,2042
2053,2061,2043,2019,2066,2049,2045,2036
2058,2060,2044,2018,2064,2041,2038,2038
2058,2061,2052,2026,2057,2050,2031,2036
2060,2065,2064,2027,2056,2051,2053,2037
2063,2065,2064,2029,2058,2050,2037,2046
2060,2059,2061,2018,2052,2047,2048,2049
2057,2055,2046,2009,2046,2040,2049,2044
2056,2051,2041,2008,2041,2042,2051,2047
2058,2056,2041,2004,2038,2047,2052,2051
2058,2053,2034,2004,2042,2057,2058,2049
2052,2051,2028,1994,2036,2056,2058,2053
2043,2051,2025,1985,2040,2059,2048,2053
2046,2052,2029,1991,2038,2063,2040,2066
2049,2052,2035,1999,2036,2065,2044,2066
2054,2053,2034,2008,2039,2063,2055,2072
2058,2053,2039,2020,2044,2064,2053,2075
2061,2056,2041,2032,2040,2065,2056,2078
2059,2059,2044,2037,2040,2063,2050,2078
2051,2052,2038,2033,2036,2048,2049,2076
2039,2041,2041,2037,2029,2029,2032,2071
2037,2045,2043,2032,2026,2026,2029,2068
2043,2047,2043,2028,2022,2022,2049,2076
2056,2052,2047,2022,2019,2037,2050,2081
2069,2062,2058,2034,2034,2045,2057,2082
2069,2056,2058,2034,2043,2056,2062,2066
2067,2062,2058,2044,2053,2069,2049,2061
2070,2076,2073,2051,2052,2065,2047,2056
2062,2074,2070,2046,2051,2043,2047,2037
2047,2064,2060,2032,2037,2024,2017,2029
2043,2055,2045,2034,2039,2024,2003,2029
2046,2053,2044,2034,2039,2040,2018,2026
2054,2049,2035,2031,2040,2072,2019,2030
2050,2048,2029,2027,2036,2071,2019,2034
2052,2045,2023,2029,2044,2049,2018,2033
2057,2044,2024,2030,2047,2050,2019,2039
2052,2037,2020,2026,2044,2047,2037,2034
2047,2033,2030,2037,2039,2051,2039,2033
2045,2033,2038,2046,2044,2049,2037,2025
2035,2019,2034,2046,2044,2052,2048,2037
2036,2024,2031,2055,2052,2058,2043,2041
2037,2027,2030,2058,2059,2057,2040,2045
2041,2033,2034,2067,2059,2056,2050,2050
2047,2038,2040,2072,2065,2056,2050,2054
2050,2036,2039,2074,2058,2061,2052,2053
2042,2027,2039,2084,2054,2054,2053,2050
2045,2022,2020,2083,2054,2058,2049,2051
2042,2025,2024,2091,2057,2060,2044,2049
2035,2027,2015,2091,2056,2053,2041,2053
2032,2017,1997,2092,2052,2045,2035,2052
2019,2010,1985,2081,2041,2042,2019,2060
2014,2009,1977,2081,2042,2038,2026,2059
2023,2019,1984,2083,2043,2035,2021,2060
2028,2023,1987,2085,2047,2046,2036,2061
2034,2036,2004,2092,2054,2057,2054,2064
2044,2058,2032,2084,2055,2063,2037,2062
2049,2061,2030,2069,2054,2064,2048,2068
2050,2053,2029,2062,2061,2066,2061,2070
2049,2049,2036,2055,2057,2069,2040,2055
2045,2045,2041,2057,2043,2057,2037,2050
2041,2036,2035,2045,2039,2057,2064,2045
2045,2045,2041,2040,2036,2058,2067,2041
2050,2051,2043,2022,2019,2037,2029,2038
2041,2044,2034,1999,1986,2016,2023,2029
2036,2044,2024,1978,1984,2001,2020,2036
2037,2051,2047,1990,1998,2002,2041,2029
2042,2052,2086,2015,2020,2028,2031,2030
2057,2076,2142,2053,2060,2061,2035,2039
2070,2090,2179,2088,2090,2070,2028,2043
2067,2083,2167,2080,2080,2062,2042,2033
2059,2068,2140,2076,2073,2063,2063,2042
2064,2070,2145,2081,2074,2069,2062,2055
2067,2071,2143,2073,2068,2064,2062,2051
2065,2065,2118,2057,2059,2052,2071,2046
2063,2068,2098,2051,2063,2052,2057,2053
2067,2069,2072,2051,2060,2059,2061,2060
2057,2056,2049,2052,2066,2063,2058,2058
2050,2047,2020,2046,2067,2071,2057,2055
2049,2046,2017,2048,2077,2084,2056,2056
2050,2050,2010,2053,2077,2087,2068,2060
2056,2055,2006,2048,2072,2076,2066,2061
2055,2054,1993,2041,2055,2058,2047,2064
2050,2037,1974,2020,2055,2049,2030,2071
2044,2024,1952,1997,2043,2042,2050,2064
2041,2017,1953,1987,2029,2041,2055,2062
2039,2016,1959,1987,2028,2028,2050,2059
2033,2004,1952,1970,2019,2022,2029,2052
2023,1996,1956,1972,2016,2024,2022,2059
2027,2004,1976,1985,2027,2033,2044,2064
2034,2008,1997,1994,2037,2034,2048,2064
2036,2015,1999,1999,2030,2036,2047,2063
2050,2025,2007,2007,2036,2034,2046,2062
2046,2034,2013,2017,2045,2042,2055,2052
2054,2044,2021,2030,2059,2044,2040,2039
2057,2041,2032,2041,2062,2049,2045,2032
2045,2045,2036,2033,2060,2054,2051,2040
2055,2043,2050,2034,2048,2046,2042,2036
2052,2038,2065,2030,2043,2039,2051,2027
2046,2041,2083,2028,2045,2042,2048,2021
2040,2050,2099,2049,2047,2051,2051,2017
2046,2067,2117,2071,2060,2062,2041,2031
2055,2080,2136,2088,2071,2068,2075,2034
2053,2076,2128,2093,2070,2065,2062,2026
2039,2057,2104,2081,2058,2059,2051,2028
2037,2052,2081,2069,2054,2055,2053,2030
2046,2049,2069,2064,2045,2049,2054,2035
2048,2044,2052,2059,2048,2053,2061,2046
2053,2041,2038,2054,2039,2044,2052,2042
2043,2036,2016,2043,2037,2044,2039,2043
2044,2031,2005,2027,2024,2040,2046,2044
2046,2037,2005,2016,2031,2040,2045,2045
2036,2041,2007,2026,2033,2040,2049,2048
2034,2047,2014,2031,2047,2050,2049,2060
2047,2065,2030,2045,2060,2056,2045,2059
2056,2074,2027,2051,2054,2055,2053,2065
2045,2069,2032,2042,2057,2054,2050,2064
2041,2064,2037,2039,2051,2051,2061,2057
2045,2071,2050,2049,2051,2045,2056,2061
2057,2081,2062,2042,2044,2046,2063,2071
2059,2079,2061,2037,2043,2034,2042,2073
2053,2063,2064,2042,2048,2038,2047,2064
2055,2070,2101,2073,2051,2050,2050,2069
2059,2076,2121,2093,2059,2054,2063,2060
2056,2074,2121,2106,2066,2059,2066,2054
2052,2068,2118,2111,2064,2065,2032,2048
2052,2072,2102,2109,2064,2060,2034,2048
2056,2064,2080,2106,2064,2058,2053,2045
2055,2067,2073,2102,2065,2061,2050,2041
2054,2068,2063,2100,2063,2064,2058,2042
2058,2064,2058,2092,2066,2059,2051,2039
2052,2074,2057,2096,2071,2058,2035,2042
2058,2086,2071,2107,2073,2046,2044,2039
2060,2084,2054,2103,2062,2036,2033,2038
2063,2064,2027,2090,2060,2034,2056,2038
2063,2058,2014,2082,2058,2035,2038,2037
2061,2048,2003,2061,2050,2031,2038,2033
2046,2035,1984,2025,2033,2023,2029,2024
2031,2025,1976,2012,2033,2027,2014,2027
2043,2034,1985,2021,2058,2045,2022,2033
2055,2061,1993,2038,2071,2046,2057,2041
2065,2069,1997,2047,2082,2064,2067,2046
2072,2074,1986,2059,2096,2077,2071,2053
2069,2072,1975,2072,2096,2082,2064,2052
2065,2076,1965,2082,2089,2074,2062,2057
2068,2064,1942,2071,2077,2069,2051,2055
2067,2057,1929,2064,2068,2066,2072,2053
2060,2057,1944,2070,2072,2065,2040,2050
2054,2054,2001,2086,2068,2058,2047,2052
2047,2058,2044,2098,2063,2055,2060,2054
2048,2053,2067,2092,2056,2041,2044,2053
2040,2045,2080,2080,2051,2035,2044,2056
2037,2042,2098,2060,2042,2022,2020,2050
2029,2033,2099,2039,2027,2022,2026,2055
2028,2032,2125,2034,2029,2023,2033,2070
2030,2044,2161,2052,2044,2044,2045,2079
2052,2080,2204,2105,2085,2069,2059,2080
2071,2109,2237,2151,2102,2079,2065,2087
2077,2125,2262,2179,2101,2079,2056,2082
2080,2127,2259,2187,2105,2081,2062,2071
2072,2121,2235,2183,2102,2079,2054,2064
2069,2099,2198,2163,2091,2064,2055,2052
2052,2073,2147,2122,2075,2053,2040,2050
2051,2057,2109,2088,2065,2041,2066,2048
2044,2046,2076,2060,2059,2040,2045,2050
2045,2043,2062,2041,2053,2043,2037,2048
2048,2043,2045,2023,2060,2042,2054,2048
2058,2037,2026,2025,2057,2049,2057,2050
2065,2043,2021,2037,2051,2047,2073,2052
2057,2041,2020,2056,2054,2048,2073,2051
2056,2038,1991,2050,2047,2055,2070,2045
2056,2019,1970,2030,2028,2050,2064,2037
2052,2010,1940,2003,2011,2040,2065,2033
2045,2005,1915,1989,2009,2036,2049,2032
2041,2007,1918,1995,2018,2049,2042,2034
2046,2027,1930,2006,2029,2057,2049,2033
2057,2046,1932,2016,2050,2064,2055,2040
2060,2051,1932,2014,2051,2063,2041,2036
2052,2047,1938,2009,2044,2055,2051,2039
2048,2044,1940,1986,2034,2041,2026,2043
2046,2045,1970,1966,2020,2035,2043,2049
2045,2043,2007,1954,1994,2019,1994,2040
2032,2042,2027,1941,1983,2003,2008,2042
2021,2041,2052,1959,1988,1998,2024,2052
2021,2044,2065,1979,2003,1996,2034,2059
2024,2052,2086,2010,2026,2010,2043,2076
2037,2070,2105,2036,2043,2032,2061,2085
2042,2074,2109,2042,2036,2034,2068,2080
2047,2066,2110,2053,2040,2048,2087,2082
2056,2086,2134,2061,2051,2049,2072,2085
2073,2094,2147,2080,2065,2051,2056,2089
2080,2094,2145,2089,2070,2058,2064,2087
2070,2092,2140,2098,2075,2065,2067,2069
2069,2089,2127,2089,2067,2071,2063,2054
2068,2091,2112,2093,2061,2062,2058,2056
2066,2085,2096,2084,2058,2058,2060,2050
2058,2074,2080,2086,2055,2055,2056,2049
2058,2073,2074,2093,2040,2050,2057,2045
2050,2068,2066,2097,2037,2051,2040,2053
2050,2066,2062,2096,2024,2035,2035,2048
2046,2068,2062,2084,2012,2020,2037,2046
2048,2065,2046,2072,1993,1994,2018,2040
2056,2074,2052,2079,1995,1970,2044,2041
2054,2079,2046,2071,2000,1979,2025,2037
2049,2058,2033,2048,2013,1998,2029,2034
2057,2060,2027,2060,2051,2040,2041,2032
2054,2061,2029,2059,2097,2069,2068,2036
2057,2056,2028,2051,2107,2087,2056,2036
2062,2049,2014,2040,2093,2117,2061,2030
2049,2043,2018,2023,2062,2129,2059,2033
2050,2050,2028,2013,2038,2121,2060,2035
2046,2052,2030,1995,2019,2110,2066,2033
2042,2043,2027,1978,2014,2065,2058,2046
2052,2049,2040,2002,2044,2010,2068,2061
2051,2054,2064,2019,2063,2040,2076,2062
2055,2072,2088,2017,2032,2074,2076,2063
2065,2074,2089,2021,2003,2088,2077,2067
2067,2070,2075,2008,1983,2086,2064,2065
2052,2059,2055,2006,1962,2053,2057,2073
2054,2058,2055,2019,1985,2029,2062,2079
2052,2058,2050,2025,1997,2056,2056,2059
2047,2036,2040,2011,1976,2080,2058,2062
2034,2041,2040,2016,1960,2064,2063,2072
2037,2051,2045,2016,1990,2023,2060,2066
2036,2057,2032,2025,2012,1990,2059,2069
2039,2065,2044,2048,2061,1974,2069,2077
2060,2083,2058,2080,2139,1999,2083,2082
2056,2073,2053,2085,2168,2041,2080,2080
2056,2075,2041,2079,2167,2068,2084,2074
2054,2070,2033,2069,2139,2058,2074,2063
2054,2063,2021,2056,2104,2046,2067,2052
2052,2057,2009,2058,2086,2039,2072,2048
2054,2050,2010,2066,2080,2033,2072,2040
2053,2038,2005,2068,2079,2035,2051,2041
2044,2039,2010,2075,2083,2036,2042,2048
2045,2037,2004,2083,2081,2038,2069,2045
2044,2034,2008,2094,2081,2034,2074,2047
2046,2037,2027,2098,2072,2035,2059,2033
2048,2026,2040,2102,2068,2041,2052,2025
2043,2023,2069,2114,2070,2051,2061,2029
2039,2034,2091,2127,2076,2063,2046,2029
2039,2035,2097,2146,2086,2067,2072,2041
2031,2034,2080,2144,2083,2060,2075,2037
2034,2036,2079,2140,2087,2057,2074,2036
2040,2033,2074,2139,2083,2043,2056,2038
2039,2030,2059,2122,2064,2033,2052,2035
2034,2028,2042,2100,2047,2024,2039,2036
2033,2029,2039,2081,2038,2021,2041,2043
2046,2051,2072,2086,2038,2030,2051,2049
2051,2066,2097,2085,2037,2031,2063,2065
2057,2065,2079,2065,2026,2021,2052,2068
2049,2053,2054,2041,2002,2025,2053,2073
2043,2048,2047,2023,1995,2031,2067,2081
2036,2060,2067,2021,2003,2056,2073,2080
2040,2076,2084,2007,2006,2075,2063,2074
2035,2085,2081,2002,2022,2089,2066,2082
2050,2102,2094,2039,2069,2100,2089,2091
2057,2094,2089,2033,2069,2057,2067,2091
2057,2075,2080,2009,2057,2029,2056,2081
2059,2073,2069,1989,2057,2041,2056,2084
2065,2081,2072,1997,2068,2049,2068,2075
2064,2079,2066,2007,2075,2046,2060,2065
2058,2077,2065,2013,2069,2035,2045,2057
2052,2067,2059,2036,2077,2028,2057,2051
2053,2062,2064,2043,2066,2022,2071,2056
2046,2054,2070,2052,2063,2024,2070,2048
2053,2061,2070,2047,2060,2046,2075,2052
2048,2062,2068,2052,2055,2053,2086,2047
2055,2061,2067,2045,2041,2060,2059,2047
2055,2060,2060,2049,2047,2059,2065,2052
2058,2058,2057,2050,2042,2057,2072,2045
2049,2043,2044,2052,2041,2047,2068,2044
2043,2034,2032,2043,2051,2051,2065,2041
2043,2039,2034,2050,2051,2061,2062,2036
2056,2050,2032,2047,2049,2057,2064,2028
2056,2040,2027,2052,2056,2052,2060,2035
2051,2042,2029,2043,2051,2062,2067,2039
2043,2041,2027,2042,2053,2075,2071,2050
2042,2047,2030,2051,2059,2079,2068,2051
2043,2045,2025,2053,2062,2083,2072,2050
2041,2050,2026,2055,2064,2088,2074,2046
2038,2050,2026,2053,2062,2084,2073,2060
2042,2039,2014,2047,2053,2062,2068,2065
2039,2036,2008,2040,2040,2044,2057,2066
2044,2024,2004,2037,2035,2038,2057,2075
2052,2024,1997,2036,2030,2028,2054,2070
2040,2026,1987,2040,2026,2029,2053,2062
2031,2026,1985,2045,2036,2023,2028,2059
2036,2028,1978,2040,2045,2016,2037,2059
2034,2024,1957,2032,2049,2024,2050,2068
2039,2028,1966,2042,2052,2038,2060,2057
2034,2033,1977,2052,2057,2045,2062,2055
2033,2034,1979,2057,2054,2047,2064,2050
2029,2030,1974,2057,2061,2055,2065,2049
2040,2032,1984,2074,2057,2054,2073,2050
2049,2034,2003,2082,2055,2058,2068,2040
2040,2033,2016,2078,2038,2045,2047,2030
2035,2015,2014,2063,2037,2042,2054,2029
2035,2024,2042,2075,2063,2046,2058,2030
2037,2036,2076,2098,2072,2052,2059,2023
2046,2046,2095,2097,2060,2037,2054,2024
2045,2044,2084,2073,2049,2029,2038,2029
2044,2041,2075,2059,2040,2027,2014,2026
2045,2048,2086,2060,2043,2037,2034,2027
2040,2043,2086,2060,2042,2035,2028,2018
2035,2037,2078,2036,2043,2041,2022,2017
2030,2029,2058,2012,2036,2036,2038,2020
2032,2023,2041,1981,2023,2028,2023,2027
2028,2019,2030,1961,2005,2022,2020,2039
2026,2027,2043,1980,2018,2022,2036,2044
2033,2057,2084,2007,2031,2036,2040,2057
2053,2087,2108,2032,2041,2042,2048,2063
2056,2086,2106,2031,2056,2051,2051,2066
2057,2083,2095,2027,2057,2050,2059,2067
2052,2078,2097,2036,2066,2050,2042,2068
2055,2070,2089,2036,2064,2047,2052,2066
2049,2064,2088,2043,2061,2042,2040,2064
2041,2061,2087,2044,2052,2038,2040,2067
2034,2066,2089,2045,2057,2034,2037,2076
2045,2062,2088,2057,2044,2036,2039,2083
2044,2065,2088,2053,2053,2021,2046,2073
2038,2052,2080,2043,2017,2008,2030,2064
2034,2052,2076,2030,1990,2003,2020,2068
2045,2060,2079,2039,1990,1990,2035,2075
2051,2065,2085,2034,1976,1986,2024,2066
2041,2059,2084,2038,1993,2016,2018,2058
2043,2061,2091,2056,2028,2056,2052,2064
2046,2063,2098,2068,2069,2073,2057,2060
2044,2063,2096,2076,2090,2088,2058,2048
2038,2067,2097,2086,2114,2107,2064,2046
2048,2072,2094,2092,2111,2105,2063,2042
2059,2073,2088,2087,2093,2115,2062,2038
2054,2072,2078,2078,2076,2142,2047,2047
2051,2062,2071,2072,2060,2153,2058,2051
2056,2061,2070,2059,2018,2130,2061,2044
2060,2056,2063,2043,1986,2096,2070,2044
2057,2062,2063,2035,1985,2028,2041,2050
2060,2065,2066,2042,2020,2003,2040,2048
2053,2060,2057,2038,2023,2023,2043,2041
2041,2056,2057,2028,2000,2039,2055,2035
2042,2058,2055,2032,1984,2038,2050,2040
2042,2055,2038,2021,1986,2030,2050,2035
2042,2053,2022,2013,2033,2052,2060,2040
2048,2058,2032,2021,2069,2067,2060,2044
2051,2062,2033,2038,2088,2071,2070,2051
2051,2062,2049,2041,2105,2077,2071,2054
2052,2056,2046,2041,2112,2064,2053,2056
2048,2055,2049,2040,2100,2059,2070,2054
2056,2045,2045,2038,2085,2044,2052,2049
2038,2030,2037,2033,2077,2053,2050,2054
2032,2029,2027,2031,2070,2087,2054,2058
2039,2035,2033,2039,2057,2127,2044,2048
2037,2039,2035,2031,2026,2146,2062,2041
2043,2046,2033,2033,1988,2117,2047,2051
2046,2040,2027,2028,1959,2046,2017,2060
2045,2034,2022,2039,1982,1967,2024,2072
2054,2038,2026,2054,2038,1958,2050,2083
2054,2041,2034,2073,2106,1995,2045,2077
2046,2045,2033,2082,2132,2052,2053,2071
2042,2046,2030,2075,2110,2073,2068,2071
2037,2044,2032,2044,2085,2052,2052,2054
2040,2041,2023,2033,2083,2046,2031,2046
2042,2044,2035,2046,2086,2025,2016,2039
2046,2050,2046,2049,2096,2006,2021,2041
2051,2050,2065,2052,2090,2028,2030,2039
2047,2050,2076,2051,2081,2041,2019,2041
2044,2051,2079,2057,2072,2031,2006,2037
2040,2042,2081,2057,2065,2023,2018,2031
2045,2045,2078,2060,2062,2029,2037,2037
2046,2046,2062,2055,2055,2031,2037,2039
2047,2045,2054,2050,2047,2019,2038,2044
2052,2050,2048,2043,2041,2013,2021,2045
2050,2044,2037,2039,2046,2017,2027,2049
2045,2053,2036,2047,2053,2030,2038,2051
2045,2054,2043,2042,2057,2044,2059,2048
2044,2052,2041,2040,2064,2058,2062,2049
2047,2051,2036,2036,2042,2074,2051,2040
2047,2052,2028,2019,1997,2086,2036,2039
2044,2044,2023,2012,1969,2066,2039,2045
2045,2036,2019,2007,1969,2060,2030,2044
2045,2038,2014,2010,1976,2028,2032,2047
2038,2045,2022,2039,2036,1990,2037,2064
2043,2045,2030,2056,2118,2023,2046,2068
2050,2039,2022,2069,2139,2052,2067,2073
2050,2036,2024,2064,2139,2070,2063,2079
2049,2036,2005,2059,2132,2066,2058,2079
2048,2030,1998,2053,2098,2060,2051,2075
2043,2023,1990,2059,2094,2053,2060,2071
2040,2011,1977,2056,2090,2050,2049,2068
2041,2004,1973,2046,2074,2042,2040,2070
2038,2007,1977,2052,2070,2049,2022,2070
2038,2007,1980,2055,2073,2045,2020,2059
2032,2002,1993,2056,2073,2048,2030,2053
2030,2001,1995,2059,2079,2050,2031,2052
2029,2002,2003,2062,2076,2053,2046,2051
2027,2012,2004,2056,2082,2054,2032,2052
2028,2019,2004,2064,2111,2056,2019,2046
2026,2026,2013,2064,2125,2061,2038,2044
2026,2026,2023,2061,2128,2068,2040,2033
2032,2026,2024,2055,2126,2067,2024,2040
2029,2027,2037,2058,2123,2068,2050,2045
2039,2032,2058,2060,2102,2038,2044,2045
2038,2043,2086,2065,2092,2019,2059,2043
2049,2060,2117,2073,2093,2020,2052,2053
2066,2090,2136,2088,2095,2021,2044,2062
2064,2089,2120,2078,2039,2008,2040,2057
2061,2082,2097,2058,1936,2008,2027,2051
2058,2086,2098,2050,1927,2017,2033,2048
2060,2078,2099,2068,1984,2036,2047,2056
2057,2070,2102,2078,2021,2054,2072,2061
2055,2071,2107,2090,2040,2057,2070,2061
2051,2070,2104,2081,2051,2057,2068,2057
2050,2070,2092,2066,2052,2051,2078,2058
2047,2063,2075,2059,2043,2039,2073,2065
2041,2058,2069,2050,2034,2039,2060,2069
2043,2065,2073,2038,2034,2021,2051,2076
2049,2068,2076,2050,2033,2000,2055,2088
2046,2069,2075,2039,2033,2002,2048,2083
2049,2068,2071,2043,2030,2005,2053,2081
2047,2058,2067,2046,2034,2025,2061,2082
2049,2053,2062,2050,2048,2044,2075,2080
2045,2053,2053,2048,2069,2048,2051,2077
2035,2042,2037,2049,2067,2036,2041,2070
2030,2034,2039,2052,2065,2037,2056,2075
2038,2049,2051,2058,2056,2045,2060,2075
2043,2050,2051,2062,2055,2039,2041,2071
2050,2049,2056,2074,2062,2035,2020,2076
2058,2058,2072,2087,2048,2031,2008,2069
2051,2060,2080,2087,2050,2032,2060,2066
2057,2069,2084,2091,2058,2021,2049,2064
2060,2069,2095,2098,2071,2022,2043,2065
2065,2072,2093,2088,2061,2023,2051,2053
2056,2066,2079,2047,2057,2048,2048,2043
2053,2060,2079,2058,2072,2074,2062,2061
2060,2069,2072,2073,2089,2089,2066,2062
2057,2063,2072,2064,2068,2067,2052,2056
2051,2053,2066,2058,2035,2064,2036,2047
2042,2043,2065,2048,1962,2043,2047,2052
2039,2039,2040,2029,1953,2028,2027,2040
2038,2024,2025,2029,2001,2056,2047,2040
2037,2032,2032,2041,2029,2075,2046,2050
2039,2046,2034,2039,2013,2080,2058,2042
2049,2052,2038,2034,2011,2077,2049,2045
2050,2059,2038,2032,2002,2082,2050,2061
2058,2062,2043,2036,2016,2086,2069,2073
2060,2064,2050,2046,2027,2090,2064,2068
2065,2058,2055,2034,2023,2067,2063,2069
2062,2053,2053,2029,2018,2010,2058,2065
2058,2053,2050,2036,2027,2016,2052,2071
2053,2056,2050,2045,2022,2046,2072,2075
2050,2053,2050,2048,2013,2072,2072,2075
2047,2050,2046,2055,2033,2091,2067,2077
2046,2045,2036,2053,2042,2091,2057,2085
2044,2044,2031,2053,2042,2080,2062,2074
2043,2034,2032,2055,2024,2054,2046,2069
2027,2029,2024,2068,2027,2028,2041,2053
2029,2027,2047,2086,2038,2031,2032,2062
2049,2048,2054,2109,2048,2026,2045,2072
2060,2057,2054,2114,2056,2011,2046,2068
2059,2055,2043,2109,2070,1996,2031,2058
2058,2049,2037,2100,2085,1988,2036,2059
2051,2042,2028,2088,2063,1992,2033,2056
2047,2040,2023,2092,2052,1998,2050,2047
2045,2036,2024,2098,2036,2002,2036,2042
2042,2040,2030,2094,2023,2009,2041,2035
2046,2040,2033,2102,2034,2023,2014,2033
2045,2037,2039,2098,2028,2032,2034,2037
2043,2034,2034,2077,2032,2029,2048,2039
2038,2029,2021,2042,2012,2009,2033,2040
2035,2033,2017,2008,1990,2007,2018,2040
2044,2034,2020,1996,2001,2024,2038,2052
2047,2051,2037,2004,2043,2045,2048,2049
2054,2056,2058,2010,2077,2045,2053,2048
2055,2069,2092,2017,2092,2043,2053,2045
2058,2078,2105,2018,2085,2041,2049,2044
2053,2070,2100,2004,2036,2038,2042,2050
2054,2067,2078,1999,2005,2028,2034,2049
2049,2056,2068,1995,2006,2029,2034,2051
2043,2051,2053,1996,2033,2041,2045,2051
2043,2061,2048,2008,2060,2043,2043,2057
2057,2058,2053,2018,2039,2025,2042,2061
2060,2059,2059,2019,2032,2015,2041,2064
2054,2061,2063,2037,2055,2024,2025,2064
2051,2051,2046,2036,2075,2035,2028,2061
2045,2041,2042,2040,2084,2053,2049,2066
2043,2045,2048,2044,2087,2062,2031,2073
2045,2054,2045,2052,2097,2071,2054,2079
2052,2050,2050,2051,2141,2084,2048,2071
2046,2047,2035,2033,2174,2078,2045,2065
2037,2042,2022,2041,2185,2085,2044,2074
2035,2040,2029,2064,2243,2096,2033,2075
2045,2050,2016,2073,2258,2095,2033,2080
2051,2047,2017,2071,2231,2084,2056,2075
2045,2042,2005,2071,2207,2064,2039,2070
2041,2042,2011,2073,2175,2056,2032,2062
2037,2039,2028,2080,2119,2048,2044,2055
2036,2037,2022,2074,2068,2042,2031,2040
2034,2028,2012,2056,1983,2035,2043,2034
2032,2023,1993,2036,1837,2004,2041,2031
2038,2023,1996,2018,1838,1996,2038,2042
2045,2038,2011,2032,1921,2016,2047,2048
2055,2054,2028,2058,1984,2043,2054,2051
2058,2066,2049,2078,2039,2069,2058,2048
2058,2065,2062,2078,2071,2092,2069,2044
2057,2069,2064,2088,2089,2099,2058,2039
2055,2058,2061,2081,2085,2092,2050,2034
2050,2048,2054,2071,2089,2085,2050,2034
2047,2049,2048,2065,2122,2060,2071,2048
2051,2038,2041,2053,2136,2050,2064,2048
2040,2042,2053,2051,2109,2074,2056,2046
2049,2059,2072,2039,2052,2081,2055,2046
2053,2065,2073,2035,2026,2086,2051,2044
2056,2069,2065,2032,1985,2058,2054,2039
2052,2053,2055,2013,1900,1999,2027,2037
2040,2038,2052,2016,1916,1973,2041,2056
2045,2033,2059,2037,1975,1996,2052,2061
2044,2036,2053,2029,1983,2008,2031,2061
2041,2044,2050,2024,1971,2014,2022,2073
2042,2048,2049,2025,1949,2009,2037,2080
2047,2057,2056,2023,1943,2001,2028,2091
2059,2060,2058,2030,1969,1984,2044,2092
2064,2046,2053,2036,2043,1992,2063,2090
2053,2041,2045,2042,2092,2015,2064,2080
2043,2034,2047,2052,2151,2066,2070,2080
2043,2036,2049,2060,2186,2098,2078,2077
2040,2040,2053,2059,2176,2094,2081,2081
2048,2044,2058,2050,2150,2086,2081,2076
2048,2039,2060,2052,2135,2066,2058,2064
2049,2048,2066,2052,2114,2050,2057,2066
2058,2051,2070,2059,2123,2047,2036,2054
2058,2056,2071,2062,2144,2055,2027,2048
2058,2062,2064,2062,2146,2070,2044,2045
2054,2055,2060,2060,2121,2083,2045,2039
2050,2054,2046,2050,2075,2097,2030,2035
2048,2052,2046,2038,1986,2091,2013,2022
2050,2059,2040,2030,1865,2087,2018,2027
2047,2063,2051,2046,1897,2070,2020,2036
2047,2067,2059,2071,1961,2049,2056,2045
2058,2063,2051,2076,1999,2031,2041,2046
2059,2044,2036,2072,2023,2018,2062,2051
2049,2031,2026,2068,2070,2034,2045,2047
2064,2036,2026,2065,2127,2054,2049,2045
2058,2046,2030,2068,2161,2060,2047,2040
2050,2045,2034,2059,2146,2053,2046,2038
2044,2045,2041,2052,2073,2032,2036,2043
2052,2051,2051,2056,2036,2031,2034,2045
2057,2056,2065,2057,2032,2029,2049,2052
2056,2051,2063,2061,2036,2027,2036,2048
2047,2044,2049,2056,2068,2034,2030,2048
2047,2044,2053,2040,2091,2031,2037,2046
2043,2044,2057,2043,2098,2041,2020,2049
2043,2048,2049,2047,2090,2050,2033,2052
2045,2040,2054,2043,2080,2041,2048,2059
2043,2044,2046,2036,2071,2030,2037,2060
2038,2042,2039,2036,2063,2031,2026,2058
2038,2039,2036,2035,2058,2022,2022,2060
2029,2038,2038,2033,2064,2022,2033,2066
2043,2048,2042,2045,2079,2033,2043,2074
2049,2051,2045,2048,2080,2041,2042,2073
2054,2048,2045,2036,2075,2047,2044,2067
2055,2050,2040,2029,2076,2051,2023,2063
2064,2047,2032,2022,2074,2059,2044,2060
2057,2047,2022,2020,2065,2060,2051,2045
2051,2033,2002,2018,2065,2066,2027,2038
2045,2019,1982,2027,2061,2068,2017,2027
2046,2026,1989,2031,2044,2066,2047,2051
2049,2031,1992,2026,2040,2075,2057,2065
2048,2024,1986,2027,2049,2082,2044,2068
2043,2021,1988,2035,2049,2079,2047,2062
2046,2026,1984,2036,2050,2066,2039,2061
2044,2027,1983,2039,2050,2064,2032,2070
2033,2023,1978,2033,2049,2063,2024,2067
2036,2009,1977,2029,2042,2048,2007,2075
2034,2018,1990,2033,2050,2056,2028,2081
2045,2028,2011,2052,2059,2073,2048,2087
2040,2036,2027,2046,2052,2081,2040,2092
2037,2048,2058,2044,2050,2047,2048,2093
2040,2049,2090,2049,2041,2040,2046,2098
2053,2072,2127,2065,2046,2045,2043,2110
2062,2090,2145,2066,2046,2033,2039,2113
2065,2089,2132,2061,2050,2032,2038,2121
2058,2080,2113,2054,2060,2053,2032,2123
2054,2068,2099,2052,2068,2061,2049,2129
2060,2078,2104,2061,2062,2072,2059,2141
2068,2090,2099,2069,2066,2065,2072,2149
2074,2081,2096,2074,2060,2049,2044,2147
2065,2082,2080,2092,2063,2025,2045,2143
2060,2065,2069,2091,2059,2024,2040,2143
2047,2058,2056,2086,2058,2030,2035,2135
2039,2052,2045,2086,2053,2034,2047,2125
2037,2051,2044,2087,2055,2047,2049,2131
2043,2066,2052,2096,2054,2058,2053,2134
2052,2066,2057,2099,2049,2047,2038,2131
2055,2064,2066,2093,2040,2043,2042,2124
2057,2064,2064,2085,2036,2034,2042,2122
2051,2056,2075,2087,2042,2028,2042,2109
2050,2062,2083,2089,2045,2022,2050,2109
2050,2065,2086,2076,2039,2026,2044,2105
2046,2065,2085,2061,2045,2036,2035,2105
2048,2063,2072,2050,2043,2047,2035,2114
2050,2061,2060,2044,2042,2052,2045,2116
2041,2048,2045,2016,2036,2050,2045,2115
2043,2041,2032,1994,2028,2042,2045,2116
2045,2037,2026,1983,2024,2042,2040,2108
2043,2038,2020,1978,2020,2039,2046,2111
2036,2041,2029,1980,2028,2035,2040,2112
2036,2041,2035,1993,2038,2047,2042,2106
2049,2050,2044,2004,2050,2058,2042,2120
2048,2056,2044,2007,2054,2062,2040,2122
2044,2054,2049,2006,2058,2059,2055,2118
2047,2050,2045,2017,2058,2061,2064,2119
2043,2050,2045,2021,2057,2056,2066,2114
2046,2047,2045,2024,2044,2058,2030,2106
2044,2052,2044,2026,2048,2054,2028,2114
2046,2048,2047,2026,2039,2061,2044,2119
2042,2046,2037,2024,2027,2065,2061,2133
2041,2044,2044,2027,2025,2066,2076,2140
2047,2049,2040,2023,2031,2073,2056,2139
2046,2053,2046,2035,2040,2061,2060,2147
2051,2053,2047,2051,2052,2019,2040,2150
2052,2053,2034,2052,2060,2014,2051,2145
2050,2056,2020,2052,2060,2024,2045,2141
2045,2040,2000,2044,2044,2025,2037,2131
2041,2026,1988,2035,2042,2045,2043,2124
2032,2028,1981,2020,2042,2067,2055,2125
2030,2026,1980,2021,2046,2076,2048,2122
2040,2037,2015,2041,2063,2092,2045,2120
2041,2039,2027,2062,2084,2103,2056,2119
2043,2041,2038,2057,2073,2107,2045,2111
2040,2048,2039,2058,2060,2108,2061,2109
2039,2050,2033,2057,2038,2075,2054,2096
2031,2048,2037,2066,2018,2014,2050,2082
2034,2050,2042,2054,2010,1996,2044,2098
2038,2048,2048,2045,2001,2006,2017,2096
2039,2045,2048,2046,2008,2022,2025,2086
2038,2039,2061,2046,1996,2014,2037,2084
2031,2050,2082,2050,1987,1996,2022,2092
2043,2056,2094,2050,1962,1982,2026,2083
2046,2054,2085,2041,1956,1981,2034,2083
2032,2039,2069,2031,1958,1986,2013,2083
2035,2038,2057,2019,1951,2020,2025,2082
2033,2042,2053,2005,1942,2052,2034,2087
2044,2050,2049,2003,1946,2057,2033,2092
2043,2053,2065,2003,2008,2066,2045,2097
2045,2053,2074,2013,2090,2056,2045,2108
2058,2067,2093,2061,2191,2042,2065,2120
2067,2072,2089,2076,2229,2059,2076,2118
2062,2063,2073,2066,2180,2073,2085,2113
2058,2057,2057,2059,2130,2080,2079,2116
2059,2059,2057,2055,2092,2067,2060,2112
2052,2056,2055,2045,2064,2055,2060,2118
2045,2046,2044,2020,2004,2042,2046,2115
2036,2043,2045,2024,2030,2050,2041,2121
2045,2054,2052,2055,2080,2062,2060,2126
2050,2056,2051,2058,2071,2062,2048,2129
2035,2045,2031,2040,2059,2059,2027,2122
2041,2044,2029,2042,2063,2056,2026,2128
2043,2054,2040,2046,2066,2053,2035,2128
2042,2050,2039,2033,2061,2047,2040,2117
2038,2048,2035,2037,2061,2054,2036,2111
2045,2046,2034,2039,2050,2052,2049,2103
2040,2047,2034,2034,2047,2051,2038,2098
2032,2044,2038,2040,2083,2047,2033,2092
2032,2044,2039,2043,2109,2053,2041,2095
2037,2048,2048,2049,2132,2062,2068,2097
2048,2054,2057,2068,2145,2090,2074,2101
2044,2057,2051,2068,2139,2099,2085,2099
2046,2057,2040,2074,2140,2105,2069,2098
2045,2047,2029,2070,2149,2106,2076,2084
2041,2034,2021,2061,2126,2103,2057,2083
2038,2032,2018,2066,2098,2091,2052,2082
2031,2028,2019,2065,2028,2055,2026,2082
2038,2024,2017,2056,1930,2036,2034,2089
2042,2037,2039,2070,1963,2048,2056,2089
2043,2057,2065,2083,2003,2044,2032,2088
2047,2058,2071,2084,2024,2024,2036,2078
2048,2057,2078,2082,2029,2006,2050,2074
2047,2058,2078,2074,2033,1998,2028,2081
2045,2048,2094,2081,2035,1995,2037,2085
2049,2058,2110,2086,2034,1989,2007,2088
2042,2068,2114,2081,2031,1997,2005,2084
2041,2068,2111,2080,2024,2016,2012,2099
2041,2065,2097,2074,2036,2034,2016,2094
2041,2059,2083,2064,2035,2053,2014,2096
2035,2048,2075,2048,2046,2063,2027,2100
2032,2045,2060,2034,2053,2070,2037,2105
2025,2031,2046,2018,2044,2060,2033,2098
2013,2024,2036,1998,2013,2057,2027,2096
2016,2030,2042,1994,2003,2058,2031,2100
2034,2052,2055,2006,2009,2086,2024,2098
2033,2053,2056,2013,2008,2080,2044,2095
2035,2051,2055,2029,2027,2065,2054,2100
2036,2058,2064,2051,2060,2060,2065,2099
2044,2070,2071,2070,2089,2035,2074,2107
2051,2076,2077,2076,2104,2016,2060,2111
2055,2076,2070,2079,2095,2026,2048,2110
2063,2076,2061,2073,2074,2043,2049,2102
2054,2061,2054,2065,2067,2062,2059,2092
2049,2055,2048,2059,2067,2080,2059,2085
2048,2065,2052,2059,2070,2087,2062,2085
2046,2066,2043,2064,2063,2090,2035,2084
2044,2056,2038,2055,2059,2075,2045,2080
2035,2046,2040,2052,2060,2071,2050,2074
2030,2036,2033,2038,2052,2052,2028,2064
2033,2031,2022,2029,2038,2037,2016,2072
2038,2042,2029,2035,2043,2038,2019,2075
2042,2036,2022,2035,2043,2017,2023,2076
2053,2046,2036,2027,2040,2014,2032,2085
2054,2049,2041,2029,2039,2030,2054,2087
2054,2057,2047,2042,2041,2038,2035,2082
2048,2052,2045,2037,2024,2024,2044,2072
2038,2043,2033,2031,2026,2031,2034,2072
2041,2047,2028,2029,2029,2044,2041,2081
2040,2036,2021,2034,2035,2054,2051,2080
2030,2026,2013,2026,2032,2059,2060,2086
2023,2018,1998,2006,2034,2060,2062,2085
2028,2028,2014,2015,2042,2068,2078,2095
2044,2054,2043,2032,2034,2067,2070,2098
2049,2056,2055,2031,2009,2067,2052,2079
2029,2041,2044,2027,1974,2069,2044,2068
2008,2034,2048,2028,1956,2068,2042,2075
2019,2042,2044,2031,1947,2042,2049,2077
2035,2044,2036,2037,1982,2010,2050,2083
2034,2042,2041,2060,2034,1993,2062,2094
2041,2048,2058,2078,2078,2006,2055,2091
2049,2057,2062,2086,2085,2040,2053,2084
2041,2052,2057,2069,2066,2056,2049,2064
2042,2052,2062,2062,2062,2082,2052,2054
2051,2074,2085,2056,2054,2101,2028,2054
2057,2075,2086,2055,2047,2097,2035,2049
2050,2079,2081,2047,2044,2093,2040,2059
2041,2078,2089,2041,2030,2045,2051,2060
2052,2080,2088,2049,2060,2009,2062,2067
2055,2085,2089,2050,2074,2033,2060,2070
2058,2075,2070,2035,2061,2040,2048,2065
2050,2065,2046,2014,2028,2029,2059,2065
2049,2054,2039,2021,2017,2025,2039,2060
2051,2062,2041,2032,2036,2032,2032,2052
2049,2070,2057,2050,2080,2041,2036,2059
2051,2077,2066,2074,2091,2052,2028,2052
2060,2081,2068,2092,2097,2055,2056,2060
2062,2076,2065,2093,2103,2060,2065,2069
2063,2076,2064,2080,2090,2053,2033,2066
2055,2074,2061,2066,2056,2056,2047,2081
2057,2078,2069,2065,2017,2047,2054,2082
2057,2076,2075,2067,2036,2050,2060,2086
2057,2075,2068,2079,2051,2056,2043,2072
2047,2058,2052,2084,2034,2049,2045,2070
2033,2041,2048,2090,2013,2048,2046,2073
2031,2041,2057,2083,2007,2050,2057,2073
2029,2039,2055,2081,1993,2049,2045,2076
2024,2025,2044,2074,1982,2040,2040,2075
2034,2032,2044,2085,1977,2007,2032,2093
2041,2064,2071,2092,1977,1999,2035,2091
2045,2066,2068,2094,1997,2001,2056,2080
2043,2061,2060,2095,2045,2036,2046,2071
2043,2052,2036,2089,2105,2068,2056,2055
2038,2048,2026,2075,2082,2061,2057,2049
2042,2044,2027,2062,2031,2037,2056,2050
2042,2038,2013,2048,2014,2028,2038,2045
2045,2042,2025,2044,1986,2015,2039,2037
2049,2039,2021,2021,1990,2042,2032,2039
2041,2042,2027,2016,2025,2052,2034,2035
2039,2042,2022,2018,2056,2043,2031,2032
2035,2033,2019,2028,2120,2060,2032,2034
2035,2038,2017,2041,2150,2083,2055,2041
2040,2037,2026,2040,2141,2092,2051,2031
2034,2034,2030,2051,2142,2094,2050,2039
2035,2046,2047,2054,2093,2084,2045,2037
2040,2060,2068,2072,2086,2082,2056,2041
2050,2066,2079,2086,2106,2084,2047,2039
2053,2070,2083,2087,2075,2064,2049,2036
2049,2062,2080,2062,1992,2036,2036,2040
2047,2055,2074,2031,2004,2035,2037,2039
2042,2051,2060,2032,2023,2052,2043,2038
2039,2054,2056,2032,2055,2063,2031,2041
2038,2050,2051,2046,2076,2063,2031,2046
2034,2049,2047,2038,2067,2063,2042,2046
2040,2042,2038,2020,2049,2048,2057,2051
2040,2041,2040,2008,2026,2038,2049,2058
2038,2049,2053,2010,2026,2028,2051,2065
2044,2051,2065,2023,2030,2032,2048,2070
2044,2055,2072,2038,2046,2045,2059,2073
2047,2044,2071,2027,2043,2046,2054,2079
2049,2047,2047,2018,2036,2047,2059,2074
2044,2053,2044,2013,2037,2058,2055,2068
2047,2059,2046,2015,2037,2060,2062,2063
2045,2056,2047,2014,2042,2049,2057,2060
2040,2056,2049,2024,2038,2047,2033,2069
2052,2055,2046,2028,2032,2040,2034,2063
2056,2056,2050,2036,2026,2043,2043,2057
2053,2051,2050,2037,2040,2044,2040,2056
2050,2057,2053,2033,2040,2041,2057,2048
2042,2051,2044,2032,2045,2055,2044,2043
2046,2044,2042,2031,2036,2051,2026,2038
2040,2042,2036,2026,2029,2041,2024,2031
2042,2043,2039,2030,2031,2047,2040,2028
2041,2040,2035,2039,2039,2062,2048,2026
2043,2049,2021,2035,2041,2055,2040,2019
2039,2037,2017,2032,2036,2051,2023,2020
2033,2030,2015,2034,2039,2049,2048,2020
2036,2041,2018,2033,2021,2083,2041,2015
2040,2042,2012,2021,1970,2073,2038,2014
2036,2045,2022,2025,1955,2064,2030,2015
2037,2047,2037,2034,1959,2052,2034,2019
2042,2055,2057,2046,1993,2009,2028,2033
2049,2064,2063,2069,2065,2006,2060,2046
2055,2066,2065,2083,2113,2047,2072,2044
2058,2058,2057,2079,2113,2085,2054,2045
2048,2056,2054,2066,2094,2088,2053,2050
2047,2048,2046,2048,2063,2078,2064,2043
2049,2040,2041,2034,2043,2051,2038,2047
2041,2030,2028,2028,2014,2034,2043,2046
2036,2025,2024,2025,2033,2032,2038,2047
2039,2031,2034,2038,2054,2036,2037,2052
2036,2039,2035,2029,2057,2036,2018,2044
2029,2032,2026,2017,2047,2034,2014,2048
2026,2029,2026,2017,2047,2049,2011,2053
2036,2041,2035,2026,2060,2060,2037,2048
2035,2042,2034,2024,2064,2064,2052,2039
2038,2037,2032,2017,2065,2072,2059,2046
2045,2048,2035,2026,2068,2073,2056,2047
2057,2061,2062,2043,2068,2058,2049,2038
2061,2069,2076,2042,2065,2030,2048,2036
2055,2065,2065,2046,2053,2018,2041,2026
2052,2053,2052,2037,2044,2017,2044,2017
2038,2052,2059,2037,2035,2017,2021,2023
2047,2049,2072,2039,2029,2019,2032,2024
2054,2062,2080,2042,2032,2027,2054,2022
2055,2055,2072,2037,2035,2036,2044,2019
2052,2059,2059,2043,2045,2046,2050,2019
2058,2060,2058,2042,2030,2043,2046,2018
2050,2052,2051,2033,2017,2034,2020,2018
2048,2045,2050,2036,2018,2047,2030,2019
2049,2053,2045,2033,2021,2056,2031,2019
2054,2056,2053,2040,2056,2076,2031,2031
2064,2070,2070,2068,2073,2093,2050,2042
2073,2073,2066,2069,2077,2090,2052,2039
2066,2063,2060,2056,2076,2089,2067,2038
2056,2054,2045,2050,2074,2088,2063,2033
2041,2048,2038,2044,2060,2086,2056,2035
2054,2055,2037,2048,2057,2084,2050,2034
2057,2058,2033,2049,2062,2073,2012,2034
2058,2061,2035,2045,2052,2023,2032,2030
2049,2043,2032,2038,2048,2008,2022,2021
2036,2037,2030,2031,2030,2032,2025,2020
2028,2036,2027,2030,2019,2047,2029,2026
2033,2036,2022,2033,1999,2061,2044,2026
2028,2029,2002,2022,1971,2047,2039,2020
2029,2029,1992,2017,1976,2012,2031,2036
2036,2044,2000,2022,1996,2005,2039,2051
2047,2044,1995,2026,2021,2003,2046,2042
2045,2044,2005,2032,2056,2017,2062,2043
2046,2050,2023,2050,2088,2019,2053,2043
2048,2041,2031,2052,2087,2013,2042,2038
2038,2033,2030,2042,2058,2021,2024,2032
2031,2030,2029,2031,2039,2031,2030,2016
2029,2030,2022,2038,2033,2033,2032,2008
2028,2033,2033,2048,2038,2036,2041,2004
2039,2046,2049,2065,2071,2047,2038,2015
2054,2063,2083,2092,2085,2047,2070,2016
2056,2067,2117,2102,2070,2043,2069,2012
2051,2067,2129,2092,2048,2050,2061,2006
2048,2068,2130,2094,2043,2055,2046,2004
2052,2068,2117,2083,2039,2046,2038,2000
2042,2049,2088,2059,2036,2040,2032,1999
2039,2034,2059,2044,2038,2049,2050,2003
2042,2036,2036,2046,2048,2049,2048,2008
2044,2044,2040,2051,2046,2051,2036,2017
2052,2052,2050,2049,2045,2063,2064,2024
2054,2064,2074,2056,2047,2072,2066,2029
2053,2082,2098,2063,2056,2075,2055,2027
2059,2081,2116,2069,2058,2072,2055,2028
2050,2065,2108,2060,2091,2067,2051,2030
2037,2054,2097,2060,2117,2066,2069,2029
2045,2051,2088,2053,2115,2085,2061,2026
2042,2052,2085,2057,2097,2101,2054,2025
2044,2054,2077,2045,2067,2100,2048,2026
2040,2052,2077,2040,2050,2082,2033,2027
2042,2054,2071,2057,2053,2035,2036,2038
2044,2058,2068,2069,2107,1971,2031,2046
2046,2045,2068,2069,2131,1988,2042,2046
2048,2052,2057,2060,2065,2030,2048,2043
2052,2061,2048,2038,1977,2043,2065,2034
2042,2048,2032,2018,1988,2044,2049,2024
2044,2050,2033,2006,2008,2047,2027,2015
2040,2045,2030,2013,2025,2052,2035,2008
2039,2042,2032,2035,2036,2050,2060,2005
2042,2042,2028,2034,2033,2068,2060,1999
2048,2045,2030,2040,2044,2072,2052,1990
2056,2051,2032,2035,2050,2072,2045,1986
2047,2049,2039,2048,2057,2072,2055,1987
2046,2052,2056,2077,2064,2040,2053,1983
2042,2056,2061,2089,2051,2024,2043,1974
2036,2056,2059,2085,2045,2017,2041,1971
2043,2050,2057,2081,2036,2029,2050,1962
2044,2040,2047,2078,2053,2053,2039,1956
2042,2036,2043,2070,2059,2064,2035,1956
2037,2027,2051,2072,2068,2084,2051,1954
2045,2039,2056,2085,2071,2103,2040,1959
2048,2049,2055,2083,2061,2104,2063,1952
2048,2057,2058,2080,2044,2097,2047,1952
2047,2050,2036,2053,2044,2050,2058,1966
2046,2047,2030,2038,2045,2005,2047,1973
2048,2047,2029,2031,2037,2005,2055,1973
2052,2057,2042,2034,2022,2020,2051,1972
2054,2053,2055,2048,2029,2029,2052,1980
2051,2054,2058,2054,1999,2022,2047,1988
2052,2052,2057,2055,1979,2020,2062,1990
2050,2045,2056,2051,1965,2016,2062,1995
2056,2058,2058,2047,1952,2022,2065,1994
2058,2060,2064,2050,1961,2032,2064,1998
2058,2065,2066,2046,1963,2040,2064,2003
2052,2054,2060,2052,1971,2060,2051,1996
2045,2051,2064,2059,2058,2081,2067,1994
2049,2050,2071,2072,2133,2087,2065,1997
2049,2066,2074,2074,2138,2081,2058,1990
2056,2064,2078,2060,2131,2066,2049,1990
2060,2065,2075,2050,2180,2057,2053,1991
2054,2070,2078,2049,2217,2065,2041,1987
2056,2067,2077,2050,2210,2067,2047,1981
2053,2059,2053,2046,2162,2072,2059,1976
2059,2064,2050,2034,2120,2077,2058,1987
2057,2057,2043,2029,2124,2078,2056,1975
2063,2064,2035,2018,2103,2050,2048,1972
2061,2059,2040,2000,2020,2014,2040,1967
2066,2066,2041,2010,2022,2014,2030,1968
2058,2068,2041,2010,2058,2026,2056,1970
2064,2063,2037,2021,2069,2050,2063,1960
2054,2053,2034,2035,2096,2074,2039,1948
2047,2043,2030,2034,2117,2085,2027,1945
2043,2042,2035,2041,2123,2087,2040,1952
2055,2052,2043,2037,2062,2044,2057,1946
2044,2048,2037,2001,1946,1998,2044,1953
2042,2050,2038,1995,1943,1986,2035,1954
2036,2047,2035,1996,1911,1997,2049,1957
2045,2051,2040,2006,1926,2029,2057,1963
2039,2048,2033,2009,1920,2053,2039,1965
2044,2043,2036,2012,1917,2055,2050,1970
2052,2057,2047,2012,1918,2045,2044,1969
2049,2055,2037,2008,1922,2003,2034,1980
2047,2054,2054,2035,1968,1973,2062,1997
2052,2061,2054,2076,2010,2027,2065,2006
2055,2061,2053,2059,1924,2054,2068,1997
2040,2048,2046,2025,1915,2072,2070,1986
2029,2032,2030,2016,2009,2056,2053,1985
2022,2018,2015,2020,2104,2050,2041,1981
2028,2025,2022,2045,2148,2067,2043,1974
2038,2036,2028,2051,2127,2065,2036,1978
2042,2031,2020,2056,2090,2054,2016,1973
2042,2027,2016,2049,2069,2025,2012,1974
2032,2029,2017,2039,2069,1966,2003,1961
2042,2030,2016,2046,2088,1960,2002,1970
2041,2029,2022,2065,2094,1983,2016,1959
2049,2040,2039,2075,2119,2008,2041,1965
2058,2056,2061,2088,2139,2023,2044,1971
2064,2069,2063,2078,2064,2008,2047,1976
2074,2078,2052,2047,1972,2005,2052,1980
2068,2070,2040,2024,1958,2036,2049,1985
2072,2068,2031,2027,2024,2087,2051,1975
2067,2062,2028,2039,2128,2137,2059,1971
2061,2057,2036,2062,2200,2158,2081,1970
2061,2060,2038,2060,2150,2136,2071,1967
2053,2053,2036,2050,2125,2129,2084,1981
2057,2066,2047,2072,2176,2188,2098,1998
2064,2072,2047,2053,2114,2184,2103,1988
2055,2063,2039,2015,2002,2124,2062,1982
2049,2047,2018,1992,1980,2035,2034,1958
2030,2033,1996,2000,2172,1958,2014,1955
2030,2035,1998,2016,2114,1924,2021,1964
2041,2040,2003,2013,1911,1955,2047,1976
2052,2050,2016,2068,1962,1996,2055,1982
2051,2052,2041,2085,1970,2006,2047,1976
2050,2050,2044,2077,1942,2013,2034,1974
2041,2040,2039,2076,1939,2032,2035,1977
2039,2034,2043,2089,1988,2034,2048,1979
2039,2027,2034,2092,2002,2034,2028,1968
2038,2022,2028,2071,2001,2007,2020,1966
2031,2025,2028,2048,2049,1975,2021,1989
2046,2037,2044,2057,2077,1981,2044,2017
2070,2063,2066,2063,2084,2050,2076,2023
2078,2079,2070,2065,2132,2123,2090,2019
2076,2078,2076,2070,2099,2178,2094,2011
2067,2077,2076,2053,1933,2172,2094,2011
2065,2079,2068,2024,1853,2112,2079,2010
2055,2072,2049,1968,1702,2035,2025,1998
2054,2071,2044,1956,1701,2017,2073,2007
2061,2080,2042,2005,1836,2057,2090,2015
2067,2090,2058,2068,2005,2085,2068,2010
2066,2080,2069,2097,2198,2110,2083,2010
2064,2076,2068,2115,2397,2116,2103,2002
2071,2076,2070,2101,2462,2095,2080,1991
2062,2076,2070,2106,2402,2087,2054,1970
2058,2065,2056,2076,2251,2074,2042,1956
2046,2049,2043,2080,2149,2107,2025,1946
2034,2030,2029,2072,2006,2109,2006,1934
2028,2025,2032,2035,1899,2039,2018,1937
2035,2029,2037,2058,1929,1946,2000,1947
2027,2033,2047,2067,1879,1898,1984,1959
2034,2032,2064,2076,1823,1880,2010,1991
2053,2046,2081,2092,1845,1943,2024,1989
2046,2044,2079,2075,1893,2006,2036,1982
2048,2050,2079,2109,2060,2089,2049,1989
2061,2067,2086,2151,2213,2140,2060,2004
2066,2067,2077,2135,2171,2083,2058,2005
2053,2059,2065,2077,2042,2027,2044,2002
2041,2059,2059,2012,1976,2010,2042,2010
2044,2058,2047,1947,1896,1993,2045,2010
2036,2047,2026,1899,1923,2007,2057,2005
2037,2043,2029,1933,2210,2056,2079,2014
2049,2041,2026,1992,2439,2093,2078,2019
2049,2033,2012,2023,2410,2104,2065,2017
2053,2037,2011,2014,2118,2111,2078,2028
2063,2048,2011,2004,2023,2120,2087,2044
2068,2051,2018,2052,2267,2168,2079,2058
2079,2061,2029,2087,2326,2202,2093,2053
2074,2062,2032,2084,2188,2206,2114,2046
2092,2070,2035,2057,2078,2177,2118,2048
2088,2059,2031,2024,1992,2158,2096,2037
2075,2045,2006,2002,1949,2097,2084,2020
2062,2038,1995,2014,2062,2008,2069,1993
2060,2020,1980,2011,2147,1963,2040,1966
2030,2002,1972,1999,2138,1942,2020,1953
2013,2006,1979,2008,2147,1940,2008,1941
2020,2009,1978,2019,2040,1989,2027,1945
2033,2008,1980,2033,1983,2017,2017,1928
2025,2027,1979,2025,1974,1983,1994,1912
2008,2033,1988,2010,1943,1966,1966,1908
2009,2054,2011,1996,1949,1988,2007,1935
2032,2072,2043,2016,2066,2047,2036,1952
2036,2077,2065,2026,2154,2082,2043,1956
2033,2075,2076,2031,2186,2082,2040,1959
2029,2066,2060,2015,2117,2054,2029,1977
2034,2059,2059,2029,2152,2051,2039,1987
2040,2050,2065,2055,2230,2058,2030,1989
2044,2051,2097,2069,2242,2055,2032,1987
2056,2064,2118,2096,2192,2046,2054,1991
2066,2062,2130,2100,2115,2030,2043,1996
2074,2054,2108,2094,2064,2036,2056,1999
2049,2022,2085,2091,1979,2040,2044,2000
2044,2016,2073,2058,1816,2024,2036,2004
2043,2003,2062,2023,1658,1986,2033,2014
2045,2007,2070,2020,1686,1986,2033,2019
2048,2002,2056,2032,1821,2016,2025,2028
2046,2005,2026,2019,1881,2008,2024,2012
2038,2002,2001,2008,1974,2001,2019,2001
2022,1997,1989,2027,2098,2028,2019,1989
2026,2000,2003,2060,2149,2042,2028,1982
2026,2011,2010,2040,2086,2042,2049,1982
2036,2028,2016,2023,2012,2056,2051,1993
2039,2027,2010,2000,1986,2050,2055,1987
2034,2013,2005,1990,1972,2019,2060,1991
2030,2050,2020,2002,1987,2022,2072,2002
2040,2069,2028,2015,2004,2034,2082,2021
2049,2069,2021,2006,1991,2031,2069,2020
2057,2071,2016,2010,1957,1995,2077,2026
2056,2066,2027,2022,1961,1990,2073,2013
2060,2064,2036,2032,1977,1994,2057,1999
2052,2060,2039,2040,1997,1994,2042,1992
2046,2058,2034,2056,2011,2013,2036,1982
2043,2051,2037,2089,2055,2049,2032,1992
2042,2056,2043,2117,2124,2069,2039,1993
2048,2059,2051,2120,2249,2087,2045,1998
2053,2065,2053,2115,2378,2108,2037,2009
2063,2073,2052,2103,2436,2136,2039,2019
2067,2071,2051,2118,2463,2129,2062,2024
2067,2065,2052,2141,2377,2091,2075,2023
2060,2059,2053,2120,2153,2061,2069,2011
2054,2064,2063,2104,2002,2057,2072,2016
2053,2052,2057,2068,1859,2026,2056,2008
2049,2046,2054,2033,1813,1999,2039,2001
2041,2043,2053,2034,1772,1977,2001,2002
2041,2033,2044,2025,1647,1974,2000,2004
2041,2030,2045,2050,1752,2002,2028,2016
2044,2040,2070,2078,1900,2030,2039,2024
2053,2043,2072,2065,1905,2024,2017,2025
2047,2041,2063,2032,1939,2009,2014,2022
2047,2040,2064,2025,2007,2023,2016,2025
2058,2044,2068,2021,2056,2037,2022,2027
2056,2045,2057,2003,2048,2039,2024,2031
2060,2039,2038,1996,2088,2037,2017,2023
2051,2032,2019,1986,2110,2047,2037,2017
2048,2036,2015,2025,2177,2031,2060,2017
2051,2038,2023,2062,2197,2029,2052,2013
2050,2040,2022,2074,2110,2031,2078,2006
2049,2037,2027,2088,2172,2063,2068,2007
2049,2037,2017,2085,2232,2083,2057,2008
2054,2034,2010,2078,2167,2033,2043,2012
2050,2041,2000,2054,2033,2017,2039,2014
2056,2037,1996,2038,1997,2013,2044,2013
2054,2036,2004,2031,1956,2012,2039,2006
2051,2041,2023,2000,1799,1992,2027,1990
2045,2031,2018,1959,1643,1950,2021,1990
2040,2042,2038,1972,1771,1951,2020,1999
2058,2057,2071,2031,1945,1974,2052,2011
2054,2059,2070,2043,1948,1969,2029,2017
2052,2049,2046,2032,1962,1977,2039,1999
2041,2031,2030,2013,2008,1999,2021,1994
2047,2039,2049,2053,2080,2047,2036,2005
2056,2054,2062,2088,2119,2067,2044,2026
2064,2059,2061,2094,2147,2083,2064,2029
2062,2052,2059,2094,2162,2115,2077,2031
2054,2043,2048,2085,2135,2116,2060,2020
2048,2030,2042,2055,2075,2081,2059,2025
2050,2036,2044,2050,2078,2072,2046,2033
2050,2040,2052,2065,2105,2077,2053,2037
2050,2042,2065,2070,2109,2076,2065,2040
2055,2049,2082,2067,2116,2061,2050,2036
2053,2048,2085,2046,2096,2027,2022,2036
2042,2039,2075,2028,2035,2013,2029,2039
2040,2038,2070,2025,2005,2024,2048,2039
2051,2046,2063,2020,1957,2061,2037,2019
2045,2046,2042,1987,1736,2060,2015,2003
2038,2043,2039,1990,1764,2073,2025,1999
2033,2043,2036,2017,1855,2078,2022,2002
2047,2050,2031,2021,1892,2015,2017,2014
2059,2060,2043,2070,2048,1988,2057,2028
2061,2068,2056,2098,2133,2037,2066,2034
2064,2068,2052,2092,2125,2079,2059,2026
2067,2069,2061,2086,2155,2099,2060,2026
2063,2075,2068,2079,2154,2098,2066,2035
2070,2076,2068,2060,2070,2068,2071,2027
2072,2072,2053,2016,1919,2014,2060,2024
2070,2061,2050,2012,1906,2008,2066,2024
2064,2064,2058,2033,1994,2030,2050,2019
2057,2054,2058,2036,2030,2030,2040,2016
2049,2052,2070,2039,2030,2027,2030,2005
2053,2056,2083,2048,2068,2046,2028,2001
2049,2044,2069,2038,2032,2040,2025,2000
2039,2034,2044,2019,1984,2030,2035,2005
2045,2041,2049,2043,2069,2032,2049,2005
2049,2036,2040,2065,2174,2053,2051,2004
2042,2025,2029,2074,2210,2066,2037,2003
2043,2026,2021,2073,2167,2058,2049,2009
2038,2033,2032,2073,2139,2064,2052,2014
2042,2033,2038,2076,2120,2062,2046,2024
2040,2030,2042,2069,2086,2052,2037,2022
2052,2035,2036,2066,2043,2043,2041,2031
2046,2033,2037,2043,2001,2032,2045,2040
2044,2039,2030,2034,1973,2024,2036,2047
2050,2037,2035,2035,1982,2042,2023,2041
2044,2034,2033,2026,1982,2074,2029,2030
2042,2035,2051,2039,2017,2102,2054,2036
2050,2046,2059,2052,2036,2114,2066,2038
2058,2048,2062,2048,2025,2104,2021,2037
2055,2035,2053,2048,2027,2058,2020,2038
2051,2036,2052,2063,2072,2024,2025,2038
2051,2046,2049,2060,2094,2031,2044,2036
2059,2042,2052,2065,2094,2053,2053,2033
2049,2048,2052,2071,2095,2063,2054,2026
2050,2051,2055,2073,2084,2053,2034,2024
2043,2043,2044,2064,2064,2036,2025,2015
2045,2048,2042,2062,2060,2038,2034,2010
2044,2049,2044,2064,2081,2049,2060,2007
2053,2052,2052,2063,2090,2057,2070,2014
2056,2053,2047,2068,2116,2068,2074,2016
2053,2051,2042,2067,2117,2072,2076,2012
2059,2045,2028,2063,2096,2070,2062,2008
2051,2040,2017,2059,2080,2050,2020,2004
2050,2049,2028,2058,2055,2047,2036,2000
2046,2048,2025,2044,2007,2011,2008,1999
2034,2040,2022,2045,2016,1988,2009,2001
2041,2039,2030,2060,2016,2024,2041,2008
2048,2054,2043,2064,1982,2078,2052,2011
2056,2056,2051,2037,1894,2084,2048,2007
2049,2047,2052,2030,1941,2082,2050,1992
2046,2044,2058,2046,2023,2047,2039,2012
2053,2042,2067,2060,2042,2003,2038,2026
2053,2050,2067,2063,2049,2013,2046,2036
2057,2047,2078,2064,2062,2032,2049,2032
2061,2052,2073,2071,2098,2038,2055,2037
2056,2055,2094,2093,2178,2051,2058,2040
2054,2054,2104,2120,2233,2058,2057,2041
2043,2055,2105,2117,2198,2055,2043,2040
2038,2041,2093,2104,2164,2051,2049,2044
2046,2045,2078,2095,2123,2060,2047,2052
2056,2052,2070,2096,2074,2049,2041,2042
2055,2054,2074,2084,2000,2042,2060,2039
2046,2054,2067,2087,1982,2042,2070,2032
2033,2037,2053,2081,1924,2047,2046,2029
2040,2044,2048,2077,1962,2063,2054,2032
2049,2047,2043,2072,1998,2051,2043,2030
2049,2050,2040,2070,2006,2046,2047,2030
2053,2047,2037,2061,2017,2040,2027,2029
2048,2043,2034,2054,2031,2045,2045,2025
2046,2037,2017,2054,2027,2052,2066,2026
2041,2032,2018,2044,2020,2051,2060,2018
2039,2039,2025,2028,1998,2020,2038,2025
2046,2038,2032,2023,1986,2012,2033,2029
2052,2036,2039,2030,2004,2022,2047,2029
2056,2034,2040,2028,2001,2025,2046,2025
2049,2039,2046,2041,2008,2034,2045,2022
2058,2051,2056,2050,2038,2048,2036,2022
2057,2046,2052,2052,2033,2051,2038,2022
2053,2046,2044,2054,2018,2039,2056,2018
2056,2045,2041,2040,1995,2033,2040,2028
2053,2038,2039,2045,1987,2028,2042,2035
2058,2036,2047,2058,1995,2019,2026,2032
2041,2041,2058,2067,2015,2013,2006,2029
2050,2049,2068,2080,2069,2029,2013,2033
2049,2056,2071,2089,2136,2057,2034,2032
2036,2039,2063,2085,2135,2086,2050,2020
2034,2032,2069,2097,2148,2105,2070,2028
2039,2036,2080,2103,2098,2087,2072,2039
2050,2044,2082,2098,2070,2068,2049,2044
2054,2055,2084,2108,2077,2069,2072,2050
2050,2047,2073,2102,2092,2067,2060,2051
2046,2035,2067,2100,2084,2064,2059,2043
2041,2036,2062,2109,2096,2073,2075,2040
2054,2039,2057,2093,2097,2085,2069,2037
2053,2038,2043,2066,2051,2084,2052,2026
2045,2037,2049,2043,2024,2066,2049,2027
2042,2042,2059,2036,1999,2056,2036,2038
2057,2037,2060,2007,1861,2028,2039,2037
2057,2040,2053,2001,1815,2014,2040,2023
2060,2041,2044,2000,1863,1993,2017,2014
2049,2030,2036,2013,1946,1994,2026,2010
