CH1,CH2,CH3,CH4,CH5,CH6,CH7,CH8
2046,2053,2056,2061,2053,2053,2059,2040
2049,2057,2072,2069,2068,2055,2047,2054
2053,2066,2083,2081,2076,2055,2065,2066
2055,2070,2093,2088,2078,2055,2052,2079
2056,2066,2096,2092,2085,2047,2054,2091
2055,2065,2087,2093,2070,2047,2070,2108
2049,2059,2079,2088,2060,2050,2076,2107
2049,2053,2075,2086,2042,2046,2061,2104
2035,2041,2063,2083,2035,2049,2045,2109
2036,2039,2065,2085,2032,2051,2048,2102
2043,2048,2060,2077,2028,2047,2042,2103
2041,2044,2046,2064,2021,2029,2038,2088
2047,2046,2045,2063,2036,2041,2040,2087
2048,2047,2044,2072,2078,2064,2043,2078
2048,2046,2032,2066,2072,2074,2038,2060
2054,2049,2021,2068,2054,2078,2061,2048
2052,2043,2022,2064,2050,2087,2054,2031
2049,2040,2009,2065,2049,2094,2050,2023
2044,2031,2004,2054,2049,2089,2042,2016
2045,2034,1990,2038,2042,2084,2047,2010
2044,2029,1988,2019,2019,2060,2048,2005
2044,2038,1998,2010,1993,1999,2041,1998
2041,2041,2027,2015,1998,1983,2050,1990
2045,2053,2060,2016,2004,1999,2051,1988
2049,2056,2076,2020,2016,2017,2050,1990
2050,2055,2076,2026,2035,2031,2062,1998
2058,2057,2065,2027,2056,2047,2061,1994
2053,2052,2058,2026,2050,2056,2063,1999
2056,2052,2062,2031,2045,2055,2063,2003
2048,2047,2070,2037,2054,2054,2058,2013
2040,2039,2069,2038,2085,2049,2066,2025
2036,2036,2065,2052,2077,2043,2064,2031
2047,2040,2061,2047,2063,2033,2054,2038
2045,2036,2048,2040,2033,2020,2059,2042
2037,2038,2040,2038,2028,2028,2043,2047
2042,2043,2048,2058,2069,2061,2059,2066
2044,2059,2076,2090,2104,2073,2080,2087
2046,2058,2089,2101,2132,2076,2076,2111
2054,2059,2087,2097,2130,2085,2083,2109
2055,2045,2075,2084,2107,2076,2085,2104
2039,2033,2053,2063,2079,2059,2063,2100
2035,2032,2046,2060,2056,2050,2056,2105
2047,2045,2049,2060,2052,2050,2053,2099
2041,2051,2049,2062,2098,2048,2070,2089
2043,2049,2050,2060,2133,2053,2074,2078
2037,2048,2044,2062,2136,2048,2060,2067
2049,2052,2043,2053,2121,2046,2055,2054
2044,2045,2045,2054,2121,2045,2053,2055
2052,2056,2043,2052,2119,2053,2056,2043
2053,2056,2045,2048,2098,2047,2057,2032
2056,2051,2042,2037,2074,2051,2045,2027
2044,2051,2045,2032,2047,2053,2063,2022
2052,2051,2048,2027,1986,2045,2072,2014
2046,2050,2043,2017,1945,2036,2053,2012
2048,2049,2040,2026,1971,2035,2077,2006
2043,2046,2046,2035,1999,2032,2074,1994
2037,2043,2039,2030,2004,2029,2051,1997
2038,2041,2033,2035,2007,2021,2054,1994
2047,2061,2048,2041,2022,2040,2056,1999
2052,2058,2049,2044,2025,2037,2059,2005
2050,2058,2049,2039,2028,2042,2066,2009
2054,2063,2053,2045,2025,2050,2051,2013
2057,2067,2052,2059,2031,2061,2056,2020
2044,2062,2045,2051,2055,2068,2060,2032
2037,2051,2041,2049,2071,2071,2075,2031
2038,2049,2044,2056,2084,2064,2073,2037
2037,2055,2046,2054,2081,2064,2058,2053
2036,2047,2040,2060,2080,2063,2047,2069
2040,2053,2035,2060,2081,2065,2037,2081
2038,2046,2027,2058,2074,2057,2036,2091
2035,2043,1998,2056,2054,2049,2064,2099
2035,2039,1980,2049,2035,2045,2059,2104
2027,2029,1963,2056,2026,2040,2057,2105
2029,2028,1977,2061,2003,2041,2042,2114
2037,2038,1994,2066,2023,2049,2066,2116
2044,2044,2009,2069,2033,2046,2077,2104
2037,2047,2003,2069,2028,2052,2059,2090
2036,2050,2014,2076,2030,2048,2056,2080
2041,2041,2018,2082,2036,2055,2077,2068
2044,2047,2016,2076,2030,2054,2063,2058
2051,2051,2009,2068,2042,2059,2072,2038
2051,2052,2001,2062,2040,2044,2064,2027
2048,2042,2005,2042,2017,2022,2054,2014
2033,2033,2013,2022,2030,2013,2031,2003
2028,2031,2025,2017,2040,2021,2023,2003
2026,2046,2068,2033,2060,2034,2042,2003
2038,2065,2104,2052,2080,2046,2038,1999
2042,2072,2092,2041,2069,2046,2033,1998
2043,2051,2058,2023,2041,2034,2039,1987
2037,2043,2046,2007,2017,2024,2021,1987
2042,2053,2075,2016,2018,2032,2039,2003
2044,2071,2092,2020,2019,2038,2050,2002
2052,2067,2094,2023,2027,2045,2038,2015
2049,2071,2097,2019,2056,2054,2056,2016
2046,2070,2103,2025,2087,2061,2049,2023
2045,2061,2106,2028,2084,2062,2051,2032
2046,2061,2101,2028,2071,2059,2047,2037
2049,2059,2082,2022,2072,2060,2057,2035
2042,2053,2066,2030,2071,2060,2067,2050
2039,2050,2069,2037,2080,2068,2074,2067
2045,2056,2073,2051,2090,2076,2071,2080
2046,2058,2071,2047,2080,2075,2072,2090
2039,2062,2072,2042,2072,2069,2082,2103
2041,2060,2072,2044,2066,2061,2078,2110
2042,2061,2070,2040,2048,2052,2056,2106
2030,2046,2058,2027,2036,2047,2049,2116
2036,2042,2050,2029,2030,2046,2043,2109
2042,2046,2055,2031,2029,2046,2042,2112
2045,2052,2054,2031,2021,2046,2057,2113
2041,2048,2053,2032,2018,2044,2058,2098
2045,2055,2057,2029,2014,2035,2042,2087
2046,2059,2056,2032,2013,2033,2045,2070
2051,2058,2050,2029,2027,2035,2055,2053
2045,2047,2042,2028,2048,2041,2052,2042
2042,2037,2031,2040,2052,2035,2049,2036
2035,2039,2035,2040,2038,2038,2053,2028
2041,2049,2040,2039,2032,2044,2050,2017
2039,2045,2044,2036,2030,2041,2056,2008
2045,2041,2046,2044,2040,2040,2066,2005
2045,2046,2056,2053,2053,2045,2063,2002
2047,2040,2058,2062,2058,2049,2039,2001
2049,2039,2058,2052,2059,2043,2044,1993
2046,2029,2048,2048,2049,2043,2026,1989
2038,2030,2054,2060,2050,2046,2028,1994
2040,2040,2068,2082,2063,2056,2036,2000
2044,2043,2076,2094,2074,2061,2048,2008
2045,2041,2078,2100,2080,2062,2023,2017
2056,2054,2080,2104,2066,2060,2045,2018
2054,2062,2082,2098,2031,2060,2046,2022
2062,2062,2084,2088,2005,2053,2039,2028
2060,2060,2070,2081,2017,2052,2045,2030
2050,2054,2053,2069,2047,2051,2036,2049
2057,2053,2045,2060,2049,2064,2043,2059
2052,2055,2043,2053,2037,2072,2050,2068
2048,2043,2026,2034,2010,2052,2038,2079
2038,2039,2005,1998,1987,2047,2037,2086
2038,2034,2004,1987,1969,2032,2036,2097
2039,2044,2005,1973,1967,2011,2029,2104
2043,2033,2006,1972,1981,2001,2037,2112
2040,2044,2021,1983,2010,2021,2024,2114
2047,2059,2039,2005,2053,2026,2048,2123
2054,2065,2049,2030,2073,2032,2051,2112
2052,2061,2057,2032,2060,2045,2032,2099
2047,2062,2062,2041,2060,2045,2060,2085
2050,2063,2068,2043,2062,2049,2057,2067
2046,2057,2072,2041,2066,2050,2049,2055
2050,2055,2062,2043,2067,2050,2058,2046
2043,2049,2057,2041,2066,2045,2041,2029
2038,2044,2051,2045,2066,2039,2050,2023
2046,2045,2054,2041,2052,2035,2047,2016
2039,2044,2054,2040,2045,2046,2044,2015
2036,2042,2045,2043,2041,2054,2028,2000
2039,2035,2042,2031,2020,2049,2028,2002
2039,2034,2036,2017,2009,2046,2045,1995
2039,2037,2028,2022,2009,2034,2037,1984
2039,2046,2042,2034,2021,2036,2024,1991
2045,2060,2066,2052,2035,2050,2040,1998
2041,2061,2062,2043,2035,2045,2034,2006
2042,2054,2055,2039,2045,2038,2045,2009
2056,2054,2056,2044,2083,2053,2061,2016
2054,2053,2055,2056,2115,2066,2082,2021
2056,2056,2053,2054,2116,2064,2051,2021
2045,2053,2055,2048,2107,2057,2033,2037
2058,2056,2057,2048,2084,2056,2047,2042
2051,2055,2051,2052,2075,2054,2062,2057
2048,2048,2051,2047,2067,2052,2058,2066
2046,2046,2056,2047,2064,2052,2064,2085
2045,2048,2056,2041,2056,2044,2037,2098
2054,2049,2056,2036,2030,2044,2047,2104
2052,2049,2053,2033,2028,2044,2058,2108
2050,2047,2044,2043,2022,2036,2055,2106
2038,2035,2042,2048,2029,2040,2053,2109
2040,2047,2047,2061,2044,2050,2061,2107
2039,2041,2046,2061,2063,2078,2044,2100
2042,2041,2023,2066,2053,2086,2053,2094
2046,2038,2015,2061,2027,2077,2063,2084
2034,2038,2009,2058,1982,2054,2048,2067
2043,2036,2006,2052,1986,2041,2032,2050
2045,2035,2004,2058,2016,1995,2028,2047
2054,2038,2002,2057,2035,1984,2028,2038
2046,2040,2012,2069,2055,2013,2024,2031
2054,2042,2019,2078,2100,2032,2036,2029
2057,2040,2023,2068,2123,2050,2051,2014
2055,2034,2009,2059,2139,2070,2055,2019
2049,2032,2011,2052,2123,2079,2060,2007
2053,2028,2011,2044,2078,2073,2060,2003
2039,2023,2007,2034,2035,2061,2047,1987
2017,2008,1998,2010,1999,2034,2030,1973
2015,2009,2011,2019,2034,2044,2037,1981
2030,2017,2025,2020,2047,2055,2043,1988
2038,2029,2036,2038,2044,2054,2037,2001
2047,2045,2066,2035,2034,2062,2059,2008
2048,2058,2081,2046,2028,2062,2068,2017
2053,2067,2085,2048,2045,2064,2068,2034
2052,2059,2089,2051,2046,2056,2043,2038
2052,2060,2079,2033,2017,2042,2043,2046
2053,2051,2073,2029,2015,2034,2043,2058
2044,2044,2066,2023,2011,2032,2054,2065
2050,2051,2069,2033,2025,2040,2062,2088
2049,2056,2081,2037,2043,2045,2061,2097
2049,2059,2072,2047,2051,2040,2052,2108
2052,2056,2073,2032,2061,2038,2065,2110
2049,2044,2063,2034,2082,2033,2064,2111
2039,2035,2053,2027,2072,2033,2044,2119
2041,2031,2058,2035,2066,2048,2052,2123
2043,2042,2064,2039,2065,2052,2050,2116
2052,2049,2081,2045,2058,2060,2053,2108
2052,2062,2084,2055,2063,2057,2053,2101
2058,2056,2068,2061,2061,2057,2067,2084
2052,2046,2053,2056,2055,2054,2056,2064
2045,2046,2055,2058,2053,2055,2061,2056
2047,2045,2055,2052,2053,2046,2062,2045
2049,2044,2050,2050,2041,2037,2057,2037
2050,2044,2056,2057,2036,2030,2053,2034
2049,2045,2057,2056,2037,2027,2056,2024
2052,2055,2051,2060,2049,2031,2039,2013
2049,2050,2048,2069,2049,2030,2052,2009
2047,2049,2047,2076,2042,2029,2054,2006
2048,2044,2044,2073,2037,2040,2056,2001
2041,2028,2028,2068,2050,2040,2031,1999
2041,2030,2026,2075,2050,2051,2048,2007
2050,2041,2034,2076,2064,2067,2057,1999
2048,2044,2035,2084,2069,2064,2059,2001
2052,2052,2042,2086,2068,2060,2078,2013
2048,2052,2042,2081,2069,2061,2063,2014
2046,2046,2033,2078,2077,2057,2060,2023
2046,2053,2020,2069,2072,2044,2050,2022
2045,2047,2013,2066,2073,2031,2046,2037
2051,2046,2018,2076,2080,2039,2056,2050
2050,2047,2018,2074,2076,2045,2066,2058
2046,2044,2014,2071,2078,2045,2054,2072
2043,2040,2013,2058,2072,2041,2056,2081
2040,2041,2001,2048,2068,2040,2063,2090
2032,2034,2005,2040,2058,2035,2066,2094
2030,2037,2016,2049,2045,2037,2046,2099
2021,2027,2016,2054,2053,2029,2043,2101
2024,2028,2032,2059,2048,2037,2056,2109
2037,2044,2045,2060,2041,2040,2050,2106
2038,2054,2060,2049,2038,2044,2062,2099
2053,2064,2066,2030,2029,2037,2057,2094
2046,2070,2096,2018,2007,2032,2064,2085
2051,2069,2101,2002,1984,2024,2033,2066
2058,2059,2083,1982,1972,2012,2037,2052
2052,2050,2056,1972,1969,2023,2049,2043
2048,2042,2041,1985,1992,2035,2055,2037
2046,2039,2043,2008,2016,2039,2045,2028
2042,2042,2053,2028,2023,2046,2051,2024
2043,2047,2058,2036,2039,2054,2074,2014
2048,2044,2061,2045,2056,2058,2053,2014
2051,2043,2059,2050,2065,2069,2064,2006
2050,2043,2052,2053,2080,2069,2059,1996
2039,2034,2051,2049,2083,2064,2042,1992
2036,2029,2052,2045,2086,2070,2049,1996
2041,2047,2053,2050,2083,2066,2058,2004
2043,2045,2049,2051,2080,2059,2054,2006
2049,2045,2054,2054,2090,2049,2059,2014
2052,2047,2054,2061,2104,2058,2055,2022
2059,2055,2054,2056,2095,2048,2057,2033
2059,2058,2056,2061,2084,2038,2054,2042
2057,2061,2062,2064,2078,2034,2048,2047
2052,2057,2061,2064,2068,2032,2045,2058
2051,2049,2054,2065,2067,2030,2051,2071
2045,2038,2064,2067,2057,2024,2029,2088
2047,2040,2063,2069,2039,2020,2048,2100
2043,2041,2063,2068,2019,2014,2056,2115
2045,2046,2052,2055,1960,2004,2042,2112
2044,2031,2045,2028,1876,2004,2038,2111
2030,2016,2030,2018,1893,2005,2002,2100
2015,2017,2040,2044,2000,2042,2014,2097
2032,2027,2062,2077,2082,2060,2038,2095
2034,2029,2055,2074,2087,2033,2039,2103
2033,2038,2052,2081,2102,2013,2054,2105
2051,2044,2049,2089,2120,2029,2065,2088
2049,2036,2041,2086,2120,2050,2068,2075
2042,2029,2032,2072,2102,2062,2046,2058
2044,2025,2026,2055,2099,2073,2036,2042
2047,2035,2031,2047,2085,2068,2045,2032
2041,2047,2042,2042,2040,2066,2038,2025
2046,2048,2039,2032,1992,2049,2052,2023
2054,2052,2024,2028,1995,2040,2050,2016
2056,2044,2018,2035,2025,2056,2048,2012
2057,2042,2016,2044,2036,2087,2064,2005
2047,2038,2011,2037,2024,2104,2065,2007
2044,2027,1997,2016,1989,2092,2048,1993
2038,2016,1991,2002,1976,2092,2039,1988
2036,2030,2008,2003,1977,2097,2053,1995
2046,2031,2020,2006,2000,2079,2054,2009
2046,2036,2022,2015,2022,2055,2066,2018
2053,2045,2027,2023,2054,2012,2060,2030
2054,2054,2056,2041,2084,2016,2051,2046
2047,2068,2076,2052,2097,2028,2055,2056
2055,2073,2074,2039,2058,2035,2046,2066
2069,2063,2061,2034,2035,2038,2049,2073
2064,2067,2066,2047,2031,2039,2067,2079
2061,2069,2076,2046,2021,2035,2056,2094
2058,2067,2083,2046,2021,2034,2064,2094
2059,2067,2089,2039,2019,2040,2072,2110
2065,2079,2102,2056,2024,2049,2061,2126
2072,2081,2100,2054,2028,2049,2083,2130
2060,2073,2081,2049,2033,2040,2057,2117
2046,2057,2071,2050,2052,2037,2050,2119
2052,2056,2071,2047,2073,2029,2059,2119
2054,2050,2057,2059,2090,2041,2067,2112
2052,2050,2059,2060,2092,2050,2052,2095
2050,2054,2058,2061,2071,2050,2046,2085
2048,2049,2052,2053,2057,2041,2041,2068
2046,2045,2051,2046,2055,2036,2045,2060
2053,2054,2055,2042,2072,2026,2034,2045
2054,2058,2052,2040,2069,2036,2024,2034
2055,2051,2053,2036,2064,2039,2055,2025
2058,2046,2054,2039,2052,2044,2058,2015
2048,2041,2047,2045,2042,2044,2043,2015
2048,2048,2047,2049,2038,2050,2041,2002
2050,2042,2043,2054,2036,2052,2049,2000
2053,2040,2037,2064,2046,2048,2054,2001
2050,2039,2033,2076,2054,2043,2044,1994
2048,2026,2026,2084,2060,2041,2031,1993
2054,2031,2024,2096,2064,2056,2049,1997
2055,2041,2020,2106,2072,2058,2057,1992
2049,2035,2014,2094,2070,2070,2048,1991
2055,2030,2016,2094,2071,2070,2052,1999
2052,2028,2012,2090,2055,2066,2052,2003
2042,2031,2013,2081,2047,2054,2049,2012
2049,2034,2013,2078,2032,2023,2048,2023
2046,2035,2008,2073,2021,2006,2052,2040
2038,2031,2011,2049,2022,2028,2067,2051
2037,2034,2009,2038,2053,2055,2063,2063
2051,2035,2014,2029,2074,2065,2060,2082
2042,2027,2013,2011,2067,2076,2059,2089
2036,2022,2005,1984,2054,2069,2047,2097
2040,2036,2025,1973,2033,2059,2034,2107
2049,2059,2078,1995,2031,2041,2038,2107
2046,2068,2088,2007,2044,2015,2040,2124
2049,2083,2098,2025,2064,2018,2052,2130
2064,2092,2097,2034,2067,2037,2067,2125
2067,2083,2096,2035,2073,2052,2055,2117
2064,2076,2083,2032,2064,2054,2054,2104
2063,2069,2074,2037,2054,2053,2060,2096
2064,2064,2070,2041,2052,2047,2057,2077
2055,2067,2063,2040,2052,2044,2051,2056
2059,2062,2064,2046,2051,2050,2036,2048
2060,2067,2062,2051,2045,2046,2037,2035
2058,2060,2065,2052,2049,2047,2051,2035
2053,2061,2059,2049,2054,2044,2038,2022
2049,2058,2058,2049,2048,2047,2034,2015
2046,2061,2065,2050,2045,2047,2031,2006
2046,2062,2058,2042,2039,2041,2043,1999
2052,2062,2056,2038,2039,2044,2043,1992
2040,2044,2047,2035,2029,2034,2057,1986
2039,2041,2045,2029,2029,2036,2047,1988
2047,2053,2056,2036,2007,2048,2053,1990
2057,2052,2068,2046,2016,2048,2054,2000
2057,2059,2070,2051,2035,2051,2056,2005
2057,2064,2064,2051,2032,2053,2047,2012
2061,2063,2063,2054,2041,2057,2042,2015
2054,2061,2063,2058,2030,2056,2040,2031
2053,2061,2059,2056,2020,2054,2037,2035
2056,2059,2056,2058,2023,2057,2059,2049
2056,2057,2052,2058,2031,2045,2037,2064
2059,2059,2041,2054,2032,2030,2045,2070
2057,2056,2028,2042,2058,2026,2044,2075
2050,2053,2017,2047,2086,2038,2063,2090
2051,2047,2004,2048,2086,2043,2044,2100
2049,2042,2009,2054,2085,2049,2052,2097
2044,2036,1999,2051,2085,2050,2055,2100
2028,2020,1990,2058,2082,2048,2046,2102
2029,2022,1999,2070,2073,2047,2048,2106
2052,2046,2018,2076,2066,2041,2039,2106
2054,2048,2020,2077,2059,2044,2053,2099
2046,2048,2025,2079,2055,2048,2054,2086
2047,2045,2030,2081,2078,2052,2045,2066
2046,2049,2047,2076,2106,2046,2024,2052
2041,2054,2058,2074,2106,2048,2031,2042
2042,2048,2062,2075,2096,2043,2026,2030
2041,2043,2056,2065,2097,2046,2033,2019
2048,2045,2073,2067,2097,2048,2029,2015
2054,2057,2078,2061,2086,2052,2062,2015
2060,2054,2073,2047,2060,2054,2057,2010
2055,2052,2061,2033,2033,2043,2048,2003
2054,2056,2065,2023,1981,2037,2057,2001
2058,2056,2060,2016,1914,2027,2030,1996
2047,2043,2054,2007,1925,2028,2038,1990
2047,2039,2060,2024,1966,2038,2038,1997
2048,2050,2067,2039,2008,2055,2046,2004
2051,2052,2061,2052,2034,2059,2058,2006
2053,2061,2051,2057,2045,2058,2069,2003
2052,2055,2047,2054,2036,2043,2057,2005
2054,2055,2043,2038,2032,2041,2045,2016
2056,2054,2046,2033,2034,2040,2061,2024
2060,2062,2061,2039,2043,2047,2064,2035
2051,2059,2061,2051,2057,2047,2055,2051
2056,2052,2053,2061,2080,2046,2062,2058
2052,2051,2046,2056,2084,2054,2060,2072
2063,2048,2045,2053,2076,2063,2054,2080
2052,2041,2044,2045,2069,2059,2063,2090
2050,2040,2043,2035,2052,2062,2056,2100
2052,2049,2058,2027,2048,2064,2061,2114
2050,2047,2046,2016,2033,2052,2046,2115
2046,2049,2051,2007,2021,2042,2055,2112
2051,2060,2078,2017,2026,2037,2053,2117
2052,2072,2092,2029,2019,2038,2037,2106
2054,2067,2102,2038,2019,2033,2039,2089
2044,2061,2090,2044,2023,2037,2045,2081
2045,2056,2074,2050,2028,2044,2046,2074
2051,2048,2072,2046,2026,2040,2036,2051
2052,2047,2061,2041,2033,2042,2028,2046
2056,2047,2063,2039,2022,2042,2048,2039
2063,2055,2066,2039,2026,2043,2048,2026
2056,2055,2062,2048,2037,2048,2047,2020
2054,2042,2056,2042,2027,2044,2043,2007
2049,2030,2055,2047,2014,2038,2037,1999
2043,2032,2055,2047,2005,2030,2041,1998
2040,2035,2055,2041,1991,2026,2047,1996
2040,2041,2056,2036,1982,2017,2026,1985
2035,2035,2048,2030,1986,2023,2012,1978
2032,2035,2044,2027,2017,2034,2037,1993
2059,2059,2067,2056,2069,2055,2052,1996
2069,2062,2069,2062,2089,2060,2051,2004
2060,2053,2062,2062,2092,2068,2064,2009
2050,2049,2058,2059,2094,2066,2057,2008
2052,2043,2051,2051,2088,2061,2048,2010
2055,2049,2054,2053,2084,2055,2052,2018
2052,2047,2053,2052,2074,2053,2055,2020
2054,2053,2056,2060,2066,2059,2055,2035
2056,2056,2064,2056,2073,2060,2051,2049
2054,2058,2067,2064,2071,2061,2053,2066
2053,2057,2059,2062,2084,2064,2052,2084
2048,2050,2055,2058,2073,2052,2056,2095
2055,2049,2054,2054,2081,2049,2051,2099
2052,2053,2056,2058,2075,2047,2064,2102
2052,2041,2053,2072,2086,2043,2046,2107
2044,2034,2050,2076,2096,2047,2041,2104
2040,2034,2057,2083,2096,2052,2049,2104
2041,2043,2061,2079,2078,2052,2038,2098
2039,2035,2052,2072,2047,2057,2034,2091
2040,2036,2057,2062,2005,2053,2044,2075
2046,2040,2048,2059,2004,2064,2035,2061
2045,2040,2045,2058,2019,2071,2028,2046
2040,2032,2043,2053,2028,2068,2040,2033
2042,2030,2034,2047,2019,2068,2037,2021
2041,2034,2031,2046,2015,2057,2042,2012
2041,2040,2037,2057,2027,2022,2050,2014
2051,2051,2042,2063,2057,2019,2053,2009
2052,2050,2043,2059,2063,2023,2055,2004
2055,2041,2042,2046,2060,2032,2053,2003
2047,2037,2035,2032,2064,2034,2050,1996
2044,2031,2029,2023,2064,2038,2052,1989
2036,2022,2014,2013,2055,2037,2046,1986
2038,2016,2024,2018,2056,2044,2048,1986
2050,2037,2047,2037,2060,2073,2059,1991
2047,2044,2044,2036,2027,2076,2049,1986
2047,2043,2042,2040,2021,2072,2041,1994
2037,2044,2044,2053,2017,2071,2042,2003
2048,2048,2048,2047,2013,2069,2052,2010
2052,2043,2037,2049,2022,2037,2052,2018
2052,2042,2036,2049,2040,2004,2055,2034
2052,2038,2041,2047,2051,2020,2063,2041
2056,2044,2046,2044,2038,2051,2063,2049
2056,2045,2042,2037,2014,2067,2059,2055
2054,2045,2039,2028,1993,2070,2050,2068
2046,2043,2028,2018,1984,2068,2055,2081
2037,2046,2035,2028,2015,2064,2051,2088
2038,2051,2045,2054,2068,2034,2056,2105
2044,2061,2054,2069,2107,2037,2060,2114
2043,2047,2050,2061,2114,2066,2051,2110
2039,2041,2053,2058,2087,2060,2056,2105
2045,2052,2063,2039,2047,2009,2030,2100
2046,2059,2072,2034,2038,1981,2046,2098
2050,2068,2079,2034,2045,1991,2020,2084
2053,2060,2071,2014,2034,2006,2028,2068
2050,2046,2056,2011,2017,2018,2031,2059
2045,2044,2041,2018,2019,2025,2034,2042
2041,2042,2047,2026,2026,2029,2037,2030
2042,2047,2039,2033,2029,2033,2037,2023
2042,2051,2042,2038,2032,2033,2044,2024
2045,2054,2049,2047,2033,2038,2048,2017
2047,2048,2048,2036,2002,2034,2049,2006
2044,2043,2047,2037,1985,2036,2052,2004
2043,2044,2055,2033,1966,2030,2030,1999
2044,2042,2049,2027,1980,2028,2024,1990
2037,2034,2036,2021,2006,2034,2004,1985
2026,2024,2028,2020,2047,2053,2014,1977
2038,2029,2037,2039,2105,2078,2022,1992
2047,2043,2036,2048,2103,2081,2002,1996
2043,2046,2032,2045,2078,2046,2032,2009
2046,2044,2038,2050,2093,2018,2032,2016
2056,2042,2035,2059,2094,2018,2038,2022
2054,2052,2036,2061,2076,2030,2031,2027
2054,2045,2041,2068,2073,2041,2009,2036
2051,2053,2052,2073,2070,2044,2021,2048
2054,2053,2052,2078,2075,2057,2043,2054
2054,2051,2048,2077,2084,2057,2047,2065
2047,2045,2047,2075,2075,2051,2038,2077
2045,2052,2047,2070,2067,2038,2054,2086
2047,2043,2053,2070,2082,2039,2038,2098
2045,2055,2065,2074,2083,2045,2038,2105
2046,2066,2083,2077,2078,2042,2028,2111
2050,2058,2093,2076,2063,2027,2022,2110
2042,2053,2086,2070,2047,2023,2012,2111
2039,2049,2076,2060,2045,2018,2013,2101
2035,2040,2054,2048,2041,2026,2013,2094
2040,2049,2060,2049,2038,2030,2021,2081
2046,2055,2056,2035,2037,2030,2029,2075
2043,2050,2057,2024,2038,2021,2034,2071
2047,2041,2035,2010,2032,2020,2010,2047
2046,2045,2044,2016,2033,2024,2021,2042
2040,2049,2044,2016,2041,2032,2028,2036
2056,2053,2052,2015,2051,2039,2033,2031
2064,2051,2050,2022,2059,2045,2041,2030
2060,2052,2046,2031,2056,2049,2049,2015
2057,2039,2042,2032,2052,2048,2024,2002
2060,2035,2033,2028,2047,2051,2030,2001
2054,2031,2023,2025,2042,2046,2016,1998
2044,2027,2020,2035,2041,2044,2031,1987
2038,2022,2016,2031,2032,2041,2026,1988
2035,2026,2022,2039,2014,2046,2037,1990
2048,2038,2040,2054,2022,2056,2031,1997
2046,2036,2049,2060,2023,2052,2046,1998
2050,2040,2052,2059,2028,2053,2039,2002
2045,2042,2053,2062,2030,2053,2050,2014
2051,2058,2061,2061,2042,2055,2052,2023
2056,2060,2062,2066,2055,2056,2057,2031
2056,2056,2057,2070,2064,2056,2052,2041
2061,2054,2059,2071,2058,2053,2046,2054
2064,2062,2059,2073,2047,2051,2054,2070
2069,2062,2061,2060,2037,2049,2054,2080
2073,2063,2064,2055,2024,2044,2066,2092
2073,2070,2061,2049,2045,2044,2043,2100
2073,2063,2053,2056,2076,2042,2029,2108
2065,2053,2049,2054,2118,2047,2041,2113
2055,2044,2032,2053,2133,2037,2031,2104
2038,2028,2003,2042,2139,2037,2009,2112
2037,2029,2003,2047,2142,2049,2012,2118
2042,2047,2013,2062,2131,2052,2012,2108
2057,2048,2010,2056,2099,2041,2022,2103
2058,2041,1995,2042,2040,2030,2013,2081
2051,2036,1991,2030,1979,2009,2027,2075
2046,2029,1994,2014,1900,2006,2029,2055
2045,2032,2009,2010,1911,2013,2028,2041
2052,2040,2028,2023,1963,2039,2028,2034
2048,2036,2022,2016,1981,2043,2017,2011
2043,2034,2035,2038,2027,2049,2028,2009
2048,2036,2051,2052,2052,2051,2041,2008
2047,2043,2036,2027,2024,2041,2027,2003
2040,2036,2033,2017,2007,2040,2034,1995
2040,2049,2054,2018,2033,2039,2023,1990
2044,2053,2070,2031,2057,2040,2008,1988
2049,2051,2062,2028,2044,2031,2004,1982
2042,2042,2048,2038,2049,2037,2024,1981
2045,2048,2067,2061,2041,2046,2049,1997
2057,2071,2092,2084,2022,2040,2045,2008
2064,2080,2110,2094,2016,2036,2014,2013
2057,2086,2115,2096,2023,2029,2050,2009
2059,2079,2116,2100,2016,2030,2034,2016
2060,2074,2091,2090,2018,2037,2055,2023
2054,2063,2081,2064,2017,2047,2059,2025
2044,2056,2072,2048,1989,2060,2044,2035
2057,2061,2066,2046,2019,2070,2042,2046
2062,2062,2059,2072,2102,2084,2063,2058
2054,2057,2060,2083,2138,2085,2052,2066
2049,2047,2046,2074,2136,2072,2057,2072
2038,2042,2033,2048,2096,2066,2046,2076
2030,2031,2014,2021,2057,2053,2030,2080
2023,2027,2002,2005,2036,2047,2009,2088
2022,2023,2007,1984,2006,2052,1997,2087
2023,2025,2020,1989,1992,2055,2028,2088
2040,2055,2033,1985,1980,2059,2027,2083
2036,2048,2027,1978,1976,2045,2026,2081
2042,2050,2035,1988,1967,2019,2022,2076
2043,2050,2045,2009,1981,1994,2032,2071
2045,2058,2056,2025,2008,1987,2043,2063
2045,2054,2058,2032,2042,2019,2039,2048
2046,2054,2059,2048,2088,2056,2041,2037
2053,2054,2061,2060,2112,2074,2057,2036
2056,2063,2050,2064,2126,2084,2074,2023
2056,2058,2041,2057,2114,2095,2067,2012
2053,2049,2037,2048,2102,2088,2035,2002
2043,2044,2031,2037,2064,2076,2042,1992
2042,2047,2040,2031,2017,2071,2060,1994
2049,2062,2050,2037,2004,2040,2040,1992
2053,2072,2057,2048,2016,2024,2036,1982
2049,2049,2043,2045,2031,2025,2030,1981
2043,2040,2036,2053,2049,2040,2049,1996
2053,2050,2041,2057,2072,2058,2060,1991
2048,2043,2027,2064,2080,2068,2058,1997
2048,2041,2020,2068,2082,2070,2059,2002
2043,2042,2032,2068,2086,2063,2054,2000
2048,2044,2039,2075,2080,2069,2052,2007
2048,2052,2054,2074,2087,2061,2048,2008
2052,2051,2057,2065,2070,2057,2040,2020
2059,2054,2064,2055,2058,2055,2040,2030
2054,2054,2059,2058,2068,2061,2057,2046
2054,2049,2044,2053,2072,2060,2049,2058
2048,2049,2021,2043,2074,2080,2044,2078
2052,2050,2015,2050,2069,2088,2067,2094
2051,2049,2013,2053,2065,2082,2059,2095
2053,2041,2006,2044,2053,2071,2040,2102
2042,2031,2001,2038,2032,2051,2044,2094
2041,2025,2005,2040,2039,2026,2027,2102
2041,2039,2024,2056,2062,2034,2039,2101
2046,2046,2042,2070,2089,2045,2038,2092
2051,2046,2040,2073,2083,2047,2034,2081
2047,2039,2036,2053,2038,2050,2047,2054
2046,2039,2029,2040,1982,2060,2031,2042
2048,2036,2030,2027,1971,2066,2026,2032
2042,2037,2020,2022,1970,2072,2032,2014
2042,2035,2020,2018,1988,2044,2036,2013
2043,2028,2033,2033,2033,1996,2047,2013
2049,2041,2059,2060,2086,1994,2052,2016
2056,2052,2073,2069,2092,2017,2044,2009
2047,2052,2085,2089,2087,2045,2039,2003
2047,2054,2101,2091,2079,2052,2046,1996
2042,2056,2110,2096,2070,2050,2035,1992
2051,2055,2110,2092,2062,2039,2041,1982
2046,2046,2087,2084,2049,2043,2028,1982
2041,2049,2079,2082,2043,2045,2024,1985
2046,2062,2084,2078,2045,2045,2034,1990
2054,2060,2092,2074,2035,2041,2050,1995
2054,2065,2088,2061,2032,2039,2048,2003
2050,2061,2067,2044,2031,2038,2032,1998
2051,2047,2050,2032,2032,2034,2022,2008
2050,2045,2042,2032,2029,2030,2033,2021
2049,2049,2041,2022,2014,2033,2036,2028
2048,2040,2024,1993,2010,2034,2024,2037
2040,2041,2025,1974,2008,2033,2050,2047
2040,2045,2028,1963,2002,2029,2046,2051
2045,2045,2027,1963,2018,2023,2048,2063
2038,2039,2007,1972,2028,2030,2049,2085
2038,2035,2012,2003,2036,2049,2047,2098
2037,2039,2036,2037,2059,2055,2047,2097
2032,2038,2047,2048,2058,2052,2028,2105
2036,2038,2061,2048,2046,2052,2035,2106
2038,2048,2071,2042,2037,2050,2028,2097
2038,2045,2065,2034,2025,2041,2041,2081
2046,2046,2052,2033,2019,2032,2035,2073
2048,2048,2045,2035,2024,2032,2034,2060
2043,2043,2037,2031,2008,2036,2041,2044
2040,2038,2027,2022,2007,2034,2028,2038
2041,2039,2030,2021,2048,2044,2026,2023
2044,2037,2036,2030,2060,2057,2037,2022
2043,2036,2034,2035,2074,2062,2042,2017
2049,2044,2041,2045,2092,2077,2052,2013
2047,2043,2044,2048,2092,2077,2060,2008
2054,2041,2041,2051,2084,2087,2064,2003
2052,2050,2042,2053,2074,2093,2066,2005
2052,2052,2050,2049,2065,2096,2068,2000
2059,2054,2046,2051,2052,2082,2057,1993
2050,2043,2041,2044,2039,2031,2035,1989
2049,2044,2040,2042,2041,2008,2040,2004
2063,2060,2053,2060,2052,2021,2042,2005
2069,2064,2054,2062,2053,2041,2040,2008
2067,2059,2062,2069,2058,2051,2057,2011
2070,2063,2064,2076,2060,2055,2050,2011
2067,2059,2061,2078,2054,2060,2042,2010
2064,2061,2059,2080,2052,2057,2031,2017
2057,2057,2048,2073,2044,2051,2046,2014
2056,2054,2035,2071,2042,2044,2041,2024
2055,2057,2034,2075,2054,2050,2041,2050
2057,2060,2038,2074,2057,2051,2027,2060
2058,2066,2040,2076,2062,2048,2032,2076
2058,2059,2034,2069,2059,2038,2042,2088
2058,2061,2029,2074,2073,2045,2046,2104
2057,2050,2022,2066,2097,2046,2061,2110
2051,2045,2018,2046,2081,2037,2049,2101
2039,2029,2011,2023,2054,2030,2024,2103
2034,2032,2014,2015,2036,2030,2038,2107
2044,2039,2017,2006,2038,2030,2032,2095
2047,2054,2018,2008,2035,2027,2026,2090
2047,2057,2035,2011,2009,2025,2038,2082
2056,2066,2063,2010,2002,2021,2044,2076
2057,2065,2077,2026,2013,2014,2030,2064
2063,2059,2082,2032,2038,2027,2020,2043
2054,2056,2073,2043,2062,2046,2021,2034
2057,2054,2069,2052,2096,2064,2030,2025
2062,2058,2066,2051,2100,2075,2038,2020
2060,2050,2057,2052,2087,2083,2047,2011
2063,2046,2052,2047,2079,2077,2045,2010
2054,2051,2048,2056,2077,2076,2049,1994
2049,2056,2043,2055,2052,2090,2047,1984
2042,2056,2047,2049,2045,2099,2055,1972
2038,2040,2033,2041,2043,2094,2041,1970
2037,2040,2041,2045,2042,2088,2041,1979
2041,2045,2048,2060,2058,2080,2045,1987
2047,2052,2051,2079,2079,2030,2033,2000
2055,2054,2059,2092,2126,2019,2043,2011
2059,2059,2065,2091,2141,2031,2046,2007
2061,2062,2066,2082,2139,2026,2054,2009
2059,2052,2055,2072,2124,2023,2052,2012
2058,2053,2053,2060,2105,2028,2047,2024
2052,2052,2050,2044,2079,2032,2042,2035
2052,2056,2051,2036,2067,2031,2039,2047
2052,2057,2062,2040,2040,2027,2045,2049
2055,2060,2069,2046,2020,2030,2030,2070
2051,2058,2061,2042,1949,2006,2035,2084
2056,2057,2058,2024,1879,1996,2035,2086
2053,2056,2047,2008,1901,1996,2003,2084
2051,2043,2030,1996,1924,1998,2016,2087
2032,2023,2020,1997,1954,2016,2026,2089
2035,2037,2035,2023,2010,2053,2038,2098
2045,2050,2055,2049,2054,2060,2057,2097
2047,2058,2054,2053,2103,2072,2062,2086
2044,2057,2050,2064,2125,2071,2049,2072
2047,2055,2053,2061,2109,2066,2048,2066
2052,2048,2049,2062,2090,2062,2049,2048
2050,2053,2044,2064,2072,2066,2061,2039
2050,2052,2047,2065,2068,2063,2042,2026
2049,2055,2046,2070,2053,2053,2034,2017
2047,2055,2046,2075,2031,2055,2048,2010
2049,2054,2045,2056,2009,2050,2059,2003
2053,2062,2050,2031,1995,2041,2032,1998
2054,2058,2046,2009,1994,2040,2046,1995
2056,2052,2043,2009,2003,2050,2048,1990
2054,2061,2051,2024,2002,2018,2028,1987
2044,2050,2047,2033,1995,2001,2021,1986
2041,2047,2043,2040,2003,2014,2051,1990
2052,2054,2051,2050,2029,2038,2045,1987
2044,2051,2053,2054,2058,2060,2060,1989
2045,2050,2048,2056,2063,2074,2073,1989
2045,2055,2046,2062,2071,2088,2056,1992
2044,2048,2047,2058,2069,2093,2065,2002
2047,2040,2043,2056,2060,2084,2060,2010
2049,2042,2039,2045,2039,2075,2052,2024
2049,2045,2047,2046,2035,2056,2057,2042
2057,2049,2047,2050,2056,2034,2057,2063
2056,2048,2042,2062,2077,2032,2070,2083
2059,2051,2050,2072,2095,2042,2076,2095
2059,2049,2048,2066,2098,2057,2074,2101
2058,2044,2045,2066,2089,2063,2071,2107
2052,2047,2045,2064,2073,2056,2061,2106
2045,2034,2040,2056,2063,2041,2045,2107
2049,2044,2054,2056,2061,2032,2063,2108
2055,2059,2068,2059,2065,2039,2045,2106
2053,2055,2055,2054,2060,2042,2058,2093
2054,2050,2054,2052,2052,2040,2053,2082
2048,2044,2047,2048,2045,2034,2039,2064
2054,2039,2041,2052,2040,2033,2033,2064
2053,2040,2041,2051,2035,2031,2036,2050
2061,2043,2041,2048,2042,2040,2049,2038
2058,2049,2049,2057,2050,2046,2045,2029
2056,2046,2045,2059,2048,2050,2052,2021
2054,2049,2052,2058,2040,2061,2048,2014
2053,2041,2041,2056,2028,2060,2041,2008
2047,2041,2036,2052,2028,2061,2041,1996
2046,2042,2036,2051,2025,2059,2031,1992
2043,2047,2039,2057,2033,2056,2044,2002
2061,2045,2046,2062,2056,2025,2036,2001
2053,2039,2039,2070,2072,2034,2035,1993
2050,2047,2046,2060,2058,2042,2034,1993
2056,2052,2044,2048,2027,2041,2026,1996
2048,2046,2046,2046,2018,2044,2045,2003
2053,2050,2045,2045,2036,2050,2052,2001
2049,2048,2045,2051,2066,2063,2047,2008
2050,2040,2041,2047,2089,2072,2055,2014
2049,2041,2038,2045,2094,2068,2047,2024
2049,2038,2038,2040,2057,2065,2041,2034
2038,2041,2031,2034,2044,2051,2038,2044
2037,2037,2029,2031,2054,2034,2054,2054
2047,2049,2044,2055,2078,2024,2080,2081
2059,2048,2048,2060,2078,2033,2054,2096
2050,2049,2046,2057,2060,2039,2066,2095
2049,2052,2044,2056,2047,2045,2062,2106
2050,2044,2042,2048,2039,2047,2045,2094
2031,2025,2029,2045,2038,2047,2028,2095
2029,2013,2026,2040,2046,2042,2049,2092
2031,2024,2031,2036,2034,2045,2037,2087
2027,2031,2033,2041,2018,2039,2040,2080
2027,2037,2033,2036,2014,2037,2041,2071
2037,2040,2043,2037,2013,2036,2040,2065
2042,2051,2039,2037,2010,2025,2042,2056
2053,2053,2049,2037,2022,2025,2027,2040
2053,2047,2048,2041,2034,2032,2051,2032
2056,2042,2051,2041,2033,2038,2043,2022
2057,2045,2055,2044,2029,2040,2030,2020
2059,2049,2059,2042,2021,2035,2041,2014
2056,2056,2055,2037,2020,2029,2036,1997
2055,2055,2055,2040,2043,2033,2045,1991
2049,2058,2053,2047,2063,2040,2043,1982
2052,2055,2056,2050,2031,2041,2044,1980
2047,2038,2046,2050,2034,2041,2026,1973
2049,2044,2048,2050,2051,2046,2038,1980
2056,2056,2063,2056,2057,2056,2030,1993
2052,2056,2054,2058,2065,2055,2020,1992
2055,2049,2060,2055,2062,2072,2049,1994
2048,2046,2052,2051,2042,2094,2034,1994
2045,2045,2050,2047,2030,2099,2039,2000
2056,2052,2050,2047,2026,2091,2027,2007
2049,2053,2051,2042,1996,2060,2013,2019
2045,2051,2052,2033,2001,2008,2014,2035
2046,2052,2052,2043,2047,1994,2026,2052
2046,2051,2053,2051,2087,2029,2035,2071
2049,2051,2055,2071,2126,2078,2076,2085
2054,2049,2052,2071,2130,2098,2099,2109
2052,2049,2049,2066,2116,2091,2098,2119
2054,2044,2044,2065,2094,2080,2105,2118
2046,2040,2039,2049,2072,2052,2081,2113
2030,2028,2031,2044,2068,2037,2068,2111
2036,2034,2038,2046,2088,2038,2067,2112
2037,2036,2037,2055,2121,2055,2065,2092
2040,2037,2040,2053,2114,2064,2058,2082
2035,2035,2037,2053,2091,2061,2057,2070
2041,2037,2040,2045,2072,2066,2062,2061
2042,2042,2037,2049,2054,2053,2031,2042
2041,2044,2044,2050,2041,2037,2057,2048
2050,2049,2040,2047,2040,2043,2045,2037
2052,2056,2043,2047,2039,2051,2057,2025
2056,2064,2047,2044,2035,2051,2044,2027
2054,2069,2047,2037,2043,2057,2054,2016
2049,2062,2053,2040,2047,2044,2059,2008
2051,2056,2046,2044,2033,2029,2039,2002
2053,2055,2050,2048,2033,2021,2028,1992
2042,2052,2039,2041,2048,2043,2048,1980
2026,2035,2040,2043,2055,2078,2032,1977
2028,2037,2051,2051,2059,2072,2034,1982
2033,2047,2055,2056,2063,2055,2039,1976
2027,2047,2053,2048,2060,2049,2037,1983
2026,2048,2049,2046,2056,2036,2040,1984
2037,2047,2049,2043,2053,2044,2066,1999
2045,2050,2051,2052,2059,2049,2033,2004
2048,2054,2059,2051,2062,2056,2065,2007
2040,2049,2057,2046,2064,2058,2050,2006
2035,2052,2057,2051,2060,2052,2052,2023
2033,2060,2060,2051,2061,2050,2055,2029
2032,2059,2061,2050,2063,2052,2049,2037
2036,2065,2062,2047,2065,2057,2049,2041
2033,2065,2058,2050,2062,2058,2050,2036
2028,2059,2056,2048,2057,2063,2047,2032
2028,2059,2053,2038,2054,2056,2043,2032
2015,2048,2047,2038,2046,2050,2049,2039
2019,2052,2055,2036,2049,2061,2040,2045
2035,2061,2052,2041,2049,2052,2031,2057
2040,2062,2054,2039,2045,2056,2022,2049
2047,2059,2046,2044,2039,2052,2017,2045
2040,2058,2052,2046,2041,2056,1997,2033
2032,2054,2044,2039,2042,2076,2005,2004
2007,2052,2046,2043,2042,2097,2015,1976
1984,2052,2044,2047,2045,2101,2030,1966
1985,2047,2049,2048,2045,2102,2041,1965
1989,2047,2047,2045,2036,2088,2051,1958
1988,2044,2042,2037,2024,2030,2057,1960
1996,2046,2043,2038,2012,1986,2069,1979
2005,2045,2042,2037,2023,1974,2064,1991
2016,2045,2041,2040,2031,1982,2081,2011
2021,2048,2044,2048,2035,2002,2080,2000
2014,2031,2035,2043,2040,2012,2096,1988
2015,2036,2044,2050,2045,2022,2089,1996
2026,2045,2041,2045,2042,2014,2088,1993
2034,2044,2044,2051,2038,2024,2122,1989
2042,2046,2037,2052,2038,2033,2130,1986
2040,2045,2044,2055,2040,2036,2130,1983
2025,2055,2051,2062,2041,2026,2111,1941
1969,2054,2058,2059,2056,2008,2008,1895
1907,2047,2058,2056,2056,1992,1926,1867
1875,2043,2051,2061,2081,2002,1906,1884
1867,2047,2051,2053,2109,2067,1854,1893
1870,2043,2049,2051,2124,2120,1950,1887
1878,2045,2052,2055,2120,2110,1990,1889
1886,2045,2053,2057,2127,2082,2009,1919
1903,2052,2052,2056,2106,2060,2012,1933
1923,2040,2045,2046,2064,2045,2000,1918
1913,2032,2040,2041,2045,2049,2017,1929
1933,2035,2041,2035,2022,2037,2018,1963
1968,2034,2034,2030,1977,2023,2021,1999
2029,2036,2034,2021,1936,2008,2022,2009
2061,2049,2037,2030,1961,2011,2012,1993
2073,2063,2044,2036,1993,2023,2016,1992
2078,2059,2044,2038,2009,2028,2022,2007
2088,2059,2039,2027,2024,2038,2039,2015
2100,2052,2037,2029,2024,2037,2033,2030
2106,2052,2035,2029,2038,2045,2037,2068
2113,2058,2040,2032,2058,2055,2046,2098
2124,2064,2045,2034,2064,2052,2016,2136
2120,2063,2044,2035,2062,2053,2017,2163
2130,2067,2046,2038,2068,2055,2039,2184
2134,2072,2056,2042,2070,2056,2042,2162
2129,2068,2045,2034,2058,2039,2038,2129
2114,2060,2046,2034,2043,2033,2034,2099
2102,2071,2057,2041,2056,2039,2039,2057
2070,2065,2054,2042,2052,2048,2017,2023
2046,2060,2056,2045,2052,2043,2064,2005
2025,2062,2068,2042,2050,2056,2050,1997
2025,2065,2069,2044,2039,2054,2038,1975
2024,2081,2078,2052,2047,2052,2027,1958
2028,2086,2074,2048,2040,2063,2037,1949
2019,2073,2070,2046,2028,2058,2045,1957
2020,2071,2064,2044,2029,2044,2050,1982
2022,2068,2060,2043,2024,2039,2058,1996
2021,2066,2062,2052,2053,2058,2074,2023
2030,2078,2066,2056,2089,2067,2076,2040
2050,2074,2063,2057,2087,2054,2055,2071
2058,2069,2057,2055,2070,2051,2087,2102
2073,2060,2048,2048,2047,2052,2070,2123
2074,2056,2050,2042,2049,2058,2047,2112
2059,2064,2056,2046,2039,2056,2050,2076
2021,2057,2058,2036,2019,2040,2037,2009
1981,2051,2050,2031,2002,2048,2016,1974
1969,2042,2050,2033,2044,2055,2020,1960
1968,2038,2038,2032,2050,2046,2024,1939
1983,2042,2038,2034,2032,2043,2010,1955
1997,2046,2046,2040,2030,2041,2013,1993
2029,2047,2043,2042,2022,2040,2006,1994
2038,2040,2044,2045,2038,2046,1997,1985
2032,2044,2040,2048,2056,2055,2006,1982
2028,2038,2038,2044,2061,2057,2018,1997
2040,2024,2026,2034,2082,2046,2021,2031
2061,2015,2020,2036,2116,2062,2052,2037
2067,2019,2031,2046,2097,2070,2067,2019
2068,2028,2028,2041,2071,2058,2059,2029
2072,2038,2034,2041,2047,2056,2058,2045
2084,2053,2045,2057,2069,2065,2059,2039
2085,2056,2048,2061,2070,2065,2051,2060
2092,2061,2052,2062,2043,2064,2068,2088
2115,2069,2053,2064,2045,2070,2080,2120
2125,2077,2059,2076,2079,2073,2050,2136
2119,2076,2060,2078,2098,2083,2059,2153
2111,2082,2066,2076,2102,2085,2069,2165
2116,2081,2059,2078,2110,2091,2082,2190
2116,2070,2060,2070,2104,2091,2089,2181
2106,2065,2056,2059,2090,2075,2075,2173
2103,2061,2050,2047,2073,2068,2080,2150
2096,2058,2052,2043,2063,2058,2056,2128
2090,2056,2043,2033,2056,2049,2042,2132
2083,2052,2043,2029,2052,2046,2053,2133
2069,2040,2035,2012,2040,2036,2028,2131
2060,2030,2033,2013,2037,2032,2033,2140
2070,2049,2041,2017,2039,2040,2037,2142
2075,2051,2046,2028,2044,2050,2035,2137
2083,2060,2049,2037,2044,2064,2024,2137
2078,2056,2043,2040,2047,2067,2038,2127
2080,2057,2043,2039,2038,2058,2049,2109
2077,2056,2039,2029,2016,2040,2042,2092
2077,2054,2042,2032,2030,2049,2053,2067
2057,2059,2048,2040,2044,2051,2053,2033
2041,2055,2049,2042,2045,2059,2048,2023
2042,2052,2052,2052,2053,2061,2053,2006
2046,2062,2054,2046,2038,2053,2058,1995
2046,2054,2056,2047,2037,2059,2052,1983
2043,2055,2054,2038,2037,2050,2038,1979
2041,2054,2052,2038,2041,2056,2055,1977
2041,2041,2040,2034,2036,2052,2040,1979
2039,2043,2039,2035,2036,2048,2039,1988
2055,2049,2041,2033,2030,2048,2041,1994
2059,2048,2051,2034,2032,2044,2049,1985
2054,2054,2058,2042,2032,2047,2039,1979
2057,2058,2060,2045,2039,2047,2042,1986
2062,2065,2065,2047,2041,2044,2061,1992
2061,2064,2069,2049,2045,2055,2060,2017
2069,2068,2061,2041,2040,2066,2046,2044
2080,2061,2058,2041,2041,2069,2052,2066
2083,2055,2057,2042,2036,2064,2056,2085
2079,2057,2055,2045,2042,2063,2056,2099
2076,2054,2053,2049,2057,2070,2081,2115
2073,2060,2060,2050,2065,2074,2089,2129
2075,2056,2054,2044,2067,2068,2060,2127
2061,2059,2052,2046,2054,2068,2072,2125
2054,2051,2049,2045,2056,2058,2070,2114
2041,2041,2044,2044,2055,2061,2063,2109
2045,2051,2054,2046,2048,2076,2071,2107
2055,2054,2049,2046,2042,2070,2063,2096
2049,2046,2045,2041,2040,2065,2049,2085
2046,2041,2047,2039,2038,2069,2063,2074
2040,2046,2047,2037,2041,2075,2049,2062
2048,2050,2043,2034,2033,2081,2077,2047
2043,2048,2050,2042,2038,2097,2078,2036
2050,2051,2043,2037,2032,2089,2065,2019
2048,2039,2045,2032,2020,2081,2047,2000
2039,2033,2040,2024,2007,2070,2038,1988
2039,2025,2037,2021,1992,2024,2011,1978
2031,2031,2040,2019,1975,1997,2005,1966
2027,2032,2038,2013,1957,1991,2006,1966
2038,2035,2037,2010,1955,2002,2005,1967
2042,2032,2033,2013,1947,1998,1971,1953
2031,2020,2028,2001,1948,2004,1982,1947
2034,2027,2041,2029,1987,2024,2025,1956
2045,2041,2055,2040,2037,2028,2034,1966
2045,2043,2057,2048,2088,2046,2003,1975
2036,2045,2058,2048,2097,2067,2024,1979
2041,2040,2055,2047,2088,2069,2040,1978
2038,2041,2054,2041,2078,2081,2040,1992
2041,2048,2057,2038,2077,2088,2054,2007
2048,2050,2059,2036,2066,2067,2061,2018
2048,2060,2066,2036,2064,2024,2059,2031
2057,2061,2068,2045,2071,2019,2021,2041
2057,2063,2072,2049,2082,2046,2037,2066
2055,2060,2073,2043,2071,2078,2044,2065
2047,2054,2068,2038,2072,2110,2063,2073
2042,2049,2061,2037,2050,2105,2051,2084
2045,2046,2059,2031,2036,2071,2057,2081
2028,2032,2048,2025,2020,2022,2074,2080
2030,2031,2045,2027,2021,2006,2074,2080
2030,2039,2050,2024,2030,1998,2054,2066
2024,2027,2042,2023,2037,2008,2024,2054
2027,2030,2041,2021,2037,2010,2044,2047
2025,2035,2042,2021,2040,2019,2028,2038
2026,2034,2042,2031,2035,2030,2041,2026
2028,2035,2050,2031,2041,2044,2029,2006
2024,2032,2049,2029,2039,2047,1998,1998
2028,2036,2052,2032,2042,2061,2022,1992
2032,2043,2052,2033,2043,2077,2028,1996
2034,2046,2060,2029,2036,2090,2060,1991
2041,2048,2059,2029,2028,2085,2038,1971
2024,2047,2057,2030,2022,2075,2033,1965
2026,2046,2059,2027,2021,2080,2028,1966
2036,2046,2055,2032,2033,2072,2032,1966
2028,2034,2044,2029,2027,2064,2036,1971
2031,2039,2051,2033,2025,2044,2037,1972
2046,2051,2062,2033,2037,2035,2051,1976
2047,2057,2061,2037,2040,2040,2051,1981
2044,2055,2069,2040,2047,2054,2061,1985
2039,2052,2063,2044,2068,2065,2074,1995
2045,2051,2070,2047,2079,2064,2078,1992
2042,2052,2066,2052,2084,2054,2067,1997
2043,2052,2062,2048,2075,2059,2064,2014
2046,2056,2067,2053,2075,2052,2060,2030
2047,2047,2060,2049,2080,2049,2042,2038
2036,2044,2059,2049,2075,2023,2061,2052
2039,2046,2053,2048,2074,2007,2060,2057
2035,2043,2052,2051,2054,2015,2069,2064
2031,2037,2050,2046,2046,2012,2058,2075
2026,2033,2045,2036,2032,2010,2063,2075
2018,2017,2036,2030,2027,2008,2046,2074
2018,2018,2036,2027,2029,2022,2040,2079
2023,2032,2042,2022,2028,2036,2029,2083
2022,2027,2044,2025,2009,2056,2029,2069
2022,2020,2040,2028,2003,2068,2021,2058
2016,2027,2039,2026,2003,2102,2028,2041
2027,2034,2041,2026,2044,2128,2022,2030
2029,2043,2038,2028,2075,2138,2023,2004
2026,2038,2036,2032,2095,2120,2014,1990
2021,2038,2037,2028,2058,2024,2011,1974
2023,2037,2038,2030,2039,2001,1996,1969
2016,2031,2032,2015,2032,2012,2015,1959
2013,2031,2025,2008,2011,2028,2022,1958
2012,2031,2035,2021,2021,2057,2020,1959
2017,2039,2044,2029,1984,2040,2029,1969
2028,2039,2054,2028,1898,1987,2005,1959
2017,2028,2044,2012,1907,2004,1997,1949
2014,2027,2041,2014,1976,2068,2028,1943
2030,2042,2056,2028,2035,2084,2019,1958
2025,2048,2059,2041,2090,2088,2053,1966
2034,2062,2067,2049,2105,2096,2063,1971
2027,2058,2066,2064,2120,2095,2037,1988
2029,2062,2070,2058,2112,2096,2062,1988
2035,2062,2068,2047,2084,2076,2063,1997
2034,2060,2068,2048,2073,2068,2059,2010
2031,2064,2062,2048,2065,2075,2063,2022
2030,2059,2067,2043,2068,2074,2062,2031
2036,2054,2059,2043,2077,2070,2069,2047
2033,2052,2064,2053,2074,2068,2050,2062
2031,2050,2060,2049,2071,2073,2058,2063
2029,2046,2063,2042,2062,2076,2052,2070
2026,2049,2064,2044,2057,2066,2031,2072
2013,2032,2046,2031,2046,2045,2004,2071
2013,2034,2051,2043,2047,2011,2007,2074
2018,2049,2060,2042,2050,1996,2013,2068
2019,2044,2058,2048,2045,1998,2017,2058
2011,2045,2051,2044,2040,2006,1984,2050
2011,2044,2047,2034,2028,2010,2000,2039
2016,2042,2046,2027,2025,2018,2016,2024
2018,2036,2048,2030,2024,2027,2016,2007
2020,2034,2051,2029,2029,2038,2014,1998
2021,2036,2049,2027,2027,2030,2005,1985
2016,2036,2046,2030,2035,2032,2017,1983
2018,2032,2046,2025,2044,2053,2015,1983
2025,2036,2040,2028,2050,2062,2027,1983
2024,2022,2031,2022,2034,2052,2019,1976
2021,2032,2034,2023,2024,2038,2012,1965
2019,2033,2037,2024,2017,2044,2034,1963
2011,2023,2029,2015,2022,2041,2040,1948
2011,2025,2039,2020,2026,2044,2036,1954
2017,2029,2042,2024,2036,2047,2032,1954
2020,2040,2044,2023,2023,2047,2029,1959
2017,2031,2039,2023,2028,2043,2049,1972
2023,2033,2039,2029,2036,2067,2044,1986
2031,2044,2047,2039,2045,2087,2049,2008
2033,2047,2054,2044,2057,2104,2067,2021
2041,2054,2065,2046,2057,2104,2067,2027
2043,2049,2064,2044,2068,2108,2080,2028
2036,2047,2055,2046,2069,2093,2084,2034
2027,2044,2058,2041,2059,2075,2042,2043
2031,2048,2061,2041,2046,2050,2056,2056
2032,2047,2055,2039,2033,2053,2056,2069
2034,2047,2058,2036,2031,2040,2056,2074
2036,2047,2047,2028,2017,2007,2047,2080
2030,2034,2037,2018,2006,2004,2036,2076
2023,2032,2044,2023,2007,2025,2047,2087
2037,2048,2045,2024,2008,2043,2058,2073
2030,2046,2043,2024,2022,2059,2044,2054
2025,2038,2038,2028,2025,2080,2036,2049
2021,2044,2046,2036,2046,2085,2046,2043
2026,2047,2043,2034,2058,2065,2044,2034
2027,2043,2034,2033,2064,2017,2032,2013
2027,2041,2031,2035,2052,2012,2040,2003
2030,2031,2027,2036,2066,2042,2035,1996
2028,2035,2032,2038,2062,2049,2052,1984
2030,2041,2035,2040,2060,2044,2046,1964
2032,2030,2035,2038,2063,2048,2018,1959
2022,2030,2032,2044,2061,2056,2026,1950
2021,2028,2039,2044,2069,2059,2025,1944
2030,2031,2041,2045,2068,2053,2032,1935
2021,2023,2047,2040,2064,2052,2037,1933
2020,2031,2056,2044,2052,2049,2032,1955
2037,2041,2062,2045,2049,2038,2021,1961
2035,2047,2061,2052,2062,2041,2034,1976
2044,2041,2067,2058,2075,2052,2045,1988
2038,2045,2060,2052,2062,2046,2014,1997
2038,2045,2057,2045,2030,2043,2031,2009
2037,2044,2056,2040,1997,2041,2028,2009
2034,2039,2050,2045,2026,2044,2045,2019
2035,2037,2051,2040,2044,2045,2025,2029
2033,2033,2054,2042,2046,2046,2038,2040
2030,2030,2050,2046,2040,2035,2032,2055
2031,2031,2048,2038,2020,2029,2034,2061
2027,2027,2041,2025,2018,2024,2029,2070
2025,2028,2042,2024,2004,2022,2026,2071
2029,2028,2039,2035,2018,2030,2025,2077
2021,2019,2039,2045,2053,2022,2019,2078
2018,2019,2038,2049,2074,2032,2037,2074
2024,2028,2045,2055,2066,2039,2027,2071
2020,2024,2046,2048,2027,2034,2046,2064
2022,2025,2040,2037,1992,2045,2051,2046
2022,2025,2038,2036,2011,2075,2022,2034
2019,2010,2037,2032,2022,2082,2036,2015
2023,2012,2033,2034,2015,2085,2043,2009
2029,2016,2037,2035,2016,2090,2041,1994
2033,2018,2032,2035,2025,2094,2043,1992
2037,2024,2039,2035,2037,2109,2056,1998
2042,2025,2042,2046,2040,2077,2058,1989
2032,2026,2042,2042,2048,2043,2036,1972
2025,2022,2043,2042,2044,2044,2007,1958
2027,2021,2046,2040,2031,2049,2040,1954
2026,2022,2040,2039,2032,2053,2042,1958
2021,2014,2038,2034,2022,2045,2040,1953
2022,2015,2036,2030,2011,2031,2045,1966
2029,2032,2050,2051,2040,2008,2052,1973
2036,2033,2049,2058,2071,1997,2017,1970
2026,2032,2047,2058,2082,2011,2016,1972
2030,2027,2041,2049,2081,2015,2028,1976
2021,2025,2040,2047,2073,2040,2059,1973
2022,2025,2043,2048,2068,2065,2073,1984
2030,2033,2044,2046,2071,2068,2072,1995
2028,2042,2044,2042,2062,2059,2063,2010
2030,2039,2049,2046,2063,2053,2068,2019
2030,2042,2050,2048,2066,2057,2061,2034
2027,2040,2049,2055,2073,2037,2052,2050
2024,2034,2046,2045,2054,2015,2043,2055
2025,2036,2044,2038,2058,2024,2047,2077
2024,2038,2040,2037,2057,2046,2051,2071
2024,2024,2025,2018,2043,2061,2032,2064
2015,2017,2022,2014,2029,2036,2037,2063
2012,2024,2026,2019,2030,2007,2035,2056
2020,2023,2020,2016,2022,2007,2003,2044
2022,2021,2024,2019,2027,2018,1988,2043
2025,2030,2029,2028,2042,2038,2021,2044
2027,2033,2030,2027,2042,2057,2028,2032
2029,2026,2026,2023,2025,2053,2021,2019
2029,2025,2021,2027,2017,2069,2026,2009
2037,2024,2031,2028,2017,2096,2036,1993
2032,2028,2038,2037,2024,2071,2029,2004
2042,2035,2046,2046,2043,2051,2025,2001
2045,2039,2060,2059,2066,2045,2029,1987
2045,2045,2067,2057,2067,2058,2016,1981
2042,2049,2074,2056,2060,2084,2023,1985
2041,2050,2073,2057,2050,2092,2013,1972
2038,2043,2069,2048,2045,2115,2015,1969
2035,2035,2068,2047,2036,2148,2034,1963
2032,2033,2073,2046,2033,2203,2048,1969
2035,2041,2083,2049,2042,2214,2045,1968
2036,2046,2080,2054,2035,2155,2034,1975
2037,2044,2076,2054,2026,2019,2025,1978
2035,2042,2074,2053,2023,1928,2019,1980
2035,2042,2079,2049,2023,1925,2028,1988
2036,2037,2078,2051,2028,1987,2041,2003
2038,2043,2082,2057,2036,2038,2042,2006
2044,2046,2086,2061,2042,2057,2051,2010
2038,2044,2076,2057,2054,2071,2038,2034
2041,2047,2075,2060,2057,2086,2056,2051
2039,2045,2078,2058,2056,2085,2065,2062
2037,2041,2071,2056,2052,2083,2061,2063
2028,2042,2068,2053,2051,2061,2050,2069
2022,2040,2065,2053,2042,2051,2039,2059
2010,2029,2058,2043,2025,2044,2028,2061
2003,2028,2058,2037,2012,2046,2017,2069
2012,2039,2067,2049,2018,2051,2024,2067
2018,2036,2063,2043,2000,2040,2009,2061
2016,2037,2058,2037,1982,2035,2018,2044
2017,2032,2052,2028,1984,2022,2019,2029
2024,2023,2047,2015,1951,2005,2022,2001
2017,2021,2039,2011,1950,2010,2005,1975
2026,2023,2048,2040,2048,2057,2020,1962
2034,2043,2059,2059,2079,2073,2025,1948
2032,2044,2061,2067,2070,2072,2043,1948
2036,2041,2062,2064,2049,2072,2036,1944
2036,2041,2057,2056,2035,2067,2037,1956
2035,2037,2050,2056,2044,2059,2046,1975
2048,2041,2053,2047,2041,2056,2053,1996
2054,2039,2047,2033,2048,2042,2056,2004
2052,2024,2039,2031,2090,2040,2052,2009
2044,2017,2035,2033,2083,2039,2052,2008
2056,2035,2047,2044,2082,2052,2065,2005
2049,2040,2053,2039,2064,2054,2042,1997
2054,2042,2049,2037,2053,2053,2048,1997
2047,2039,2052,2039,2076,2058,2074,1997
2047,2040,2061,2048,2104,2060,2070,2000
2043,2042,2065,2058,2110,2072,2084,2013
2046,2040,2065,2064,2113,2078,2080,2025
2048,2042,2069,2063,2116,2083,2076,2032
2044,2044,2072,2063,2104,2091,2077,2033
2044,2049,2071,2054,2088,2091,2068,2042
2038,2048,2070,2047,2033,2076,2049,2056
2039,2055,2067,2026,1975,2060,2061,2074
2045,2049,2059,2012,1900,2030,2037,2088
2043,2041,2061,2008,1927,1999,2042,2094
2040,2046,2058,2021,1980,1986,2009,2086
2031,2038,2052,2040,2024,1997,2035,2085
2040,2042,2064,2055,2077,2042,2056,2094
2049,2053,2058,2055,2086,2046,2063,2100
2050,2048,2047,2041,2060,2042,2068,2094
2052,2041,2051,2037,2018,2039,2061,2075
2047,2043,2050,2036,1985,2042,2054,2061
2046,2042,2055,2041,1986,2034,2059,2037
2045,2035,2050,2039,1984,2035,2060,2031
2045,2040,2044,2035,2000,2030,2038,2017
2045,2034,2037,2030,2023,2044,2064,2008
2042,2037,2036,2032,2041,2055,2062,2007
2044,2041,2039,2035,2038,2064,2056,2005
2045,2042,2039,2037,2037,2064,2055,2002
2043,2039,2037,2035,2032,2066,2052,1996
2037,2033,2040,2028,2032,2069,2045,1989
2042,2029,2037,2020,2043,2070,2051,1983
2036,2018,2035,2016,2041,2078,2049,1981
2038,2024,2034,2022,2053,2091,2065,1991
2055,2036,2044,2037,2054,2083,2073,1993
2058,2045,2053,2040,2052,2029,2052,1988
2055,2045,2054,2040,2059,2018,2065,1994
2058,2052,2053,2043,2055,2048,2067,2000
2057,2050,2053,2040,2052,2067,2065,2009
2047,2047,2053,2037,2056,2068,2062,2009
2049,2042,2046,2039,2052,2070,2045,2025
2043,2040,2051,2037,2056,2080,2069,2043
2049,2041,2054,2045,2054,2088,2083,2057
2032,2044,2057,2052,2038,2086,2092,2072
2034,2044,2055,2048,2034,2080,2090,2082
2032,2043,2052,2041,2045,2067,2080,2086
2025,2036,2053,2039,2042,2041,2075,2089
2022,2035,2045,2035,2044,2016,2063,2076
2015,2028,2042,2031,2051,2009,2051,2080
2012,2030,2044,2043,2042,2012,2055,2077
2020,2045,2049,2046,2043,2011,2044,2071
2024,2039,2042,2037,2036,2011,2016,2069
2036,2034,2037,2040,2047,2028,2043,2055
2040,2037,2047,2052,2055,2055,2048,2037
2038,2036,2047,2042,2043,2061,2048,2025
2030,2034,2038,2038,2029,2046,2043,2017
2038,2035,2042,2032,2025,2024,2029,2007
2041,2038,2038,2038,2027,2041,2056,2004
2048,2040,2044,2039,2026,2055,2027,2007
2049,2035,2044,2037,2033,2051,2022,2004
2046,2036,2038,2034,2026,2061,2027,2007
2049,2037,2041,2032,2021,2075,2027,2002
2049,2042,2044,2037,2035,2079,2038,2009
2041,2042,2044,2031,2034,2074,2050,1991
2036,2025,2032,2027,2042,2065,2059,1980
2031,2025,2035,2031,2042,2036,2047,1992
2052,2042,2049,2040,2044,2021,2058,1993
2048,2043,2053,2040,2039,2033,2055,1998
2041,2046,2056,2038,2045,2051,2035,2005
2045,2048,2052,2035,2038,2070,2063,2010
2048,2051,2052,2034,2033,2072,2061,2013
2049,2051,2052,2028,2012,2061,2048,2017
2045,2047,2051,2028,1990,2050,2051,2030
2054,2047,2054,2031,1985,2013,2060,2054
2053,2056,2059,2038,2006,1978,2050,2065
2044,2045,2053,2036,2019,2017,2058,2078
2047,2045,2062,2053,2041,2039,2054,2097
2045,2055,2070,2062,2057,2044,2057,2105
2051,2054,2063,2059,2085,2056,2069,2111
2049,2048,2065,2063,2096,2056,2051,2113
2031,2037,2049,2055,2080,2046,2044,2112
2036,2042,2049,2052,2084,2046,2054,2114
2042,2044,2048,2052,2090,2042,2021,2103
2033,2041,2043,2047,2067,2047,2041,2091
2033,2038,2044,2049,2057,2050,2061,2079
2042,2039,2050,2046,2060,2053,2064,2068
2037,2041,2049,2057,2061,2060,2062,2057
2038,2042,2043,2054,2070,2067,2049,2035
2040,2038,2043,2042,2039,2050,2048,2024
2039,2035,2040,2031,2006,2043,2051,2013
2037,2040,2036,2034,2019,2041,2052,2023
2044,2046,2041,2037,2028,2039,2052,2019
2041,2042,2045,2042,2033,2041,2046,2023
2043,2034,2037,2041,2032,2042,2049,2015
2040,2043,2034,2035,2041,2051,2057,2021
2050,2045,2034,2039,2040,2047,2035,2014
2043,2033,2028,2039,2035,2046,2041,2010
2043,2034,2031,2043,2049,2057,2046,2005
2051,2044,2042,2052,2046,2070,2036,2005
2045,2050,2043,2049,2052,2069,2029,2008
2048,2042,2046,2046,2048,2064,2033,2008
2047,2049,2043,2052,2052,2055,2039,2025
2053,2047,2046,2051,2050,2050,2040,2035
2052,2052,2047,2056,2060,2060,2068,2045
2050,2053,2043,2056,2068,2056,2036,2058
2050,2044,2042,2049,2049,2053,2068,2066
2047,2046,2039,2050,2056,2060,2065,2076
2051,2047,2044,2059,2090,2074,2058,2098
2048,2048,2043,2058,2061,2061,2040,2106
2041,2045,2039,2052,2035,2044,2055,2119
2042,2045,2040,2052,2016,2052,2059,2131
2048,2043,2041,2049,2015,2049,2027,2130
2032,2030,2031,2038,2022,2044,2060,2131
2031,2029,2027,2025,2021,2040,2058,2132
2037,2041,2029,2016,2013,2024,2023,2111
2038,2036,2035,2029,2050,2021,2024,2117
2041,2036,2037,2040,2053,2016,2012,2107
2041,2037,2038,2038,2038,2015,2038,2095
2041,2039,2030,2033,2028,2029,2042,2085
2043,2043,2032,2030,2035,2033,2038,2070
2048,2049,2033,2034,2038,2037,2046,2061
2053,2047,2034,2042,2045,2043,2050,2050
2047,2049,2039,2047,2051,2050,2038,2046
2055,2055,2038,2048,2023,2012,2040,2034
2043,2049,2031,2036,2004,1980,2015,2029
2039,2042,2026,2036,2005,1975,2003,2013
2039,2040,2023,2029,2019,1971,2007,1997
2035,2040,2026,2027,2036,1981,2018,1989
2030,2026,2023,2030,2045,2007,1994,1993
2033,2032,2024,2041,2040,2037,2026,2001
2053,2045,2037,2041,2044,2070,2032,2010
2053,2049,2034,2030,2001,2089,2012,2007
2044,2042,2029,2013,1968,2083,2012,2000
2040,2040,2024,2011,1951,2086,2025,2008
2038,2035,2025,2006,1962,2084,2030,2005
2033,2035,2028,2026,2008,2039,2042,2031
2042,2051,2041,2067,2106,2025,2053,2073
2058,2053,2054,2087,2159,2051,2067,2077
2063,2058,2049,2081,2163,2082,2068,2090
2059,2053,2045,2076,2151,2096,2058,2104
2053,2057,2044,2067,2136,2083,2045,2113
2053,2054,2047,2064,2098,2064,2045,2119
2055,2056,2048,2054,2080,2059,2060,2123
2053,2056,2040,2043,2058,2050,2049,2126
2048,2047,2033,2036,2044,2042,2048,2135
2046,2036,2034,2035,2052,2046,2024,2135
2047,2045,2035,2038,2060,2056,2066,2134
2053,2045,2040,2040,2045,2057,2047,2125
2057,2050,2041,2039,2038,2055,2047,2115
2050,2047,2039,2040,2043,2046,2037,2104
2048,2046,2041,2043,2040,2048,2042,2084
2048,2045,2032,2037,2036,2054,2039,2072
2042,2040,2038,2042,2042,2056,2056,2056
2050,2043,2040,2042,2043,2052,2043,2050
2048,2043,2041,2045,2040,2061,2044,2045
2053,2045,2042,2044,2046,2064,2038,2047
2047,2043,2042,2045,2039,2064,2052,2036
2043,2038,2035,2043,2035,2055,2034,2024
2043,2037,2036,2043,2034,2051,2052,2027
2045,2045,2043,2044,2034,2045,2054,2021
2050,2044,2039,2038,2037,2049,2051,2020
2048,2040,2030,2038,2039,2041,2048,2017
2052,2048,2047,2052,2059,2056,2065,2030
2061,2052,2050,2053,2055,2067,2067,2032
2060,2058,2052,2052,2048,2083,2073,2031
2055,2045,2049,2051,2056,2089,2060,2037
2049,2052,2050,2056,2058,2078,2062,2042
2051,2054,2044,2042,2057,2063,2063,2055
2057,2053,2050,2048,2062,2055,2063,2066
2056,2059,2050,2050,2065,2044,2068,2076
2060,2060,2059,2055,2068,2033,2069,2094
2062,2065,2059,2062,2072,2039,2068,2106
2060,2064,2056,2057,2074,2056,2071,2101
2056,2057,2051,2052,2068,2051,2054,2116
2047,2052,2050,2044,2058,2042,2047,2123
2052,2053,2045,2040,2044,2039,2042,2130
2041,2042,2039,2033,2038,2027,2051,2130
2037,2030,2035,2022,2030,2036,2039,2133
2043,2041,2041,2029,2037,2056,2045,2136
2049,2053,2042,2035,2042,2062,2035,2126
2051,2047,2038,2031,2068,2068,2045,2106
2038,2047,2036,2035,2083,2059,2044,2102
2048,2048,2040,2040,2097,2064,2066,2102
2053,2052,2039,2032,2093,2049,2043,2082
2050,2052,2042,2043,2091,2048,2055,2075
2057,2057,2043,2047,2094,2053,2063,2069
2063,2056,2042,2049,2069,2063,2071,2054
2056,2051,2044,2049,2043,2057,2057,2047
2056,2053,2046,2046,1973,2030,2058,2042
2052,2046,2038,2024,1902,2003,2063,2033
2056,2054,2033,2018,1926,2002,2051,2022
2050,2047,2037,2028,1982,2006,2048,2018
2048,2043,2037,2032,1998,2011,2046,2016
2041,2041,2030,2034,2016,2026,2044,2015
2047,2052,2049,2050,2023,2039,2050,2020
2051,2051,2047,2043,2025,2038,2052,2026
2052,2061,2045,2047,2016,2043,2059,2029
2052,2054,2043,2044,2005,2038,2062,2038
2055,2060,2047,2038,2012,2034,2052,2040
2055,2059,2047,2041,2041,2049,2031,2057
2058,2062,2044,2057,2079,2071,2048,2075
2058,2059,2042,2067,2089,2075,2075,2087
2058,2055,2043,2074,2090,2076,2078,2092
2053,2046,2042,2065,2064,2088,2069,2102
2051,2040,2040,2061,2056,2108,2097,2125
2048,2041,2042,2059,2057,2100,2091,2141
2047,2039,2037,2057,2067,2105,2073,2140
2048,2039,2036,2059,2080,2097,2054,2147
2050,2036,2033,2063,2082,2066,2071,2143
2048,2031,2037,2062,2080,2076,2068,2146
2046,2042,2044,2068,2091,2086,2062,2139
2047,2043,2044,2068,2082,2030,2023,2114
2043,2040,2039,2057,2058,1983,2027,2107
2046,2034,2038,2048,2039,1996,2026,2104
2048,2040,2038,2044,2044,2019,2020,2100
2049,2044,2040,2042,2029,2013,2029,2077
2049,2042,2035,2035,2022,2011,2025,2066
2046,2048,2039,2036,2032,2037,2005,2063
2048,2058,2048,2043,2050,2067,2032,2060
2054,2056,2053,2039,2041,2075,2065,2062
2060,2052,2052,2024,2021,2053,2047,2061
2059,2054,2052,2022,2015,2043,2043,2055
2061,2055,2047,2035,2028,2038,2046,2052
2056,2057,2047,2038,2036,2032,2054,2045
2052,2044,2037,2036,2014,2022,2040,2035
2051,2036,2035,2034,1996,2025,2052,2037
2052,2046,2042,2045,2016,2053,2063,2036
2055,2046,2040,2036,2028,2058,2063,2037
2058,2046,2038,2037,2026,2053,2062,2044
2056,2043,2041,2034,2022,2053,2061,2047
2053,2051,2040,2033,2046,2049,2066,2058
2052,2051,2042,2032,2054,2039,2068,2059
2055,2050,2047,2037,2055,2050,2069,2072
2057,2053,2048,2043,2088,2049,2065,2080
2053,2053,2054,2049,2090,2038,2070,2095
2059,2054,2048,2050,2073,2033,2063,2111
2058,2057,2056,2054,2071,2034,2057,2126
2058,2059,2055,2052,2058,2035,2057,2139
2063,2063,2055,2055,2065,2035,2050,2148
2061,2061,2052,2049,2057,2026,2060,2149
2058,2047,2042,2038,2047,2016,2033,2140
2043,2038,2029,2039,2041,2008,2027,2148
2045,2045,2032,2045,2032,2013,2020,2142
2046,2046,2030,2045,2037,2024,2040,2140
2056,2049,2025,2038,2030,2026,2027,2129
2056,2050,2021,2041,2029,2031,2018,2121
2061,2049,2021,2041,2033,2033,2046,2114
2056,2043,2016,2041,2030,2034,2047,2097
2058,2040,2020,2039,2026,2042,2042,2069
2053,2038,2014,2040,2031,2050,2037,2057
2057,2042,2021,2042,2016,2052,2034,2056
2059,2045,2025,2051,2027,2059,2055,2060
2058,2047,2026,2050,2054,2064,2046,2065
2066,2044,2029,2039,2058,2067,2075,2058
2064,2042,2032,2038,2059,2062,2084,2051
2060,2044,2037,2042,2046,2059,2078,2039
2048,2027,2025,2031,2037,2052,2054,2034
2048,2024,2025,2031,2046,2056,2070,2031
2059,2032,2029,2038,2043,2071,2086,2042
2056,2036,2031,2039,2050,2061,2067,2043
2052,2036,2041,2036,2044,2049,2043,2038
2047,2041,2048,2035,2054,2050,2030,2034
2044,2040,2040,2036,2050,2050,2028,2038
2043,2050,2051,2053,2046,2065,2061,2056
2057,2060,2060,2065,2051,2077,2072,2073
2065,2060,2066,2077,2035,2069,2069,2093
2057,2055,2066,2079,2038,2056,2067,2105
2056,2053,2070,2085,2065,2053,2066,2121
2061,2050,2065,2085,2058,2060,2088,2133
2052,2043,2066,2076,2025,2051,2065,2135
2049,2041,2064,2071,2006,2043,2060,2134
2046,2039,2066,2069,2019,2030,2049,2136
2039,2029,2057,2066,2018,2033,2045,2140
2045,2030,2063,2061,2003,2037,2041,2142
2036,2041,2073,2051,2001,2017,2041,2139
2049,2040,2069,2052,2003,2004,2031,2130
2051,2050,2064,2047,1988,2005,2008,2129
2049,2046,2055,2042,1976,1997,2005,2106
2046,2043,2046,2037,1961,2006,2023,2097
2050,2044,2043,2053,1992,2020,2038,2092
2056,2058,2046,2057,2043,2035,2055,2083
2066,2050,2042,2060,2086,2055,2064,2069
2062,2046,2039,2055,2105,2071,2064,2063
2066,2043,2022,2045,2077,2060,2060,2057
2060,2038,2018,2021,2045,2054,2064,2045
2060,2040,2025,2020,2034,2051,2050,2038
2061,2043,2036,2020,2029,2049,2035,2030
2070,2043,2033,2026,2026,2034,2041,2029
2057,2036,2025,2025,2024,2033,2042,2027
2056,2028,2020,2026,2052,2050,2047,2031
2071,2046,2036,2036,2072,2084,2063,2032
2066,2054,2036,2042,2069,2094,2070,2038
2070,2051,2041,2041,2062,2092,2058,2039
2071,2058,2046,2045,2060,2081,2066,2046
2068,2058,2060,2049,2060,2046,2060,2054
2071,2054,2066,2057,2054,2030,2073,2066
2068,2052,2065,2050,2046,2038,2066,2075
2061,2050,2060,2053,2042,2043,2065,2082
2056,2047,2062,2049,2033,2044,2058,2100
2053,2049,2058,2047,2034,2042,2057,2106
2062,2052,2056,2049,2022,2032,2064,2126
2059,2062,2053,2047,2014,2035,2049,2128
2061,2067,2055,2051,2008,2026,2059,2141
2065,2072,2057,2049,2006,2017,2039,2139
2056,2060,2049,2045,1997,2010,2043,2147
2059,2062,2053,2034,2000,2017,2030,2141
2064,2068,2058,2044,2019,2033,2028,2136
2065,2061,2059,2047,2019,2039,2049,2133
2064,2057,2051,2043,2004,2040,2061,2120
2061,2061,2045,2052,2017,2040,2054,2109
2067,2056,2044,2056,2029,2043,2049,2099
2056,2050,2045,2057,2062,2047,2044,2086
2051,2049,2047,2060,2052,2047,2038,2068
2055,2051,2043,2054,2053,2048,2052,2063
2064,2052,2046,2056,2075,2055,2049,2054
2058,2051,2049,2061,2081,2068,2043,2040
2055,2048,2036,2056,2082,2070,2060,2037
2050,2042,2036,2051,2088,2073,2052,2024
2045,2042,2038,2047,2077,2075,2068,2021
2048,2040,2040,2047,2062,2065,2063,2018
2043,2033,2037,2046,2041,2057,2066,2011
2039,2028,2036,2053,2043,2054,2050,2019
2054,2046,2048,2055,2054,2059,2066,2025
2061,2051,2051,2055,2057,2062,2070,2032
2064,2053,2048,2064,2055,2068,2072,2041
2060,2053,2059,2064,2058,2073,2052,2042
2060,2054,2054,2058,2069,2077,2074,2054
2060,2057,2056,2059,2063,2081,2072,2060
2060,2056,2057,2059,2056,2078,2071,2066
2062,2055,2064,2057,2064,2072,2050,2084
2063,2060,2064,2061,2062,2073,2061,2105
2062,2060,2060,2062,2065,2071,2051,2118
2064,2061,2059,2060,2067,2049,2050,2120
2057,2056,2053,2058,2057,2040,2033,2126
2058,2053,2058,2058,2058,2043,2045,2137
2057,2054,2055,2059,2056,2046,2035,2138
2051,2041,2046,2051,2056,2045,2035,2143
2046,2038,2044,2052,2056,2051,2033,2148
2054,2048,2053,2059,2050,2058,2053,2137
2054,2049,2051,2055,2055,2055,2052,2129
2050,2050,2052,2054,2042,2048,2048,2110
2049,2049,2050,2051,2032,2048,2054,2097
2043,2050,2047,2043,2027,2052,2035,2081
2040,2050,2042,2051,2026,2055,2038,2063
2049,2053,2040,2056,2024,2054,2038,2062
2053,2051,2044,2056,2017,2055,2047,2056
2059,2056,2036,2054,2023,2058,2052,2050
2057,2052,2041,2054,2029,2063,2060,2043
2058,2050,2034,2049,2030,2068,2066,2041
2057,2052,2034,2049,2030,2070,2070,2032
2057,2047,2034,2049,2035,2070,2065,2038
2062,2050,2032,2047,2038,2067,2060,2020
2056,2037,2031,2037,2039,2066,2057,2017
2058,2038,2027,2045,2041,2043,2045,2021
2070,2051,2038,2048,2044,2015,2050,2026
2063,2052,2040,2048,2049,2017,2032,2032
2058,2047,2033,2045,2050,2017,2031,2034
2056,2047,2032,2044,2041,2021,2041,2035
2057,2041,2031,2040,2048,2028,2044,2036
2057,2041,2030,2046,2050,2034,2036,2046
2054,2039,2037,2042,2049,2034,2042,2065
2055,2049,2043,2052,2066,2043,2077,2084
2066,2056,2051,2057,2064,2051,2062,2096
2064,2061,2054,2056,2071,2059,2061,2106
2060,2058,2065,2051,2065,2078,2058,2117
2062,2056,2067,2048,2041,2070,2068,2130
2060,2055,2065,2047,2029,2070,2060,2138
2058,2051,2053,2044,2014,2055,2030,2133
2048,2038,2042,2037,2015,2029,2044,2133
2049,2045,2051,2047,2041,2014,2052,2149
2067,2058,2056,2060,2055,2014,2065,2148
2066,2056,2060,2062,2064,2039,2073,2134
2071,2059,2062,2061,2069,2071,2080,2120
2061,2060,2062,2058,2055,2061,2078,2114
2057,2064,2060,2054,2042,2052,2064,2100
2060,2062,2060,2055,2031,2035,2041,2078
2061,2054,2060,2051,2034,2027,2054,2061
2057,2057,2056,2055,2028,2038,2058,2050
2059,2052,2052,2052,2036,2046,2058,2037
2059,2056,2048,2043,2031,2044,2050,2033
2054,2052,2043,2035,2016,2042,2053,2031
2058,2050,2045,2041,2023,2042,2041,2028
2061,2051,2047,2041,2030,2038,2031,2034
2064,2056,2048,2047,2025,2041,2040,2022
2053,2041,2041,2040,2022,2036,2032,2018
2052,2041,2035,2036,2025,2048,2066,2024
2061,2062,2047,2052,2043,2047,2064,2028
2057,2057,2051,2047,2036,2045,2083,2026
2059,2056,2051,2047,2043,2043,2065,2029
2060,2052,2054,2049,2047,2051,2053,2044
2062,2053,2057,2055,2057,2052,2060,2047
2065,2056,2060,2055,2061,2050,2068,2061
2065,2065,2057,2060,2059,2050,2057,2055
2067,2062,2058,2063,2072,2049,2054,2065
2060,2062,2062,2062,2064,2049,2054,2074
2055,2060,2056,2053,2061,2033,2072,2084
2060,2054,2054,2060,2072,2025,2053,2104
2049,2054,2052,2059,2073,2040,2058,2120
2053,2051,2050,2066,2076,2058,2062,2130
2054,2056,2045,2058,2098,2063,2059,2134
2046,2045,2045,2054,2110,2050,2038,2125
2042,2045,2043,2050,2111,2044,2043,2133
2051,2052,2046,2055,2107,2052,2033,2124
2055,2052,2043,2050,2094,2058,2041,2120
2049,2053,2041,2039,2080,2052,2034,2114
2045,2046,2042,2040,2043,2057,2041,2100
2058,2055,2044,2038,2029,2063,2033,2096
2058,2059,2050,2042,2012,2047,2046,2078
2059,2064,2050,2038,1945,2032,2047,2060
2057,2060,2043,2032,1938,2034,2032,2058
2053,2058,2047,2039,1971,2043,2051,2044
2056,2052,2050,2042,1998,2054,2058,2041
2049,2047,2047,2038,2011,2064,2039,2025
2038,2043,2045,2037,2016,2065,2041,2026
2046,2037,2039,2040,2018,2077,2052,2024
2054,2042,2043,2049,2023,2082,2060,2021
2049,2041,2034,2043,2027,2063,2057,2022
2045,2033,2036,2046,2028,2007,2022,2017
2049,2047,2044,2052,2031,2002,2032,2019
2055,2051,2043,2042,2025,2022,2046,2024
2055,2051,2041,2050,2014,2041,2023,2024
2050,2050,2044,2041,1993,2031,2017,2027
2050,2045,2039,2037,1961,2040,2042,2030
2051,2041,2046,2051,1982,2048,2022,2048
2052,2051,2054,2067,2030,2046,2024,2056
2064,2062,2060,2075,2036,2034,2052,2079
2074,2068,2065,2071,2039,2038,2074,2099
2079,2074,2069,2069,2047,2045,2073,2109
2077,2066,2063,2064,2067,2043,2071,2122
2070,2060,2057,2054,2067,2034,2065,2135
2063,2056,2050,2045,2065,2032,2054,2141
2060,2051,2050,2047,2080,2046,2061,2144
2059,2038,2037,2049,2099,2047,2056,2135
2051,2032,2035,2037,2089,2035,2055,2142
2055,2038,2042,2043,2092,2032,2037,2136
2060,2043,2040,2043,2076,2048,2043,2127
2062,2046,2043,2048,2066,2048,2022,2115
2058,2041,2044,2046,2055,2047,2036,2101
2058,2050,2044,2052,2060,2056,2046,2092
2061,2052,2042,2048,2047,2070,2051,2078
2058,2051,2045,2054,2051,2069,2049,2062
2060,2055,2042,2053,2068,2052,2041,2054
2057,2046,2042,2053,2075,2035,2054,2044
2057,2049,2042,2059,2080,2017,2028,2043
2056,2049,2039,2060,2077,2029,2032,2038
2054,2045,2036,2058,2073,2040,2028,2032
2055,2048,2030,2059,2075,2048,2053,2028
2055,2044,2034,2059,2078,2052,2056,2027
2049,2041,2030,2050,2073,2051,2043,2019
2054,2037,2028,2051,2057,2044,2044,2018
2059,2048,2040,2044,2030,2046,2056,2029
2066,2058,2046,2043,1986,2045,2057,2035
2063,2057,2049,2038,2013,2019,2056,2033
2057,2054,2047,2042,2034,2005,2063,2034
2058,2055,2049,2055,2044,2020,2048,2047
2061,2056,2049,2051,2057,2039,2059,2057
2061,2061,2051,2052,2052,2037,2058,2063
2058,2053,2055,2053,2056,2044,2067,2077
2060,2063,2055,2054,2065,2043,2075,2088
2058,2060,2057,2052,2065,2043,2066,2094
2061,2057,2054,2045,2052,2033,2058,2107
2053,2055,2054,2045,2043,2027,2047,2119
2062,2060,2055,2042,2040,2028,2041,2121
2062,2056,2064,2050,2038,2029,2033,2127
2057,2053,2052,2044,2032,2034,2029,2122
2049,2037,2046,2038,2039,2046,2041,2128
2044,2038,2045,2045,2063,2056,2052,2133
2054,2047,2049,2046,2058,2049,2039,2128
2052,2050,2044,2041,2050,2034,2037,2119
2048,2053,2043,2038,2040,2028,2028,2102
2054,2052,2040,2035,2035,2036,2019,2094
2050,2047,2040,2039,2037,2042,2025,2088
2055,2047,2044,2040,2041,2048,2041,2077
2056,2049,2040,2048,2033,2044,2050,2070
2061,2050,2046,2044,2035,2038,2054,2050
2055,2052,2045,2043,2043,2042,2068,2050
2062,2053,2051,2042,2034,2042,2061,2047
2059,2055,2050,2042,2010,2033,2061,2035
2061,2055,2048,2039,2013,2035,2056,2029
2063,2060,2055,2042,2023,2039,2051,2026
2060,2055,2053,2042,2021,2043,2036,2014
2056,2044,2044,2037,2019,2033,2031,2011
2056,2047,2048,2034,2021,2043,2026,2017
2057,2059,2058,2047,2046,2056,2064,2016
2057,2059,2060,2055,2064,2058,2063,2024
2064,2059,2059,2050,2065,2057,2061,2029
2060,2056,2053,2051,2066,2057,2046,2031
2053,2055,2051,2047,2071,2056,2040,2035
2053,2046,2053,2047,2078,2059,2059,2043
2051,2049,2051,2049,2063,2050,2073,2052
2059,2052,2052,2042,2044,2042,2071,2060
2059,2054,2059,2045,2035,2046,2067,2074
2061,2052,2058,2046,2031,2041,2069,2094
2070,2057,2062,2055,2021,2044,2068,2109
2065,2060,2055,2053,2012,2029,2062,2115
2062,2051,2050,2049,2010,2021,2053,2121
2058,2051,2053,2047,1993,2008,2048,2126
2057,2046,2053,2042,1980,2001,2045,2129
2052,2038,2051,2038,2002,2021,2052,2133
2052,2039,2050,2040,2043,2057,2059,2130
2052,2047,2046,2037,2064,2074,2047,2124
2054,2041,2046,2037,2047,2070,2032,2119
2051,2034,2044,2029,2023,2062,2043,2107
2052,2040,2040,2025,2006,2049,2032,2095
2050,2039,2036,2032,2033,2008,2035,2080
2057,2041,2034,2037,2055,2011,2046,2064
2055,2032,2029,2034,2048,2032,2056,2058
2057,2040,2042,2049,2060,2049,2047,2056
2059,2049,2054,2052,2083,2050,2044,2050
2060,2047,2055,2054,2097,2056,2064,2042
2065,2047,2049,2058,2086,2050,2059,2037
2065,2046,2052,2059,2071,2046,2050,2026
2064,2047,2049,2057,2068,2042,2065,2017
2060,2050,2044,2056,2068,2031,2051,2012
2050,2037,2038,2043,2053,2033,2053,2000
2045,2036,2036,2042,2057,2041,2051,2008
2058,2044,2043,2050,2049,2052,2062,2014
2056,2053,2048,2055,2047,2056,2051,2020
2056,2050,2048,2053,2062,2055,2033,2021
2056,2047,2051,2052,2063,2052,2053,2030
2058,2055,2052,2059,2062,2050,2039,2039
2059,2054,2055,2053,2070,2054,2066,2044
2060,2047,2057,2056,2073,2053,2069,2062
2061,2052,2056,2057,2073,2052,2065,2073
2065,2060,2057,2060,2069,2049,2065,2088
2058,2058,2061,2060,2069,2049,2062,2097
2060,2061,2066,2054,2076,2043,2070,2107
2062,2054,2056,2054,2067,2039,2047,2116
2052,2056,2056,2051,2058,2036,2046,2124
2053,2050,2052,2056,2060,2030,2044,2121
2044,2031,2038,2048,2057,2025,2048,2119
2041,2026,2037,2045,2059,2034,2059,2134
2054,2039,2049,2051,2068,2062,2072,2137
2056,2041,2043,2055,2051,2059,2061,2130
2059,2040,2041,2047,2045,2042,2061,2109
2055,2045,2039,2041,2037,2039,2056,2093
2051,2041,2041,2047,2036,2039,2061,2084
2052,2038,2039,2040,2034,2032,2052,2068
2047,2035,2032,2038,2027,2033,2042,2051
2046,2029,2032,2031,2032,2032,2048,2038
2040,2032,2034,2030,2040,2050,2053,2034
2049,2040,2040,2040,2043,2054,2065,2037
2055,2044,2045,2049,2062,2061,2046,2036
2056,2052,2047,2046,2059,2064,2035,2022
2052,2053,2045,2054,2060,2063,2058,2014
2051,2045,2046,2045,2052,2061,2054,2015
2049,2041,2033,2038,2047,2053,2031,2007
2043,2040,2025,2037,2052,2041,2034,2009
2046,2046,2035,2045,2056,2051,2054,2024
2059,2058,2049,2049,2059,2058,2052,2023
2065,2059,2047,2052,2060,2050,2062,2025
2061,2060,2048,2049,2051,2040,2064,2024
2059,2053,2044,2049,2054,2040,2050,2027
2053,2056,2044,2052,2070,2048,2065,2039
2053,2053,2054,2058,2074,2051,2052,2050
2054,2051,2050,2057,2071,2054,2079,2058
2055,2047,2052,2059,2067,2035,2062,2069
2052,2050,2053,2054,2055,2017,2045,2070
2054,2043,2045,2052,2053,2020,2056,2088
2044,2046,2044,2054,2050,2018,2050,2099
2045,2047,2045,2049,2053,2026,2057,2112
2044,2048,2050,2050,2049,2027,2058,2126
2049,2049,2050,2050,2043,2024,2044,2124
2043,2030,2042,2039,2038,2023,2060,2114
2032,2027,2039,2040,2034,2026,2054,2118
2045,2040,2047,2043,2034,2039,2059,2116
2045,2041,2039,2044,2039,2052,2063,2117
2050,2036,2038,2043,2033,2048,2064,2115
2054,2038,2039,2037,2030,2040,2039,2099
2056,2041,2041,2034,2024,2036,2050,2085
2059,2042,2041,2034,1993,2053,2052,2072
2065,2044,2041,2036,2047,2067,2066,2068
2058,2042,2043,2041,2071,2076,2089,2054
2060,2045,2043,2046,2078,2085,2080,2046
2060,2054,2049,2043,2079,2097,2071,2037
2056,2050,2042,2044,2071,2090,2061,2026
2054,2050,2044,2044,2060,2094,2046,2018
2057,2051,2044,2040,2084,2108,2054,2024
2056,2048,2049,2045,2064,2098,2063,2015
2048,2036,2036,2032,2021,2051,2055,1996
2043,2036,2040,2026,1966,2023,2033,1996
2055,2051,2050,2036,1978,2004,2028,2008
2058,2061,2056,2038,1997,1962,2044,2007
2057,2061,2054,2036,2005,1962,2046,2016
2064,2063,2056,2045,2032,2003,2055,2023
2064,2062,2060,2052,2048,2026,2042,2034
2058,2060,2058,2047,2057,2036,2065,2035
2058,2054,2060,2053,2052,2037,2072,2047
2062,2055,2064,2058,2059,2045,2084,2053
2063,2061,2062,2062,2068,2054,2081,2069
2061,2060,2065,2054,2069,2052,2068,2085
2060,2060,2063,2052,2056,2042,2078,2096
2056,2052,2059,2059,2057,2035,2058,2114
2053,2055,2050,2046,2058,2034,2056,2121
2048,2054,2047,2045,2054,2028,2061,2116
2043,2046,2042,2030,2041,2019,2056,2118
2037,2036,2026,2032,2050,2043,2036,2126
2042,2036,2038,2039,2069,2068,2063,2125
2052,2046,2035,2039,2054,2045,2050,2116
2047,2046,2037,2030,2020,2024,2043,2107
2042,2046,2030,2028,2006,2019,2044,2090
2045,2046,2027,2032,2006,2023,2037,2084
2047,2050,2033,2038,2000,2044,2046,2070
2051,2060,2039,2040,2000,2031,2039,2058
2052,2054,2042,2044,2016,2032,2065,2052
2048,2057,2041,2045,2026,2045,2060,2039
2053,2052,2037,2044,2038,2048,2078,2032
2049,2048,2036,2042,2044,2033,2064,2020
2047,2049,2034,2038,2037,2020,2053,2013
2040,2044,2033,2040,2028,2023,2063,2008
2040,2045,2036,2042,2035,2035,2067,2001
2044,2047,2030,2045,2042,2038,2067,2001
2040,2036,2028,2038,2035,2031,2037,1998
2038,2039,2029,2034,2040,2033,2045,2004
2047,2045,2044,2039,2056,2043,2051,2013
2053,2054,2041,2045,2061,2042,2055,2018
2048,2060,2048,2045,2059,2039,2054,2016
2049,2057,2054,2041,2056,2037,2052,2019
2050,2057,2057,2046,2051,2041,2053,2031
2050,2058,2061,2048,2060,2046,2061,2041
2054,2058,2060,2053,2069,2053,2046,2051
2050,2062,2057,2056,2074,2053,2062,2060
2058,2066,2060,2052,2069,2055,2067,2073
2058,2066,2059,2049,2070,2051,2068,2087
2054,2058,2057,2047,2073,2057,2086,2092
2047,2051,2052,2049,2069,2057,2074,2102
2052,2051,2053,2046,2072,2064,2086,2108
2051,2054,2054,2050,2072,2066,2056,2120
2046,2057,2058,2052,2069,2053,2051,2122
2042,2054,2058,2047,2061,2043,2048,2120
2042,2051,2057,2038,2059,2046,2038,2132
2059,2064,2066,2052,2055,2046,2068,2120
2060,2064,2068,2049,2050,2046,2043,2107
2056,2064,2063,2048,2054,2050,2067,2102
2059,2060,2060,2045,2051,2058,2072,2088
2057,2060,2059,2045,2053,2059,2065,2081
2054,2053,2053,2048,2050,2054,2064,2055
2050,2055,2047,2053,2044,2059,2058,2056
2055,2059,2054,2046,2041,2051,2059,2039
2054,2058,2051,2045,2036,2044,2063,2038
2050,2055,2049,2045,2029,2045,2058,2029
2049,2056,2047,2046,2035,2035,2050,2015
2058,2055,2049,2045,2041,2029,2044,2009
2053,2051,2044,2044,2045,2025,2035,2006
2050,2054,2043,2042,2047,2036,2042,1999
