CH1,CH2,CH3,CH4,CH5,CH6,CH7,CH8
2030,2030,2033,2059,2132,2064,2045,2026
2032,2040,2036,2086,2176,2079,2077,2026
2034,2047,2044,2086,2154,2084,2082,2035
2037,2041,2034,2076,2100,2076,2076,2028
2033,2039,2028,2059,2090,2063,2069,2037
2032,2035,2022,2028,2020,2059,2068,2034
2039,2035,2022,2013,2035,2068,2054,2037
2033,2036,2021,2015,2092,2058,2051,2035
2035,2037,2023,2025,2065,2059,2045,2040
2038,2045,2030,2049,2041,2065,2029,2037
2043,2049,2029,2048,2021,2056,2020,2037
2038,2042,2023,2041,2024,2051,2047,2036
2039,2038,2024,2043,2054,2021,2018,2036
2030,2029,2020,2044,2067,1991,2020,2034
2036,2037,2028,2047,2032,1998,2044,2046
2038,2049,2043,2048,2049,2020,2052,2044
2046,2048,2052,2045,2054,2026,2050,2047
2049,2059,2069,2046,2083,2039,2050,2053
2054,2063,2081,2057,2115,2050,2060,2062
2053,2069,2084,2059,2120,2055,2057,2054
2054,2064,2079,2061,2114,2062,2052,2056
2053,2059,2067,2058,2089,2060,2069,2051
2054,2056,2060,2047,2039,2056,2054,2043
2040,2046,2050,2039,1966,2055,2051,2033
2037,2044,2045,2045,1978,2065,2068,2032
2037,2043,2043,2054,1990,2075,2065,2036
2043,2049,2046,2065,2039,2078,2050,2032
2042,2042,2052,2054,2043,2060,2056,2025
2042,2039,2056,2046,2026,2037,2058,2010
2029,2028,2044,2046,2040,2033,2042,2014
2030,2028,2049,2054,2067,2036,2042,2013
2031,2045,2054,2061,2071,2035,2033,2012
2045,2052,2056,2066,2068,2045,2057,2023
2040,2048,2057,2067,2068,2049,2053,2024
2043,2045,2055,2066,2073,2053,2070,2031
2042,2046,2058,2067,2080,2063,2070,2032
2044,2042,2055,2065,2051,2055,2066,2041
2045,2044,2049,2060,2027,2036,2057,2041
2044,2051,2053,2054,2037,2030,2051,2040
2051,2054,2049,2056,2041,2036,2051,2046
2045,2044,2036,2042,2022,2036,2050,2040
2046,2045,2030,2036,2008,2023,2044,2047
2044,2036,2030,2046,2001,2009,2036,2045
2050,2047,2038,2056,1991,2026,2038,2050
2055,2050,2045,2060,1999,2034,2017,2047
2044,2030,2023,2049,2026,2037,2031,2043
2042,2022,2022,2048,2036,2041,2060,2050
2046,2046,2038,2059,2043,2045,2046,2051
2050,2044,2054,2060,2020,2045,2052,2048
2055,2049,2061,2063,2018,2043,2035,2046
2053,2045,2061,2066,2025,2040,2055,2050
2055,2048,2056,2055,2043,2036,2023,2046
2047,2042,2058,2054,2055,2035,2048,2051
2050,2046,2067,2059,2073,2044,2064,2050
2050,2046,2068,2068,2064,2049,2071,2053
2053,2054,2064,2070,2062,2057,2071,2046
2054,2053,2062,2066,2073,2055,2062,2039
2055,2042,2049,2057,2082,2050,2076,2038
2049,2043,2034,2045,2087,2047,2051,2036
2042,2036,2023,2036,2099,2045,2042,2038
2044,2036,2027,2034,2112,2051,2058,2026
2034,2032,2030,2026,2076,2041,2047,2033
2041,2040,2038,2021,2021,2048,2045,2038
2047,2052,2034,2007,1987,2041,2040,2032
2046,2041,2013,2000,1937,2038,2044,2027
2042,2040,2019,2033,1985,2039,2045,2025
2040,2047,2038,2050,1994,2026,2038,2028
2048,2044,2042,2040,1985,2026,2031,2030
2043,2040,2034,2037,1983,2026,2043,2033
2042,2036,2025,2050,2003,2040,2035,2033
2035,2032,2026,2057,2029,2054,2050,2036
2047,2034,2025,2067,2065,2057,2023,2039
2046,2030,2021,2065,2086,2055,2034,2038
2047,2025,2022,2069,2085,2051,2040,2045
2049,2025,2021,2059,2066,2045,2048,2039
2052,2034,2033,2052,2060,2047,2034,2042
2047,2043,2037,2053,2062,2042,2044,2040
2037,2030,2022,2040,2058,2043,2046,2038
2037,2028,2021,2040,2060,2051,2043,2045
2048,2036,2019,2044,2076,2061,2059,2041
2040,2025,2022,2041,2079,2059,2035,2040
2048,2037,2030,2045,2075,2058,2048,2039
2049,2040,2041,2050,2078,2060,2059,2040
2045,2044,2062,2057,2070,2057,2048,2041
2041,2049,2073,2067,2072,2052,2049,2036
2047,2051,2087,2073,2047,2052,2041,2034
2050,2057,2091,2072,2027,2042,2042,2035
2049,2055,2084,2068,2024,2040,2046,2040
2046,2052,2077,2073,2027,2038,2056,2037
2054,2061,2087,2076,2039,2045,2040,2035
2058,2066,2089,2078,2031,2049,2054,2040
2056,2055,2075,2068,2035,2043,2055,2034
2051,2047,2057,2053,2043,2044,2042,2025
2036,2031,2045,2037,2061,2031,2035,2024
2033,2026,2047,2042,2084,2043,2023,2027
2038,2052,2073,2051,2087,2052,2032,2034
2048,2053,2072,2046,2075,2052,2052,2039
2059,2060,2062,2045,2059,2055,2061,2045
2060,2064,2053,2040,2059,2058,2042,2046
2066,2058,2050,2041,2038,2051,2035,2043
2059,2060,2052,2036,2019,2057,2048,2046
2052,2054,2047,2035,1989,2064,2056,2047
2050,2050,2042,2025,1956,2064,2065,2046
2050,2043,2026,2014,1933,2062,2055,2047
2045,2033,2027,2001,1900,2040,2050,2044
2042,2036,2024,2004,1900,2033,2051,2048
2035,2034,2038,2004,1947,2029,2060,2045
2036,2045,2044,2004,1940,2016,2049,2049
2040,2050,2050,2023,2006,2027,2049,2044
2035,2045,2058,2058,2142,2044,2038,2041
2034,2043,2061,2076,2173,2039,2030,2045
2037,2050,2067,2068,2158,2040,2030,2052
2042,2049,2064,2069,2169,2043,2035,2050
2036,2046,2062,2057,2054,2040,2053,2049
2042,2050,2064,2080,2045,2061,2073,2055
2049,2055,2061,2086,2074,2066,2052,2057
2052,2059,2061,2097,2113,2078,2081,2060
2056,2059,2065,2094,2080,2087,2069,2066
2062,2061,2057,2091,2100,2086,2076,2057
2053,2057,2054,2085,2043,2076,2065,2052
2048,2062,2057,2056,1905,2051,2051,2045
2040,2053,2060,2023,1855,2029,2053,2038
2042,2052,2047,2029,1968,2037,2061,2031
2032,2048,2046,2040,2027,2054,2068,2027
2035,2056,2041,2041,2076,2055,2063,2033
2038,2057,2044,2056,2129,2068,2055,2036
2035,2046,2037,2072,2176,2083,2060,2026
2036,2046,2038,2077,2253,2104,2072,2036
2046,2056,2037,2087,2300,2107,2057,2044
2045,2057,2031,2069,2266,2112,2063,2041
2048,2048,2032,2069,2251,2079,2027,2030
2043,2045,2037,2055,2130,2023,2043,2031
2044,2052,2048,2050,2082,2001,2040,2039
2048,2058,2045,2039,2044,2006,2042,2030
2042,2046,2031,2013,1891,1987,2020,2023
2033,2040,2021,1995,1793,1987,2010,2030
2035,2041,2034,2034,1908,2026,2030,2041
2043,2048,2047,2061,2005,2048,2038,2050
2051,2048,2041,2060,2036,2048,2046,2049
2047,2053,2040,2066,2043,2047,2034,2061
2049,2056,2050,2068,2046,2040,2028,2055
2044,2062,2058,2068,2028,2029,2029,2054
2043,2056,2057,2060,2008,2023,2013,2049
2034,2045,2060,2066,1995,2024,2010,2047
2039,2054,2063,2069,2004,2031,2058,2060
2040,2058,2057,2070,2022,2038,2066,2053
2045,2060,2052,2069,2031,2044,2063,2059
2054,2059,2059,2076,2026,2046,2065,2058
2058,2059,2063,2082,2052,2056,2070,2052
2049,2056,2062,2085,2091,2068,2056,2050
2052,2053,2052,2083,2091,2059,2070,2053
2045,2053,2047,2072,2063,2056,2077,2046
2044,2047,2036,2063,2049,2049,2049,2044
2044,2049,2036,2057,2043,2052,2056,2041
2040,2042,2030,2054,2043,2049,2044,2038
2039,2043,2024,2038,2052,2049,2058,2034
2035,2033,2026,2036,2045,2049,2063,2032
2037,2044,2034,2041,2051,2055,2060,2029
2040,2046,2033,2041,2043,2057,2054,2024
2036,2037,2024,2036,2054,2060,2050,2023
2037,2042,2035,2048,2081,2074,2059,2040
2046,2055,2048,2061,2051,2062,2057,2036
2044,2052,2047,2056,2027,2034,2057,2040
2052,2053,2054,2057,2029,2034,2050,2037
2051,2052,2056,2065,2041,2044,2057,2053
2055,2061,2052,2078,2028,2046,2059,2052
2054,2055,2057,2074,2028,2041,2053,2051
2052,2049,2054,2067,2008,2032,2052,2046
2046,2048,2041,2064,2000,2030,2051,2057
2044,2041,2048,2058,2020,2037,2051,2043
2039,2041,2044,2058,2018,2034,2050,2051
2033,2043,2059,2085,2044,2042,2048,2052
2043,2050,2090,2103,2054,2052,2037,2054
2041,2053,2094,2102,2016,2054,2033,2054
2043,2048,2087,2090,2006,2044,2043,2049
2046,2033,2064,2077,2009,2037,2041,2051
2040,2031,2051,2074,1990,2038,2038,2052
2052,2046,2062,2073,1975,2029,2051,2051
2048,2050,2060,2066,1995,2030,2045,2057
2043,2053,2061,2067,2063,2041,2043,2056
2050,2055,2064,2066,2058,2059,2049,2055
2055,2069,2081,2060,2031,2055,2059,2057
2061,2064,2085,2062,2011,2047,2056,2059
2053,2062,2075,2053,2022,2038,2063,2048
2048,2047,2060,2034,2009,2019,2057,2045
2035,2041,2054,2017,2018,2020,2052,2042
2040,2044,2047,2027,2091,2054,2059,2052
2040,2037,2044,2034,2119,2061,2058,2046
2048,2040,2034,2015,2076,2049,2078,2043
2042,2037,2022,2012,2046,2043,2060,2046
2046,2047,2040,2032,2048,2041,2055,2042
2048,2046,2051,2046,2053,2041,2032,2037
2039,2041,2062,2051,2052,2042,2038,2036
2042,2048,2062,2054,2055,2048,2054,2033
2042,2048,2057,2044,2034,2046,2053,2031
2045,2048,2051,2041,2021,2045,2052,2034
2043,2055,2046,2042,2012,2047,2060,2036
2039,2054,2045,2042,2027,2053,2062,2046
2044,2050,2042,2044,2033,2056,2054,2045
2046,2051,2045,2049,2035,2053,2062,2044
2047,2055,2050,2049,2032,2054,2050,2049
2045,2051,2051,2042,2026,2053,2041,2048
2042,2050,2048,2035,2043,2046,2063,2049
2045,2042,2041,2033,2070,2049,2060,2060
2042,2042,2032,2032,2081,2048,2045,2059
2041,2041,2039,2045,2086,2057,2048,2066
2047,2048,2051,2065,2108,2065,2082,2066
2053,2051,2073,2078,2130,2076,2059,2068
2049,2051,2072,2085,2148,2079,2066,2066
2043,2041,2069,2084,2143,2084,2062,2072
2054,2048,2072,2090,2132,2066,2064,2061
2052,2045,2065,2075,2106,2046,2067,2061
2051,2050,2059,2078,2092,2053,2067,2055
2047,2045,2065,2078,2064,2054,2048,2057
2048,2049,2069,2057,1944,2042,2051,2054
2049,2049,2070,2045,1884,2035,2056,2050
2051,2045,2073,2058,1939,2042,2044,2048
2055,2046,2056,2044,1978,2046,2046,2047
2051,2041,2051,2033,2005,2056,2035,2039
2044,2037,2038,2030,2045,2063,2046,2029
2036,2037,2035,2030,2072,2066,2032,2028
2035,2035,2031,2032,2071,2054,2047,2022
2042,2036,2034,2028,2064,2056,2027,2026
2036,2040,2034,2029,2058,2049,2026,2020
2028,2032,2023,2025,2046,2046,2044,2013
2024,2028,2027,2021,2028,2043,2035,2022
2040,2042,2043,2030,2032,2049,2045,2027
2038,2050,2047,2038,2030,2050,2060,2033
2033,2048,2047,2040,2018,2045,2038,2035
2039,2047,2035,2047,2049,2050,2037,2033
2034,2039,2036,2050,2056,2055,2057,2047
2042,2044,2037,2054,2059,2058,2034,2050
2040,2041,2039,2054,2059,2053,2019,2041
2037,2046,2046,2060,2054,2048,2030,2048
2036,2054,2060,2072,2059,2053,2056,2050
2043,2055,2063,2067,2073,2050,2036,2053
2045,2052,2059,2056,2024,2050,2028,2058
2049,2049,2050,2038,1925,2033,2050,2062
2052,2050,2045,2032,1966,2027,2042,2057
2051,2054,2040,2036,2016,2035,2064,2072
2045,2048,2034,2043,1995,2032,2056,2064
2041,2045,2036,2042,1954,2036,2039,2065
2045,2052,2051,2053,1994,2044,2045,2062
2052,2059,2066,2054,1988,2043,2048,2061
2046,2066,2060,2061,1966,2050,2041,2053
2041,2059,2052,2054,1942,2049,2039,2051
2047,2059,2059,2050,1934,2036,2039,2047
2045,2060,2052,2042,1943,2035,2027,2047
2041,2056,2056,2031,1976,2023,2045,2042
2044,2056,2060,2038,2045,2027,2041,2037
2042,2054,2070,2046,2072,2041,2056,2038
2041,2059,2071,2057,2082,2035,2049,2033
2039,2059,2078,2059,2091,2032,2040,2035
2038,2049,2072,2054,2117,2035,2028,2032
2031,2049,2064,2067,2169,2046,2045,2039
2032,2048,2056,2070,2173,2056,2045,2032
2030,2046,2053,2077,2179,2055,2034,2017
2028,2035,2043,2073,2140,2064,2047,2014
2028,2031,2042,2058,2067,2067,2033,2021
2030,2043,2053,2069,2072,2081,2046,2025
2041,2046,2056,2081,2102,2088,2053,2029
2042,2049,2054,2064,2090,2093,2039,2034
2039,2049,2053,2056,2108,2089,2052,2037
2041,2048,2052,2044,2105,2091,2061,2039
2041,2052,2050,2026,2068,2071,2044,2038
2040,2048,2050,2016,2034,2014,2046,2029
2037,2048,2048,2025,2005,1986,2032,2031
2035,2048,2046,2032,1905,1998,2032,2030
2032,2047,2056,2064,1950,2018,2057,2026
2035,2050,2057,2066,1998,2035,2055,2033
2031,2050,2049,2062,2035,2040,2052,2038
2042,2055,2053,2056,2048,2035,2054,2052
2047,2057,2058,2050,2046,2032,2053,2045
2036,2049,2049,2039,2032,2026,2052,2045
2041,2047,2048,2035,2033,2033,2063,2047
2050,2070,2061,2044,2035,2049,2069,2055
2050,2067,2059,2051,2034,2050,2064,2057
2051,2061,2056,2049,2050,2051,2070,2051
2047,2063,2052,2049,2055,2053,2072,2050
2047,2057,2051,2053,2052,2056,2066,2043
2049,2059,2055,2050,2052,2056,2060,2039
2040,2057,2051,2048,2048,2045,2057,2047
2042,2054,2052,2054,2046,2044,2066,2040
2046,2051,2049,2060,2051,2051,2067,2043
2051,2052,2052,2063,2059,2053,2067,2037
2039,2054,2054,2056,2048,2054,2072,2025
2040,2058,2053,2054,2066,2058,2070,2034
2037,2056,2056,2054,2064,2052,2062,2031
2039,2048,2052,2046,2055,2049,2060,2027
2040,2043,2043,2041,2053,2041,2054,2023
2032,2034,2040,2044,2050,2042,2059,2019
2036,2047,2056,2055,2049,2045,2062,2033
2045,2057,2066,2058,2054,2045,2074,2035
2049,2066,2067,2057,2052,2050,2066,2035
2055,2061,2062,2060,2054,2050,2065,2036
2046,2059,2062,2057,2053,2050,2063,2034
2049,2064,2067,2054,2050,2049,2056,2042
2051,2066,2064,2057,2045,2045,2054,2050
2051,2065,2060,2053,2026,2048,2070,2050
2060,2064,2058,2054,2041,2053,2042,2053
2057,2054,2056,2058,2039,2055,2062,2054
2053,2053,2058,2060,2051,2056,2058,2052
2050,2059,2065,2060,2057,2054,2077,2054
2055,2058,2058,2055,2043,2058,2077,2054
2058,2059,2056,2057,2015,2048,2071,2055
2053,2065,2057,2052,1992,2040,2064,2056
2045,2051,2043,2041,1953,2029,2031,2054
2043,2049,2039,2043,2004,2047,2046,2048
2042,2052,2044,2058,2086,2068,2058,2056
2046,2056,2044,2074,2114,2081,2074,2053
2055,2060,2045,2076,2122,2084,2072,2060
2055,2063,2049,2083,2163,2074,2069,2057
2053,2060,2045,2072,2161,2062,2070,2056
2052,2062,2044,2045,2094,2052,2069,2054
2052,2054,2039,2029,2046,2045,2070,2047
2054,2055,2045,2030,2016,2021,2064,2048
2050,2049,2045,2032,1993,2007,2056,2040
2046,2036,2035,2048,2022,2026,2067,2030
2045,2037,2042,2076,2069,2060,2061,2036
2043,2037,2044,2084,2118,2069,2073,2035
2044,2047,2055,2080,2130,2068,2081,2037
2050,2052,2052,2085,2121,2069,2072,2031
2041,2034,2031,2071,2100,2065,2074,2033
2034,2024,2026,2061,2108,2071,2058,2029
2038,2048,2040,2064,2098,2070,2064,2036
2043,2062,2054,2056,2050,2050,2067,2028
2049,2064,2058,2048,2062,2048,2061,2030
2045,2059,2047,2031,1947,2042,2058,2037
2047,2062,2048,2042,1975,2062,2046,2049
2050,2057,2039,2049,2054,2062,2061,2039
2048,2059,2030,2048,2080,2047,2065,2041
2043,2052,2028,2054,2094,2041,2044,2040
2045,2048,2034,2059,2126,2045,2040,2047
2037,2046,2032,2042,2019,2041,2052,2045
2041,2043,2032,2026,1928,2032,2059,2042
2040,2049,2060,2026,1980,2029,2064,2051
2044,2056,2078,2045,2018,2023,2055,2051
2046,2055,2086,2073,2008,2036,2043,2046
2041,2038,2075,2073,2003,2021,2028,2043
2039,2047,2057,2082,2018,2026,2052,2046
2047,2054,2059,2079,2032,2020,2056,2046
2043,2056,2051,2075,2061,2033,2059,2048
2049,2060,2054,2088,2081,2050,2057,2049
2045,2067,2066,2090,2072,2052,2059,2045
2048,2064,2067,2082,2069,2055,2056,2041
2053,2070,2059,2066,2071,2056,2052,2040
2049,2062,2052,2042,2066,2050,2061,2039
2042,2057,2040,2027,2060,2046,2055,2035
2050,2053,2029,2022,2060,2048,2055,2035
2045,2051,2018,2015,2058,2049,2061,2036
2039,2051,2010,2025,2052,2054,2067,2030
2043,2051,2012,2022,2041,2050,2062,2030
2047,2051,2011,2033,2023,2044,2067,2033
2043,2041,2004,2033,2026,2041,2058,2026
2038,2034,2009,2036,2026,2038,2049,2022
2040,2044,2024,2048,2033,2049,2060,2029
2052,2055,2034,2062,2036,2048,2066,2030
2043,2053,2042,2054,2025,2040,2059,2028
2043,2052,2031,2050,2048,2043,2047,2028
2041,2042,2008,2026,2048,2041,2058,2033
2040,2033,1990,2010,2032,2040,2066,2038
2038,2042,2003,2010,2040,2053,2056,2048
2045,2054,2028,2031,2039,2062,2066,2045
2050,2056,2036,2016,2037,2068,2062,2041
2055,2062,2046,2020,2051,2074,2058,2049
2059,2068,2051,2031,2087,2073,2061,2057
2056,2076,2055,2028,2105,2065,2067,2055
2054,2070,2047,2022,2125,2045,2061,2052
2052,2063,2053,2028,2096,2042,2040,2059
2047,2048,2055,2028,2049,2036,2044,2052
2042,2047,2054,2019,1958,2029,2057,2051
2045,2049,2058,2017,1971,2033,2032,2050
2045,2052,2068,2036,2038,2053,2043,2054
2045,2048,2067,2048,2054,2054,2045,2052
2042,2047,2063,2046,2048,2049,2048,2057
2049,2059,2074,2048,2045,2050,2030,2056
2052,2071,2075,2049,2049,2055,2038,2052
2054,2069,2069,2045,2056,2052,2042,2046
2047,2056,2063,2044,2057,2058,2050,2050
2046,2059,2056,2045,2059,2065,2054,2049
2051,2055,2049,2032,2054,2060,2050,2046
2046,2052,2041,2028,2050,2058,2041,2042
2051,2057,2052,2039,2048,2060,2048,2043
2052,2063,2061,2040,2060,2065,2048,2038
2044,2060,2050,2041,2062,2057,2044,2030
2041,2050,2041,2032,2049,2043,2049,2022
2040,2045,2034,2033,2047,2045,2044,2027
2051,2053,2044,2042,2048,2052,2041,2034
2046,2049,2046,2039,2048,2055,2030,2034
2048,2053,2041,2041,2048,2057,2029,2031
2050,2052,2041,2041,2051,2049,2048,2042
2051,2051,2048,2042,2047,2052,2044,2043
2057,2050,2043,2038,2041,2051,2035,2046
2052,2050,2037,2041,2045,2055,2062,2050
2053,2045,2034,2042,2038,2051,2051,2045
2060,2046,2023,2042,2039,2049,2047,2040
2052,2046,2029,2044,2038,2051,2045,2045
2056,2054,2033,2040,2043,2051,2037,2047
2055,2052,2033,2046,2046,2050,2042,2055
2052,2048,2033,2050,2045,2054,2017,2049
2054,2049,2035,2047,2051,2057,2039,2062
2049,2035,2028,2046,2045,2047,2041,2052
2049,2040,2028,2044,2048,2051,2036,2054
2052,2058,2041,2052,2054,2054,2040,2060
2053,2055,2037,2058,2054,2058,2036,2057
2054,2057,2042,2051,2050,2059,2045,2056
2050,2052,2042,2057,2051,2055,2056,2050
2058,2047,2052,2057,2055,2056,2051,2042
2054,2052,2059,2063,2073,2056,2045,2048
2051,2059,2063,2060,2090,2060,2051,2048
2050,2063,2073,2065,2097,2062,2036,2052
2054,2060,2066,2064,2098,2069,2056,2039
2047,2060,2072,2069,2101,2066,2057,2042
2047,2059,2071,2064,2105,2062,2048,2033
2048,2057,2070,2060,2098,2064,2042,2036
2053,2055,2062,2055,2082,2056,2045,2034
2045,2046,2052,2037,1996,2048,2053,2030
2048,2039,2041,2016,1956,2038,2040,2021
2045,2035,2045,2029,1978,2041,2046,2026
2051,2052,2045,2044,1994,2043,2040,2032
2054,2050,2043,2043,1986,2054,2047,2026
2050,2053,2047,2042,1988,2046,2051,2031
2053,2056,2052,2045,1993,2045,2036,2036
2049,2058,2059,2051,2030,2046,2041,2035
2056,2059,2058,2048,2037,2050,2043,2036
2058,2062,2056,2051,2058,2054,2049,2042
2055,2058,2051,2057,2078,2054,2056,2046
2057,2051,2046,2056,2119,2056,2049,2045
2053,2053,2042,2057,2161,2062,2046,2037
2045,2051,2043,2060,2118,2063,2046,2045
2051,2048,2038,2041,1947,2051,2041,2046
2055,2043,2041,2033,1905,2049,2031,2050
2047,2037,2035,2035,1922,2050,2036,2045
2043,2031,2031,2026,1900,2038,2006,2048
2046,2039,2039,2034,1911,2042,2011,2059
2055,2059,2058,2050,1961,2052,2038,2056
2055,2058,2058,2047,1999,2045,2049,2052
2056,2056,2053,2061,2067,2048,2050,2052
2051,2051,2053,2083,2169,2065,2037,2055
2053,2053,2053,2090,2204,2075,2058,2057
2056,2057,2050,2062,2159,2055,2056,2053
2052,2052,2050,2038,2113,2053,2040,2048
2052,2057,2048,2033,2108,2054,2049,2045
2051,2050,2044,2026,2091,2052,2055,2045
2047,2044,2038,2024,2062,2047,2042,2044
2046,2048,2035,2030,2011,2051,2054,2044
2055,2060,2053,2049,1977,2058,2050,2049
2055,2067,2059,2059,1989,2058,2051,2042
2054,2069,2054,2063,2016,2068,2039,2036
2047,2055,2053,2058,2007,2058,2038,2032
2042,2054,2051,2058,1989,2059,2031,2040
2050,2061,2064,2061,2002,2069,2045,2041
2051,2059,2060,2066,2039,2080,2054,2033
2045,2052,2057,2051,2075,2070,2043,2023
2040,2049,2053,2043,2122,2075,2043,2032
2050,2059,2056,2048,2123,2088,2046,2042
2052,2065,2058,2055,2075,2072,2044,2043
2048,2060,2051,2050,2075,2066,2041,2044
2044,2058,2057,2062,2103,2058,2049,2047
2051,2051,2059,2068,2115,2049,2033,2046
2044,2050,2048,2061,2089,2034,2020,2040
2036,2050,2053,2047,2025,2012,2030,2043
2044,2044,2046,2044,1996,1998,2021,2049
2049,2041,2041,2051,2029,2009,2024,2049
2048,2039,2052,2062,2082,2037,2024,2047
2039,2040,2050,2070,2122,2060,2013,2040
2044,2041,2054,2074,2133,2073,2036,2046
2050,2058,2062,2073,2135,2063,2045,2044
2047,2054,2063,2061,2118,2056,2033,2048
2047,2056,2066,2061,2109,2054,2048,2045
2056,2060,2073,2058,2038,2045,2043,2043
2051,2057,2064,2025,1906,2030,2043,2036
2045,2052,2049,2031,1955,2043,2042,2044
2042,2056,2046,2031,2024,2054,2048,2043
2045,2052,2041,2032,2044,2050,2041,2038
2049,2051,2034,2025,2024,2053,2052,2033
2052,2054,2035,2015,2012,2056,2039,2040
2053,2050,2036,2011,2006,2054,2057,2038
2045,2058,2040,2007,2011,2047,2054,2037
2050,2057,2033,2000,2010,2045,2047,2038
2052,2059,2030,2010,2064,2054,2045,2029
2045,2055,2043,2014,2090,2039,2037,2022
2050,2056,2047,2024,2090,2040,2046,2028
2051,2064,2058,2047,2078,2051,2045,2030
2053,2061,2055,2055,2051,2051,2047,2031
2052,2057,2040,2061,2034,2038,2036,2029
2048,2052,2036,2063,2021,2030,2026,2029
2048,2044,2036,2067,2012,2029,2024,2029
2044,2046,2030,2064,2020,2035,2028,2032
2039,2046,2028,2067,2031,2042,2044,2037
2048,2044,2036,2065,2037,2053,2033,2040
2050,2051,2037,2069,2050,2060,2045,2042
2050,2043,2044,2069,2077,2060,2046,2042
2040,2042,2052,2081,2111,2067,2059,2045
2044,2041,2049,2088,2118,2075,2061,2052
2052,2039,2051,2090,2113,2076,2052,2052
2053,2034,2045,2088,2099,2074,2043,2044
2041,2025,2044,2080,2090,2066,2018,2045
2041,2036,2056,2073,2071,2065,2034,2050
2054,2056,2081,2072,2071,2069,2040,2052
2055,2062,2080,2052,2053,2060,2055,2052
2057,2055,2075,2048,2069,2055,2051,2050
2053,2060,2082,2058,2065,2049,2046,2058
2057,2071,2100,2074,2074,2053,2060,2056
2064,2077,2105,2074,2075,2061,2055,2056
2063,2071,2086,2062,2090,2063,2062,2054
2064,2069,2071,2062,2094,2062,2062,2042
2064,2057,2068,2044,2073,2062,2051,2044
2058,2056,2060,2016,2008,2057,2062,2039
2060,2053,2044,2002,2042,2066,2045,2034
2061,2042,2032,1996,2138,2068,2039,2035
2050,2040,2036,2000,2130,2067,2049,2032
2052,2046,2050,2016,2077,2052,2056,2030
2041,2045,2044,1998,2022,2033,2048,2025
2045,2030,2028,1985,2004,2046,2035,2035
2049,2050,2039,2001,2060,2073,2053,2036
2061,2056,2047,2027,2131,2100,2062,2039
2062,2060,2056,2036,2150,2102,2065,2046
2056,2057,2052,2024,2126,2090,2068,2048
2051,2051,2050,2017,2104,2088,2056,2041
2051,2054,2055,2039,2148,2079,2049,2045
2054,2049,2057,2027,2144,2037,2040,2041
2047,2040,2047,2002,2016,1989,2027,2041
2039,2041,2036,1983,1846,1981,2040,2046
2050,2047,2039,2008,1888,2036,2046,2047
2046,2046,2039,2015,1937,2050,2051,2049
2044,2039,2029,2006,1976,2052,2033,2052
2046,2043,2032,2008,1994,2070,2043,2052
2047,2050,2036,2020,2012,2084,2044,2045
2039,2040,2021,2021,2026,2081,2032,2045
2038,2034,2021,2018,2018,2087,2045,2050
2051,2042,2023,2029,2023,2085,2046,2052
2052,2046,2023,2030,2073,2040,2035,2054
2056,2043,2027,2036,2094,2013,2037,2055
2051,2045,2030,2042,2104,2012,2039,2047
2050,2045,2034,2032,2071,2014,2029,2049
2045,2043,2038,2036,2072,2029,2044,2047
2048,2038,2044,2035,2060,2032,2043,2045
2049,2046,2046,2034,2005,2034,2040,2044
2051,2056,2055,2025,1902,2023,2020,2046
2056,2068,2071,2021,1886,2026,2051,2044
2051,2059,2080,2034,1951,2046,2045,2044
2051,2058,2072,2039,2009,2047,2058,2037
2041,2052,2070,2040,2054,2046,2058,2039
2046,2051,2070,2049,2052,2048,2064,2044
2048,2043,2057,2031,1997,2032,2050,2035
2045,2041,2042,2021,1947,2030,2039,2029
2046,2056,2050,2030,1942,2035,2037,2029
2046,2058,2047,2046,2018,2049,2035,2033
2049,2063,2065,2074,2035,2064,2054,2035
2056,2063,2069,2076,2035,2059,2058,2042
2052,2058,2074,2070,2025,2053,2050,2046
2053,2058,2064,2066,2016,2056,2046,2052
2054,2065,2057,2053,2021,2052,2057,2054
2048,2054,2057,2050,2033,2043,2046,2054
2051,2062,2051,2049,2046,2048,2047,2051
2049,2063,2053,2053,2066,2049,2064,2056
2049,2058,2048,2067,2092,2058,2041,2066
2053,2057,2050,2074,2089,2048,2042,2057
2052,2054,2042,2081,2063,2038,2052,2054
2049,2050,2056,2088,2036,2041,2052,2057
2043,2046,2052,2093,2050,2045,2059,2058
2043,2037,2056,2100,2060,2056,2058,2058
2052,2054,2065,2098,2068,2058,2081,2070
2058,2062,2059,2074,2044,2054,2065,2070
2056,2061,2051,2041,2023,2044,2062,2063
2055,2067,2057,2051,2076,2055,2062,2059
2063,2062,2049,2049,2082,2035,2038,2055
2043,2051,2037,2032,2041,2014,2044,2044
2041,2049,2040,2042,2058,2023,2039,2044
2040,2049,2042,2050,2085,2039,2061,2043
2040,2048,2052,2040,2059,2038,2064,2042
2037,2054,2056,2038,2050,2046,2062,2041
2042,2052,2066,2037,2049,2047,2054,2037
2039,2054,2053,2031,2043,2045,2055,2034
2045,2044,2044,2025,2024,2048,2055,2033
2040,2045,2039,2019,2020,2064,2061,2037
2042,2037,2029,2028,2031,2077,2057,2027
2030,2030,2025,2041,2055,2082,2050,2029
2032,2035,2031,2038,2036,2078,2046,2027
2043,2042,2032,2042,2025,2072,2047,2028
2047,2047,2035,2039,2012,2043,2047,2040
2052,2044,2040,2040,2029,2027,2053,2051
2053,2054,2058,2056,2096,2035,2046,2046
2050,2058,2053,2062,2130,2023,2047,2046
2047,2045,2044,2039,2045,2006,2046,2036
2044,2036,2038,2025,1933,2015,2050,2038
2036,2033,2028,2027,2023,2050,2058,2039
2041,2032,2033,2047,2117,2061,2053,2043
2038,2032,2027,2053,2160,2067,2033,2040
2037,2030,2027,2056,2172,2064,2032,2043
2033,2030,2013,2029,2033,2052,2025,2048
2030,2032,2008,2020,1979,2048,2042,2055
2039,2032,2010,2035,2021,2051,2049,2053
2029,2031,2021,2048,2038,2042,2050,2050
2029,2036,2045,2053,2052,2048,2045,2054
2037,2044,2040,2034,2071,2039,2049,2051
2036,2046,2032,2033,2083,2045,2060,2047
2040,2050,2045,2045,2072,2052,2052,2052
2047,2052,2075,2055,2062,2050,2073,2054
2054,2064,2088,2066,2059,2050,2060,2052
2047,2061,2086,2061,2046,2045,2057,2052
2052,2054,2082,2062,2050,2041,2056,2044
2047,2049,2070,2056,2048,2046,2070,2045
2042,2054,2065,2066,2052,2047,2046,2041
2043,2054,2075,2073,2064,2052,2044,2036
2045,2053,2069,2089,2070,2056,2046,2043
2050,2060,2051,2088,2068,2061,2039,2032
2052,2049,2030,2091,2062,2056,2054,2030
2051,2047,2006,2080,2057,2046,2042,2026
2037,2031,1990,2066,2044,2042,2047,2023
2035,2027,1990,2063,2046,2052,2035,2026
2038,2038,1999,2060,2054,2052,2034,2027
2043,2044,2025,2057,2053,2053,2024,2027
2038,2044,2029,2041,2029,2073,2018,2022
2041,2039,2023,2024,1996,2072,2007,2020
2045,2038,2030,2015,1968,2056,2040,2029
2044,2045,2035,2024,1949,2035,2022,2035
2041,2045,2036,2008,1941,2011,2019,2034
2038,2044,2032,2011,1974,1978,2037,2045
2041,2042,2036,2020,2025,1982,2044,2061
2045,2048,2046,2032,2067,2021,2067,2061
2058,2054,2063,2031,2071,2044,2076,2064
2060,2068,2102,2046,2068,2059,2076,2064
2062,2077,2139,2055,2062,2065,2080,2061
2058,2085,2148,2063,2061,2056,2071,2052
2056,2074,2126,2047,2067,2051,2069,2050
2057,2070,2106,2044,2060,2048,2072,2060
2057,2070,2096,2045,2050,2044,2078,2063
2057,2071,2088,2049,2040,2046,2069,2058
2062,2070,2081,2038,2043,2050,2063,2057
2063,2064,2074,2038,2044,2043,2067,2053
2058,2058,2084,2050,2080,2050,2066,2047
2054,2063,2089,2070,2117,2061,2069,2047
2052,2058,2085,2071,2116,2062,2053,2052
2055,2056,2079,2074,2109,2065,2072,2046
2047,2052,2072,2068,2141,2076,2072,2039
2042,2041,2056,2053,2145,2068,2055,2047
2048,2043,2044,2043,2122,2054,2069,2041
2044,2043,2043,2033,2092,2052,2083,2042
2047,2040,2024,2026,2077,2052,2087,2040
2047,2038,2016,2015,2025,2042,2072,2034
2033,2019,2015,2002,1973,2032,2077,2031
2031,2017,2018,2001,1983,2041,2080,2045
2044,2040,2034,2016,2013,2044,2073,2038
2039,2048,2055,2031,2042,2042,2045,2043
2046,2054,2060,2044,2051,2053,2047,2040
2048,2054,2056,2043,2045,2054,2036,2041
2047,2046,2042,2040,2027,2047,2024,2044
2047,2044,2032,2029,2017,2039,2052,2053
2041,2039,2024,2018,2026,2032,2047,2052
2040,2037,2025,2032,2071,2039,2034,2056
2045,2042,2027,2042,2106,2053,2060,2051
2048,2046,2029,2037,2128,2057,2046,2049
2043,2054,2031,2033,2148,2055,2070,2053
2050,2061,2050,2036,2136,2065,2058,2047
2056,2066,2064,2042,2130,2057,2056,2052
2052,2065,2068,2029,2106,2037,2030,2052
2044,2042,2052,2024,2100,2026,2034,2045
2036,2041,2055,2032,2068,2019,2028,2055
2037,2055,2060,2025,1965,2006,2042,2054
2038,2054,2059,2024,1957,2012,2037,2054
2041,2057,2058,2034,1985,2026,2044,2058
2049,2052,2055,2033,2019,2033,2033,2059
2046,2050,2051,2042,2035,2039,2049,2057
2047,2049,2053,2046,2053,2047,2038,2059
2052,2054,2054,2054,2062,2051,2053,2053
2051,2054,2052,2048,2069,2054,2058,2050
2047,2051,2057,2055,2066,2064,2040,2043
2046,2053,2058,2049,2064,2062,2039,2040
2049,2044,2054,2054,2049,2058,2061,2038
2045,2047,2052,2044,2030,2057,2050,2029
2048,2052,2051,2041,2016,2046,2032,2028
2036,2046,2048,2031,2020,2047,2031,2030
2033,2033,2037,2029,2033,2043,2033,2025
2030,2030,2031,2026,2037,2049,2029,2033
2042,2049,2039,2042,2041,2050,2034,2034
2041,2047,2047,2041,2032,2047,2042,2038
2052,2054,2047,2046,2044,2053,2043,2042
2057,2057,2053,2044,2045,2049,2060,2046
2052,2056,2054,2046,2044,2041,2051,2045
2048,2058,2053,2050,2041,2043,2043,2041
2043,2055,2050,2049,2046,2039,2026,2044
2043,2057,2048,2045,2043,2043,2047,2036
2037,2051,2051,2044,2051,2048,2061,2035
2041,2050,2045,2044,2048,2050,2026,2043
2040,2048,2047,2049,2041,2043,2016,2049
2045,2046,2043,2045,2041,2041,2050,2043
2049,2044,2047,2048,2046,2054,2053,2053
2048,2056,2052,2054,2050,2057,2044,2059
2042,2042,2044,2046,2040,2053,2039,2044
2039,2033,2038,2044,2041,2063,2047,2052
2043,2049,2048,2047,2041,2064,2054,2052
2045,2049,2046,2049,2048,2046,2036,2055
2046,2046,2046,2046,2050,2046,2037,2056
2052,2055,2044,2046,2054,2052,2040,2053
2047,2046,2039,2044,2050,2057,2054,2055
2048,2055,2038,2050,2054,2056,2062,2051
2046,2051,2037,2048,2053,2058,2050,2051
2043,2051,2033,2045,2064,2052,2033,2046
2037,2049,2029,2043,2055,2043,2055,2040
2036,2042,2021,2036,2023,2025,2047,2040
2040,2037,2014,2029,2005,2012,2031,2035
2031,2035,2012,2023,2003,2014,2035,2029
2038,2034,2006,2011,2000,2025,2038,2025
2044,2038,2013,2026,2039,2041,2045,2026
2045,2036,2024,2037,2073,2042,2028,2024
2050,2043,2030,2043,2097,2041,2038,2033
2052,2048,2035,2047,2101,2050,2035,2023
2038,2042,2027,2048,2083,2053,2025,2014
2035,2032,2032,2041,2065,2041,2023,2018
2031,2030,2029,2039,2053,2046,2031,2026
2031,2035,2043,2045,2061,2048,2058,2038
2036,2046,2058,2054,2058,2058,2047,2045
2034,2040,2059,2053,2099,2061,2051,2046
2039,2035,2066,2056,2116,2067,2044,2045
2035,2040,2065,2052,2128,2064,2052,2043
2042,2042,2070,2058,2144,2061,2041,2049
2049,2048,2070,2056,2134,2058,2041,2048
2052,2054,2070,2054,2120,2063,2037,2056
2053,2054,2073,2049,2090,2064,2046,2055
2053,2056,2067,2037,2023,2057,2049,2055
2044,2045,2056,2021,1926,2034,2048,2054
2045,2040,2051,2029,1947,2038,2047,2060
2056,2057,2061,2039,1982,2039,2043,2062
2057,2057,2062,2036,1990,2036,2041,2064
2059,2054,2059,2042,2000,2027,2054,2076
2056,2056,2064,2041,2005,2035,2058,2071
2061,2053,2060,2043,2023,2035,2043,2067
2058,2053,2055,2049,2045,2037,2055,2066
2058,2050,2053,2053,2065,2045,2050,2060
2056,2056,2053,2060,2062,2053,2057,2048
2054,2047,2054,2062,2053,2050,2047,2054
2051,2050,2051,2062,2035,2049,2053,2050
2049,2052,2048,2052,2029,2048,2050,2044
2043,2051,2045,2047,2023,2046,2049,2045
2045,2043,2045,2043,2000,2042,2043,2041
2046,2043,2048,2046,1999,2042,2052,2032
2036,2037,2050,2035,1990,2033,2048,2038
2033,2038,2045,2039,1993,2029,2040,2038
2048,2050,2055,2042,1989,2029,2037,2045
2052,2053,2055,2044,1998,2025,2026,2042
2048,2053,2053,2051,2017,2027,2046,2047
2049,2054,2051,2055,2029,2027,2035,2044
2049,2052,2055,2059,2024,2031,2028,2049
2052,2051,2056,2062,2016,2038,2036,2053
2049,2049,2060,2057,2028,2053,2049,2049
2051,2049,2056,2061,2096,2068,2039,2052
2049,2038,2047,2060,2152,2069,2043,2048
2044,2038,2042,2049,2140,2059,2052,2056
2046,2040,2041,2049,2104,2050,2045,2060
2046,2040,2042,2051,2088,2046,2049,2061
2048,2040,2043,2056,2082,2056,2052,2060
2053,2048,2045,2054,2076,2064,2039,2060
2047,2042,2040,2054,2068,2071,2041,2056
2051,2036,2042,2047,2066,2068,2048,2063
2051,2047,2050,2055,2060,2088,2053,2070
2053,2053,2055,2048,2039,2088,2054,2066
2056,2055,2043,2048,2046,2086,2056,2068
2063,2055,2046,2048,2055,2070,2054,2064
2059,2057,2056,2049,2041,2018,2040,2063
2062,2052,2046,2041,2032,2008,2039,2058
2057,2049,2048,2041,2035,2024,2030,2064
2066,2051,2048,2040,2048,2039,2039,2065
2061,2050,2049,2037,2050,2049,2047,2056
2057,2048,2042,2039,2068,2053,2056,2051
2054,2047,2042,2038,2082,2055,2046,2047
2051,2039,2040,2045,2106,2070,2035,2043
2042,2040,2034,2056,2127,2073,2032,2036
2042,2034,2028,2056,2081,2053,2028,2030
2038,2022,2009,2036,2032,2036,2010,2028
2028,2015,2000,2039,2007,2044,2027,2032
2031,2023,2006,2055,2054,2054,2040,2038
2035,2021,1998,2052,2046,2058,2053,2034
2041,2032,2000,2058,2050,2052,2040,2036
2047,2036,2008,2054,2040,2044,2040,2039
2046,2033,2009,2054,2041,2041,2036,2040
2041,2031,2006,2044,2048,2031,2028,2044
2042,2027,2012,2034,2036,2016,2041,2040
2050,2032,2015,2032,2057,2010,2035,2040
2044,2028,2017,2041,2065,2019,2031,2052
2036,2025,2020,2046,2056,2024,2026,2052
2038,2029,2029,2041,2057,2029,2041,2054
2050,2037,2033,2047,2055,2029,2044,2062
2046,2042,2041,2046,2054,2036,2055,2063
2050,2040,2052,2052,2049,2035,2053,2067
2054,2047,2056,2050,2046,2035,2024,2057
2045,2036,2060,2048,2046,2036,2044,2063
2049,2050,2075,2063,2057,2051,2044,2065
2059,2061,2091,2061,2061,2052,2045,2067
2063,2069,2109,2070,2066,2048,2048,2062
2058,2069,2118,2086,2063,2052,2046,2059
2057,2063,2100,2085,2066,2049,2043,2061
2055,2061,2082,2084,2066,2049,2068,2060
2056,2052,2071,2077,2062,2051,2060,2058
2047,2051,2073,2066,2060,2046,2062,2054
2050,2042,2070,2058,2055,2043,2063,2051
2044,2042,2063,2053,2059,2038,2050,2051
2044,2043,2062,2047,2060,2041,2054,2045
2041,2040,2053,2034,2050,2038,2040,2033
2042,2036,2045,2029,2042,2037,2028,2035
2039,2034,2034,2028,2044,2039,2051,2032
2038,2035,2036,2027,2043,2031,2034,2030
2040,2024,2032,2030,2039,2034,2029,2034
2036,2025,2038,2025,2040,2036,2044,2037
2052,2032,2046,2024,2040,2044,2035,2045
2056,2035,2050,2018,2038,2036,2025,2048
2050,2036,2047,2011,2042,2042,2026,2052
2061,2049,2048,2010,2045,2045,2036,2057
2064,2048,2046,2017,2050,2046,2049,2058
2059,2056,2045,2025,2044,2050,2041,2065
2058,2053,2046,2026,2044,2047,2047,2067
2057,2052,2050,2033,2046,2050,2054,2072
2062,2052,2049,2036,2051,2050,2050,2069
2056,2056,2049,2035,2049,2046,2047,2070
2051,2048,2044,2036,2045,2048,2030,2071
2051,2046,2045,2041,2053,2051,2028,2067
2051,2044,2050,2036,2056,2054,2058,2064
2053,2044,2042,2036,2054,2045,2064,2062
2047,2038,2035,2033,2051,2043,2042,2054
2044,2043,2037,2042,2061,2059,2036,2071
2056,2052,2042,2041,2067,2064,2035,2065
2059,2053,2039,2048,2063,2059,2039,2056
2054,2049,2031,2040,2059,2048,2016,2051
2044,2042,2031,2038,2055,2044,2018,2051
2048,2043,2035,2041,2051,2044,2041,2053
2042,2038,2044,2045,2055,2047,2052,2055
2047,2042,2046,2047,2059,2055,2054,2054
2048,2038,2036,2044,2061,2061,2047,2054
2054,2040,2042,2046,2066,2055,2037,2049
2049,2043,2042,2046,2058,2055,2023,2060
2054,2041,2045,2048,2060,2053,2031,2053
2052,2050,2043,2044,2062,2054,2047,2042
2058,2045,2046,2045,2061,2050,2038,2042
2043,2043,2047,2044,2057,2042,2032,2029
2031,2028,2043,2043,2049,2042,2030,2030
2033,2027,2037,2048,2048,2043,2055,2030
2041,2031,2041,2052,2053,2038,2038,2039
2039,2031,2043,2048,2049,2039,2047,2036
2046,2034,2049,2053,2042,2038,2042,2042
2049,2039,2054,2049,2047,2036,2050,2042
2044,2047,2065,2054,2049,2039,2047,2049
2044,2048,2072,2056,2055,2043,2035,2052
2051,2045,2068,2056,2056,2040,2045,2050
2050,2049,2064,2057,2050,2045,2043,2050
2052,2047,2053,2059,2053,2049,2025,2057
2050,2046,2052,2054,2053,2052,2035,2056
2049,2052,2046,2058,2048,2044,2034,2058
2044,2049,2049,2049,2041,2044,2043,2055
2053,2042,2043,2050,2048,2043,2048,2060
2056,2049,2045,2050,2049,2036,2011,2052
2039,2038,2040,2045,2044,2039,2034,2043
2036,2036,2045,2049,2046,2046,2044,2054
2043,2056,2056,2052,2057,2047,2053,2061
2042,2056,2057,2059,2060,2045,2049,2062
2044,2053,2054,2060,2054,2040,2032,2058
2043,2055,2047,2057,2057,2024,2057,2058
2050,2059,2047,2056,2061,2020,2031,2050
2052,2056,2046,2056,2062,2035,2033,2053
2049,2058,2042,2057,2063,2042,2051,2048
2057,2061,2044,2051,2067,2045,2055,2053
2051,2062,2048,2054,2068,2052,2054,2049
2053,2054,2051,2054,2066,2058,2049,2044
2046,2057,2046,2053,2068,2063,2048,2044
2047,2055,2052,2052,2063,2061,2052,2036
2044,2056,2052,2058,2060,2058,2059,2028
2042,2056,2050,2045,2054,2056,2037,2023
2030,2036,2035,2038,2046,2051,2030,2025
2025,2032,2033,2042,2064,2051,2046,2028
2039,2045,2040,2051,2055,2048,2047,2027
2038,2045,2036,2049,2041,2041,2030,2036
2040,2045,2038,2048,2042,2033,2035,2038
2045,2043,2043,2048,2040,2028,2020,2038
2047,2049,2037,2050,2041,2015,2019,2041
2049,2048,2039,2050,2042,2022,2028,2051
2046,2043,2034,2048,2049,2032,2028,2055
2045,2040,2034,2046,2053,2045,2032,2052
2040,2038,2032,2043,2054,2040,2024,2057
2042,2034,2033,2044,2046,2042,2022,2050
2041,2031,2036,2042,2046,2037,2047,2053
2041,2039,2040,2040,2046,2035,2045,2054
2042,2040,2044,2048,2053,2033,2036,2063
2047,2050,2047,2048,2048,2029,2036,2056
2047,2043,2042,2038,2044,2024,2035,2066
2038,2040,2036,2042,2042,2023,2050,2060
2052,2052,2040,2045,2050,2025,2043,2060
2049,2054,2049,2051,2054,2029,2033,2062
2052,2065,2050,2054,2049,2035,2053,2064
2054,2057,2048,2052,2057,2044,2048,2067
2053,2058,2040,2052,2059,2040,2058,2065
2056,2060,2048,2058,2059,2043,2055,2054
2048,2052,2041,2057,2063,2039,2048,2055
2048,2045,2034,2059,2065,2040,2051,2051
2048,2047,2031,2061,2063,2037,2043,2046
2046,2046,2026,2060,2063,2047,2030,2036
2048,2046,2027,2061,2062,2056,2042,2038
2042,2040,2025,2054,2063,2059,2057,2034
2045,2043,2026,2051,2053,2055,2038,2034
2048,2046,2031,2054,2054,2046,2041,2028
2034,2045,2023,2046,2038,2035,2044,2027
2030,2033,2026,2045,2032,2036,2045,2022
2039,2051,2037,2044,2040,2038,2046,2021
2047,2056,2041,2046,2045,2039,2050,2027
2046,2054,2042,2047,2049,2033,2039,2028
2049,2053,2039,2043,2035,2021,2039,2032
2047,2050,2037,2044,2027,2021,2038,2037
2043,2054,2042,2041,2026,2025,2022,2039
2049,2054,2055,2041,2024,2025,2046,2045
2050,2053,2063,2038,2022,2025,2037,2041
2048,2056,2072,2045,2023,2035,2032,2043
2050,2057,2069,2050,2017,2039,2045,2050
2043,2054,2069,2050,2016,2050,2031,2053
2050,2056,2062,2042,2019,2060,2040,2046
2051,2054,2057,2047,2028,2068,2052,2053
2045,2058,2058,2047,2038,2061,2046,2050
2038,2039,2044,2047,2040,2044,2033,2040
2035,2036,2048,2045,2047,2044,2038,2048
2040,2050,2054,2048,2048,2035,2026,2046
2045,2051,2054,2049,2043,2034,2030,2045
2039,2050,2052,2052,2045,2041,2045,2042
2041,2053,2052,2054,2050,2055,2046,2046
2044,2054,2052,2052,2060,2052,2043,2047
2044,2053,2048,2056,2059,2047,2033,2045
2047,2056,2054,2053,2051,2043,2043,2033
2038,2059,2053,2054,2056,2047,2050,2039
2047,2058,2054,2049,2060,2048,2054,2032
2041,2050,2061,2054,2054,2047,2074,2035
2036,2054,2056,2052,2058,2046,2073,2034
2033,2054,2051,2053,2052,2045,2042,2037
2039,2056,2054,2049,2053,2049,2048,2026
2041,2053,2047,2049,2051,2047,2054,2019
2031,2045,2046,2053,2043,2034,2066,2009
2035,2035,2043,2049,2044,2034,2051,2014
2038,2049,2055,2049,2048,2031,2045,2027
2048,2052,2050,2052,2050,2031,2039,2029
2051,2054,2056,2056,2049,2032,2040,2025
2053,2059,2056,2055,2049,2036,2045,2035
2054,2052,2053,2054,2047,2034,2035,2032
2048,2053,2052,2051,2046,2035,2060,2032
2045,2050,2051,2050,2052,2037,2058,2037
2042,2048,2052,2052,2047,2037,2043,2037
2046,2050,2051,2053,2052,2040,2040,2043
2048,2052,2048,2052,2055,2035,2035,2041
2053,2057,2051,2049,2049,2031,2050,2040
2046,2051,2052,2047,2048,2042,2054,2036
2047,2045,2048,2055,2056,2044,2059,2045
2051,2056,2054,2055,2057,2056,2055,2053
2050,2041,2047,2056,2060,2061,2068,2047
2044,2041,2049,2055,2061,2075,2059,2055
2058,2053,2058,2068,2070,2087,2081,2054
2053,2060,2053,2067,2060,2061,2072,2057
2059,2059,2050,2067,2067,2016,2052,2056
2054,2064,2048,2068,2069,2016,2062,2049
2054,2059,2049,2063,2064,2029,2067,2049
2056,2055,2045,2065,2059,2045,2056,2045
2047,2049,2050,2060,2057,2040,2048,2031
2043,2047,2046,2053,2051,2031,2062,2026
2042,2048,2049,2048,2047,2024,2050,2026
2042,2048,2047,2056,2053,2036,2031,2023
2039,2050,2046,2054,2062,2037,2043,2020
2039,2053,2048,2055,2054,2041,2052,2026
2043,2061,2047,2051,2057,2043,2046,2021
2048,2060,2051,2050,2054,2033,2057,2006
2037,2045,2044,2036,2048,2022,2046,2000
2034,2037,2036,2031,2038,2020,2052,1997
2036,2051,2050,2035,2043,2051,2045,1994
2035,2049,2042,2031,2046,2077,2038,2002
2032,2056,2047,2026,2052,2107,2030,2007
2034,2051,2049,2036,2054,2103,2039,2016
2038,2056,2047,2041,2050,2101,2046,2019
2041,2053,2041,2034,2050,2089,2064,2035
2045,2050,2036,2037,2046,2086,2061,2039
2048,2054,2039,2036,2044,2084,2071,2044
2042,2053,2037,2036,2051,2088,2069,2050
2043,2055,2036,2042,2037,2090,2077,2038
2035,2052,2043,2042,2020,2067,2070,2036
2044,2056,2040,2039,2028,2051,2069,2037
2042,2048,2041,2034,2037,2041,2067,2039
2044,2053,2047,2042,2048,2029,2077,2039
2040,2043,2037,2038,2048,2014,2034,2036
2034,2035,2036,2038,2049,2004,2044,2030
2036,2041,2039,2040,2057,2022,2043,2028
2035,2042,2040,2042,2053,2018,2036,2026
2035,2038,2036,2036,2032,2002,2020,2024
2037,2042,2038,2042,2041,2021,2005,2018
2036,2045,2043,2041,2054,2023,2010,2012
2041,2045,2046,2043,2051,2011,2004,2020
2034,2052,2044,2042,2045,1998,2023,2020
2042,2049,2047,2043,2047,2000,2041,2019
2050,2054,2052,2040,2033,1994,2056,2024
2051,2061,2058,2039,2023,2003,2054,2027
2051,2056,2057,2040,2010,2017,2068,2020
2051,2058,2049,2037,2000,2021,2070,2015
2050,2058,2053,2038,1994,2018,2048,2003
2043,2055,2043,2033,1985,1999,2029,1995
2031,2044,2041,2020,1988,1991,2015,1988
2026,2042,2036,2024,1993,2008,2020,1987
2032,2047,2045,2027,2016,2030,2042,1992
2027,2045,2044,2030,2029,2038,2038,1996
2026,2054,2045,2036,2035,2044,2049,1997
2027,2051,2045,2042,2046,2051,2056,1999
2034,2052,2053,2048,2059,2051,2038,2001
2037,2056,2052,2052,2059,2054,2028,2006
2037,2056,2051,2047,2048,2052,2027,2005
2031,2045,2041,2035,2036,2059,2025,2002
2027,2046,2041,2035,2027,2060,2038,2007
2033,2045,2041,2030,1985,2041,2051,2018
2036,2046,2040,2017,1957,2028,2044,2016
2031,2046,2043,2018,1951,2031,2036,2020
2036,2042,2046,2025,1978,2008,2059,2023
2035,2050,2047,2038,2008,2007,2060,2023
2029,2034,2042,2039,2034,2008,2065,2011
2025,2035,2044,2040,2042,2015,2068,2008
2029,2044,2053,2046,2053,2017,2046,2006
2035,2048,2054,2049,2059,2023,2042,2012
2029,2047,2053,2051,2049,2018,2052,2009
2034,2044,2049,2038,2035,2012,2032,2005
2037,2043,2050,2026,2042,2021,2029,2007
2038,2050,2051,2041,2131,2047,2044,2015
2040,2054,2065,2055,2179,2039,2046,2002
2040,2053,2065,2058,2171,2052,2037,1998
2037,2050,2056,2048,2145,2068,2026,1991
2034,2042,2046,2036,2092,2064,2037,1987
2029,2041,2050,2042,2071,2052,2043,1991
2034,2048,2058,2060,2092,2025,2051,2000
2045,2056,2062,2072,2112,2029,2055,1998
2048,2061,2060,2073,2092,2032,2064,1990
2033,2043,2040,2038,1941,2006,2038,1983
2022,2035,2037,2006,1851,2008,2039,1983
2032,2045,2040,2013,1908,2035,2054,1977
2032,2043,2039,2014,1996,2041,2036,1974
2033,2046,2040,2004,2024,2025,2040,1978
2034,2045,2043,2019,2049,2035,2045,1984
2042,2045,2047,2026,2040,2044,2042,1986
2035,2048,2041,2022,2025,2044,2045,1983
2035,2050,2039,2019,2009,2052,2052,1991
2040,2059,2041,2024,2009,2052,2043,2001
2046,2058,2046,2030,2044,2060,2055,2011
2050,2063,2044,2036,2072,2061,2063,2009
2048,2056,2041,2039,2077,2064,2065,2001
2039,2052,2040,2037,2070,2076,2047,1997
2033,2046,2037,2039,2060,2087,2056,1995
2029,2044,2038,2035,2028,2077,2016,1992
2018,2027,2028,2025,2002,2067,2023,1990
2020,2028,2030,2028,1998,2057,2029,2002
2033,2037,2036,2025,2007,2036,2070,2008
2030,2040,2040,2021,2001,2028,2062,2014
2037,2033,2033,2026,2014,2034,2065,2013
2026,2035,2032,2030,2058,2046,2064,2011
2031,2039,2033,2030,2060,2044,2080,2003
2030,2040,2027,2034,2048,2053,2089,1999
2025,2041,2034,2038,2044,2054,2085,2000
2024,2036,2024,2031,2036,2049,2073,1997
2014,2034,2034,2037,2051,2045,2064,1998
2027,2039,2040,2036,2063,2040,2061,1992
2026,2047,2043,2034,2050,2029,2046,1997
2034,2050,2038,2036,2042,2042,2039,1998
2037,2053,2036,2040,2030,2054,2050,1997
2037,2056,2045,2039,2024,2049,2060,1987
2030,2040,2034,2038,2033,2044,2046,1982
2030,2041,2042,2045,2045,2042,2057,1980
2031,2054,2048,2047,2052,2034,2049,1976
2038,2052,2056,2053,2049,2029,2052,1977
2034,2053,2057,2058,2049,2032,2040,1985
2045,2050,2057,2061,2047,2034,2057,1986
2041,2056,2057,2055,2040,2041,2053,1999
2049,2063,2053,2058,2038,2035,2060,2000
2053,2054,2048,2052,2033,2030,2065,2002
2049,2053,2042,2049,2037,2029,2052,2000
2044,2050,2037,2045,2038,2029,2055,2001
2040,2052,2037,2046,2033,2038,2047,2001
2044,2048,2033,2044,2035,2038,2045,1999
2041,2046,2037,2041,2037,2039,2060,2006
2034,2047,2020,2035,2034,2045,2062,2006
2025,2044,2011,2025,2025,2034,2053,2002
2018,2032,2001,2018,2022,2042,2048,2003
2026,2035,2010,2020,2031,2057,2060,2014
2029,2042,2012,2017,2027,2063,2069,2011
2032,2035,2008,2007,2044,2076,2072,2009
2028,2033,2006,2011,2084,2100,2054,2010
2024,2038,2017,2016,2081,2113,2044,2009
2026,2052,2031,2016,2064,2117,2059,2008
2031,2051,2033,2015,2053,2086,2069,2002
2029,2052,2026,2019,2047,2036,2058,2000
2025,2045,2033,2017,2042,2029,2055,1992
2028,2050,2041,2022,2040,2033,2051,1987
2018,2048,2045,2023,2036,2046,2050,1978
2013,2034,2039,2018,2017,2039,2041,1973
2016,2035,2038,2021,2010,2030,2048,1975
2012,2036,2045,2026,2016,2029,2062,1977
2028,2038,2048,2023,2024,2020,2052,1977
2020,2026,2048,2026,2046,2019,2040,1978
2028,2033,2064,2044,2083,2041,2041,1984
2029,2040,2064,2041,2080,2035,2047,1996
2041,2057,2071,2040,2057,2031,2055,2000
2044,2062,2075,2034,2041,2031,2079,1999
2040,2067,2073,2034,2048,2047,2071,2002
2042,2068,2068,2039,2049,2060,2072,2009
2045,2068,2065,2039,2059,2067,2073,2006
2045,2058,2061,2037,2061,2057,2048,2007
2040,2058,2060,2036,2062,2042,2073,2009
2032,2051,2054,2047,2060,2035,2080,2014
2037,2055,2053,2049,2062,2027,2053,2021
2043,2067,2053,2040,2051,2022,2041,2017
2041,2064,2050,2033,2015,2012,2043,2009
2043,2063,2040,2028,2004,2004,2033,2011
2043,2050,2032,2015,2005,1986,2031,2000
2031,2042,2029,2015,1989,1965,2031,2008
2037,2052,2029,2014,1976,1957,2041,2013
2038,2058,2029,2012,1962,1980,2051,2006
2036,2054,2026,2008,1951,2000,2055,1989
2024,2034,2019,2003,1952,2045,2052,1981
2015,2027,2017,2014,1984,2065,2057,1990
2028,2033,2034,2028,2024,2085,2071,2006
2031,2038,2035,2043,2059,2095,2079,2008
2035,2039,2032,2050,2098,2116,2078,2012
2042,2048,2031,2052,2100,2100,2082,2007
2048,2044,2027,2039,2063,2078,2080,2006
2041,2050,2034,2032,2006,2070,2073,2001
2043,2047,2034,2034,2021,2072,2073,1993
2038,2048,2023,2037,2040,2088,2079,1998
2041,2047,2024,2044,2031,2094,2091,1992
2027,2035,2022,2052,2031,2087,2034,1980
2022,2022,2026,2058,2006,2069,2058,1986
2021,2031,2036,2064,2019,2047,2067,1991
2023,2040,2043,2064,2033,2018,2047,1991
2022,2043,2051,2036,2010,1956,2043,1985
2028,2043,2053,2025,2016,1949,2054,1986
2026,2042,2072,2058,2150,2005,2043,1992
2027,2050,2071,2071,2193,1989,2058,1992
2028,2049,2063,2045,2093,1942,2032,1991
2029,2048,2056,2027,1991,1900,2029,1987
2025,2049,2052,2027,1973,1909,2031,1988
2026,2049,2066,2036,1991,1949,2038,2001
2025,2050,2068,2022,2052,2005,2049,1995
2024,2053,2078,2021,2116,2054,2049,2017
2034,2069,2095,2039,2151,2088,2061,2025
2043,2079,2110,2044,2165,2093,2075,2029
2042,2068,2100,2037,2168,2096,2068,2026
2044,2061,2085,2031,2166,2089,2071,2023
2037,2065,2079,2027,2124,2077,2071,2022
2044,2060,2071,2031,2078,2078,2077,2022
2037,2063,2076,2039,2010,2061,2067,2008
2041,2064,2074,2028,1899,2031,2085,2008
2038,2059,2067,2024,1898,2002,2055,2009
2033,2063,2066,2036,1990,1997,2052,2004
2033,2060,2066,2046,2061,2021,2063,1998
2022,2060,2064,2037,2078,2043,2061,2000
2022,2060,2064,2037,2047,2071,2064,1999
2027,2058,2064,2036,2103,2101,2082,2001
2035,2060,2069,2049,2163,2104,2084,2003
2040,2071,2068,2059,2178,2067,2081,2023
2039,2066,2067,2059,2161,2036,2084,2025
2040,2062,2070,2056,2139,2017,2071,2009
2028,2046,2049,2022,2011,1992,2062,2000
2024,2038,2040,2013,1947,1983,2051,1988
2031,2050,2049,2022,1987,2002,2072,1987
2030,2051,2052,2025,2001,2029,2059,1991
2031,2055,2050,2023,1958,2046,2050,1992
2034,2050,2047,2016,1910,2049,2054,1996
2032,2053,2052,2008,1905,2051,2074,2005
2027,2055,2049,1996,1902,2056,2061,2006
2026,2050,2048,2008,1939,2063,2076,2022
2035,2044,2050,2022,1966,2095,2087,2029
2031,2046,2043,2023,1965,2099,2070,2023
2028,2043,2042,2024,1961,2069,2059,2009
2022,2041,2025,2022,1962,1994,2049,2009
2017,2045,2024,2027,1948,1984,2048,2014
2022,2048,2024,2028,1947,2024,2032,2013
2019,2037,2026,2028,1949,2037,2029,1998
2010,2025,2009,2021,1947,2056,2037,1998
2004,2020,2010,2020,1953,2059,2043,2008
2015,2036,2027,2022,1971,2030,2035,2006
2007,2035,2032,2035,2032,2034,2043,2014
2014,2036,2038,2045,2084,2049,2054,2012
2017,2039,2041,2032,2071,2026,2054,2007
2019,2034,2042,2042,2090,2033,2066,2009
2023,2030,2046,2049,2113,2042,2073,2006
2018,2034,2051,2044,2113,2054,2067,2012
2022,2028,2060,2044,2083,2072,2064,2008
2017,2029,2055,2032,2040,2075,2056,2003
2018,2024,2056,2021,2026,2080,2065,1997
2020,2029,2053,2016,2017,2076,2071,1996
2018,2029,2047,2014,2014,2048,2062,2000
2018,2029,2054,2017,2018,2029,2061,2007
2024,2031,2054,2024,2035,2015,2060,2004
2015,2017,2044,2025,2022,2006,2045,2000
2014,2019,2037,2023,2022,2016,2044,2010
2022,2033,2040,2024,2032,2029,2035,2006
2021,2027,2035,2025,2032,2034,2023,2009
2023,2025,2037,2030,2034,2042,2026,2010
2023,2029,2041,2035,2070,2068,2037,2010
2028,2030,2044,2038,2084,2104,2080,2021
2026,2034,2041,2043,2058,2097,2075,2028
2030,2032,2039,2032,2036,2088,2065,2024
2034,2035,2038,2027,2028,2077,2060,2026
2037,2039,2040,2027,2007,2057,2038,2023
2036,2047,2045,2025,2033,2007,2024,2022
2036,2049,2045,2036,2074,1972,2028,2026
2041,2057,2057,2054,2104,1994,2031,2040
2052,2064,2062,2065,2117,2017,2058,2046
2057,2066,2062,2065,2104,2028,2030,2035
2044,2051,2048,2051,2085,2034,2032,2035
2040,2045,2043,2047,2070,2049,2032,2041
2041,2054,2046,2044,2053,2049,2036,2043
2036,2052,2045,2042,2061,2062,2036,2037
2032,2054,2045,2034,2030,2068,2044,2028
2026,2044,2040,2006,1949,2074,2055,2020
2021,2048,2040,1997,1970,2076,2062,2021
2022,2047,2047,2002,2020,2065,2056,2029
2022,2045,2048,2009,1997,2034,2055,2030
2022,2052,2056,2020,1990,2000,2047,2031
2028,2054,2056,2037,2044,2008,2048,2026
2034,2052,2051,2053,2104,2033,2057,2026
2026,2049,2054,2056,2090,2042,2029,2022
2025,2047,2048,2055,2068,2059,2042,2013
2018,2039,2042,2048,2085,2065,2029,2012
2014,2035,2037,2044,2067,2048,2025,2004
1998,2020,2029,2034,2043,2050,2032,2000
1997,2020,2037,2048,2034,2068,2041,2006
2011,2045,2046,2047,2037,2064,2050,2009
2010,2040,2032,2054,2079,2062,2049,2001
2015,2035,2032,2074,2163,2090,2053,2011
2019,2038,2030,2080,2169,2081,2047,2021
2020,2045,2032,2065,2106,2086,2063,2027
2023,2045,2027,2064,2096,2102,2067,2030
2027,2034,2025,2057,2100,2101,2047,2027
2023,2034,2018,2052,2099,2102,2063,2033
2019,2025,2013,2043,2112,2075,2053,2035
2012,2020,2010,2028,2051,2006,2052,2037
2010,2019,2003,1992,1872,1924,2036,2035
2013,2022,2006,1979,1788,1921,2041,2047
2021,2030,2015,1995,1911,1974,2060,2055
2032,2037,2023,2018,2013,2033,2066,2057
2021,2029,2018,2043,2103,2055,2080,2059
2034,2030,2037,2068,2202,2058,2061,2067
2044,2051,2065,2086,2243,2060,2068,2071
2053,2054,2077,2088,2289,2075,2079,2061
2049,2050,2078,2058,2232,2051,2076,2057
2048,2064,2072,2024,2112,2031,2065,2062
2049,2064,2057,1996,2040,2013,2066,2066
2048,2058,2052,1992,2058,2026,2071,2060
2042,2061,2047,1990,2028,2075,2066,2055
2048,2056,2049,1999,2029,2146,2066,2058
2050,2062,2047,2017,1994,2177,2066,2046
2034,2048,2038,2016,1905,2165,2056,2044
2028,2039,2031,2017,1903,2076,2048,2042
2031,2044,2032,2022,1958,2012,2055,2046
2038,2041,2036,2041,2054,2063,2072,2042
2030,2039,2029,2029,2084,2106,2074,2046
2024,2030,2025,2039,2093,2120,2066,2040
2027,2031,2037,2038,2086,2100,2058,2028
2022,2036,2038,2027,2054,2045,2015,2016
2009,2044,2044,2020,2020,2015,2007,2008
2014,2045,2060,2034,2043,2042,2029,2027
2025,2056,2067,2039,2052,2067,2056,2044
2030,2052,2067,2039,2062,2066,2065,2045
2028,2047,2063,2044,2105,2070,2061,2048
2028,2047,2067,2039,2129,2066,2064,2055
2030,2042,2057,2016,2007,2022,2037,2047
2022,2029,2048,2014,1941,2002,2022,2052
2021,2017,2030,2011,1954,2008,2008,2061
2017,2020,2034,2018,1959,2029,2035,2071
2033,2039,2042,2021,1932,2033,2045,2083
2038,2046,2048,2012,1907,2016,2034,2070
2044,2039,2042,2002,1926,1999,2039,2077
2036,2054,2054,2025,1999,2024,2051,2093
2032,2060,2060,2038,2046,2035,2065,2085
2033,2060,2057,2035,2085,2032,2075,2078
2035,2059,2055,2057,2184,2048,2074,2093
2043,2064,2055,2056,2148,2038,2050,2096
2047,2059,2054,2040,2068,2027,2041,2088
2036,2050,2045,2034,2134,2029,2047,2072
2026,2039,2030,2031,2123,2030,2045,2057
2001,2021,2016,2017,2044,2029,2030,2039
1997,2030,2028,2045,2105,2054,2044,2047
2006,2041,2047,2082,2188,2075,2061,2047
2018,2045,2054,2084,2178,2087,2066,2050
2020,2047,2062,2082,2147,2099,2051,2052
2016,2035,2061,2070,2053,2073,2058,2044
2003,2034,2044,2057,2031,2043,2043,2037
1998,2018,2032,2052,2075,2045,2038,2044
2011,2015,2043,2062,2078,2059,2055,2049
2030,2037,2065,2080,2083,2058,2058,2053
2051,2047,2067,2092,2092,2076,2063,2050
2029,2034,2072,2086,2093,2071,2034,2035
2002,2030,2059,2076,2075,2070,2049,2045
1997,2028,2055,2069,2076,2075,2059,2058
2001,2030,2047,2051,2039,2045,2047,2074
2007,2037,2044,2024,1979,2006,2041,2075
2020,2043,2035,2022,1903,1981,2024,2085
2021,2033,2028,2026,1936,1988,2044,2081
2022,2031,2034,2025,1983,1988,2035,2100
2029,2042,2044,2025,2033,1991,2044,2088
2036,2049,2052,2038,2123,2037,2061,2091
2032,2047,2045,2046,2170,2049,2064,2087
2028,2035,2026,2039,2211,2072,2066,2086
2026,2022,2017,2034,2212,2090,2069,2088
2031,2015,2021,2019,2177,2097,2095,2097
2034,2008,2014,2006,2119,2092,2094,2106
2033,2004,2006,2002,2096,2089,2089,2096
2030,2007,2009,1998,2083,2074,2057,2086
2020,2014,2011,2014,2038,2034,2043,2068
2011,2018,2026,2022,2031,2031,2046,2059
2005,2033,2043,2053,2047,2054,2076,2081
2020,2033,2041,2046,2004,2046,2070,2103
2038,2027,2029,2027,2014,2048,2065,2100
2024,2028,2030,2051,2162,2076,2074,2107
2029,2027,2037,2082,2288,2102,2084,2106
2038,2031,2041,2084,2261,2108,2096,2094
2031,2029,2040,2087,2228,2120,2081,2090
2029,2019,2052,2096,2211,2112,2093,2088
2035,2027,2056,2078,2143,2114,2076,2095
2052,2026,2047,2029,1948,2111,2078,2108
2072,2018,2032,2013,1960,2136,2081,2122
2102,2027,2032,1993,1868,2131,2079,2109
2080,2034,2023,1977,1798,2109,2044,2060
2044,2028,2022,1980,1894,2101,2018,2027
2036,2036,2041,2022,2027,2117,2055,2044
2062,2061,2082,2052,2080,2121,2085,2086
2060,2045,2089,2054,2057,2082,2090,2083
2023,2039,2085,2039,2042,2041,2053,2079
1987,2028,2085,2049,2036,1995,2046,2096
2001,2041,2076,2074,2108,1981,2068,2110
2004,2041,2065,2088,2120,2000,2071,2119
2026,2045,2051,2072,2077,2005,2097,2126
2045,2051,2053,2062,2071,2013,2088,2126
2042,2045,2054,2041,2059,2016,2069,2109
2034,2044,2050,2028,2055,2037,2029,2096
2028,2047,2045,2011,2002,2046,2026,2088
2035,2042,2049,1994,1957,2054,2040,2091
2036,2020,2034,2000,1959,2078,2069,2105
2046,2022,2043,2020,1985,2070,2056,2106
2035,2025,2045,2025,1948,2024,2036,2110
2022,2033,2049,2028,1903,2022,2052,2086
2015,2056,2075,2055,1961,2073,2082,2101
2035,2090,2080,2060,2018,2120,2092,2122
2036,2074,2075,2058,2044,2140,2112,2125
2047,2066,2065,2043,2065,2139,2097,2128
2067,2059,2071,2055,2078,2102,2091,2128
2078,2056,2076,2065,2080,2077,2101,2111
2047,2031,2056,2060,2092,2069,2079,2091
2001,2001,2034,2056,2105,2065,2070,2101
2011,2008,2034,2065,2148,2072,2064,2126
2030,2021,2039,2056,2077,2043,2063,2121
2029,2028,2043,2060,2076,2033,2049,2077
1988,2018,2049,2066,2118,2042,2031,2053
1987,2029,2068,2056,2204,2054,2053,2071
2009,2059,2074,2072,2312,2084,2076,2091
2035,2064,2060,2083,2309,2110,2083,2111
2044,2061,2058,2073,2162,2092,2059,2123
2036,2049,2059,2047,1999,2062,2084,2118
2029,2045,2051,2031,1955,2024,2057,2119
2031,2024,2036,2024,1944,1992,2048,2106
2022,2005,2017,1998,1912,1967,2037,2097
2022,2005,2020,1994,1916,1980,2037,2103
2036,2025,2028,2002,2008,2011,2040,2107
2043,2038,2030,2016,2051,2048,2057,2102
2060,2056,2053,2028,2039,2080,2074,2125
2069,2068,2063,2039,2048,2079,2066,2118
2059,2063,2063,2056,2122,2111,2039,2092
2025,2052,2067,2075,2139,2134,2052,2088
2001,2043,2052,2066,2118,2149,2057,2106
2009,2038,2061,2070,2103,2186,2041,2126
2019,2070,2080,2079,2074,2188,2056,2120
2024,2065,2076,2085,2104,2131,2050,2123
2046,2063,2079,2108,2201,2019,2066,2140
2064,2064,2075,2123,2212,1994,2082,2160
2082,2055,2068,2128,2155,2045,2085,2169
2086,2035,2038,2078,2120,2048,2071,2140
2071,2015,2007,2030,2127,2041,2038,2110
2045,2004,1992,1998,2101,2043,2042,2104
2072,2038,2039,2029,2146,2070,2055,2097
2070,2054,2063,2058,2177,2063,2040,2093
2088,2053,2081,2082,2205,2066,2036,2088
2052,2055,2095,2091,2113,2087,2044,2091
2030,2050,2100,2068,1939,2085,2046,2101
2014,2030,2088,2066,1928,2069,2050,2089
1995,2025,2074,2056,1873,2036,2039,2072
1984,2007,2050,2029,1821,2027,2037,2089
1998,2011,2043,2035,1897,2052,2049,2110
2020,2029,2051,2054,1955,2064,2036,2106
2020,2041,2062,2085,2033,2072,2037,2099
2039,2065,2070,2099,2061,2067,2022,2080
2045,2045,2053,2083,2067,2033,2010,2066
2037,2024,2041,2066,2070,2020,2020,2062
2044,2043,2051,2085,2103,2029,2040,2102
2060,2049,2040,2076,2090,2004,2034,2113
2041,2036,2037,2069,2040,2008,2032,2124
2049,2030,2026,2040,1990,2017,2034,2145
2047,2017,2001,2009,1969,2018,2026,2142
2015,1987,1983,1984,1955,2023,2014,2090
2000,2000,2006,1998,1980,2040,2017,2064
1991,2031,2034,2029,2033,2034,2016,2074
1982,2036,2044,2049,2100,2045,2033,2106
1992,2022,2045,2062,2142,2093,2047,2135
2020,2029,2041,2055,2143,2115,2065,2140
2002,2045,2053,2051,2102,2117,2080,2143
2003,2052,2058,2043,2069,2105,2072,2149
2031,2069,2057,2039,2083,2088,2047,2154
2036,2057,2043,2033,2096,2085,2034,2147
2041,2061,2056,2043,2113,2113,2045,2136
2052,2068,2069,2066,2135,2131,2045,2136
2049,2055,2058,2058,2112,2113,2051,2130
2029,2039,2049,2040,2079,2096,2039,2123
2026,2041,2056,2047,2043,2077,2054,2132
2043,2060,2072,2064,2051,2018,2068,2146
2051,2068,2069,2071,2071,1985,2057,2143
2053,2066,2058,2064,2091,2020,2064,2121
2037,2055,2046,2055,2088,2023,2047,2110
2029,2049,2052,2058,2081,2028,2050,2084
2007,2040,2056,2063,2123,2045,2045,2068
1993,2036,2045,2069,2152,2047,2056,2088
2011,2029,2037,2063,2115,2041,2066,2105
2020,2012,2019,2051,2152,2051,2048,2115
2029,2000,2010,2057,2206,2061,2076,2112
2026,1998,2016,2068,2213,2092,2081,2103
2036,2010,2026,2085,2211,2122,2091,2120
2048,2023,2032,2094,2195,2093,2062,2123
2043,2017,2028,2093,2133,2054,2031,2087
2011,2010,2019,2090,2090,2032,2018,2074
1997,2006,2021,2091,2098,2061,2007,2072
1976,2008,2030,2085,2066,2098,2033,2086
1974,2006,2026,2060,1914,2120,2058,2101
1991,2019,2025,2077,1994,2125,2064,2110
2014,2047,2041,2102,2072,2117,2053,2119
2035,2054,2049,2098,2102,2101,2059,2116
2037,2037,2032,2085,2090,2086,2039,2101
2017,2018,2019,2068,2069,2082,2033,2098
1985,2014,2024,2075,2059,2093,2035,2117
1990,2015,2017,2060,2060,2087,2055,2116
1997,2012,2012,2039,2030,2058,2044,2121
1980,2004,1988,1999,1993,2035,2045,2113
1972,1993,1992,1993,1996,2037,2027,2114
1979,1999,2005,1998,1982,2040,2035,2117
1996,2022,2030,2007,1951,2061,2055,2102
2014,2052,2069,2020,1964,2085,2068,2102
2031,2075,2087,2029,1960,2097,2064,2122
2054,2082,2096,2049,1976,2104,2060,2138
2056,2055,2082,2069,2029,2104,2062,2140
2051,2031,2076,2086,2085,2114,2051,2134
2057,2039,2081,2121,2149,2141,2063,2127
2058,2037,2088,2137,2149,2129,2055,2123
2044,2038,2082,2118,2125,2074,2044,2111
2028,2033,2078,2102,2110,2051,2047,2110
2023,2040,2075,2095,2094,2041,2044,2105
2008,2046,2063,2091,2126,2061,2041,2098
1994,2030,2041,2097,2193,2099,2042,2111
2001,2038,2035,2094,2183,2101,2034,2114
2012,2043,2024,2064,2059,2058,2005,2111
2012,2041,2018,2053,2010,2058,2021,2114
2035,2037,2029,2058,2022,2090,2062,2120
2043,2033,2040,2049,2047,2117,2068,2136
2036,2039,2036,2029,2037,2127,2063,2121
1998,2036,2023,2003,2026,2107,2033,2086
1972,2040,2017,1986,2013,2089,2024,2103
2004,2033,2017,1974,2016,2059,2041,2148
2052,2043,2027,1984,2049,2011,2057,2173
2073,2050,2034,2008,2098,2021,2046,2156
2064,2051,2038,2021,2103,2014,2023,2121
2023,2021,2052,2034,2080,2006,2003,2114
2020,2034,2072,2046,2083,2046,2011,2111
2013,2041,2080,2045,2068,2066,2033,2125
2006,2053,2090,2063,2050,2071,2049,2157
2020,2047,2090,2058,2013,2066,2040,2165
2033,2053,2090,2058,1996,2049,2021,2125
2010,2032,2075,2034,1987,2045,2006,2094
2003,2022,2065,2053,1998,2066,2034,2116
2026,2033,2079,2081,2006,2093,2055,2132
2049,2056,2082,2077,2075,2114,2051,2141
2060,2059,2076,2061,2038,2096,2042,2155
2054,2049,2073,2044,1993,2083,2034,2143
2016,2030,2075,2055,2025,2069,2023,2110
1974,2035,2088,2072,2078,2065,2002,2071
1965,2048,2113,2114,2145,2090,2032,2077
1980,2064,2117,2148,2182,2099,2025,2087
1986,2061,2099,2142,2153,2092,2037,2116
2018,2043,2071,2120,2114,2086,2046,2133
2034,2027,2054,2116,2079,2080,2040,2151
2056,2042,2059,2119,2080,2082,2034,2145
2057,2039,2054,2117,2093,2072,2037,2117
2046,2044,2044,2117,2109,2080,2021,2088
1992,2023,2031,2108,2114,2068,2015,2088
1985,2007,2018,2094,2094,2067,2011,2116
2004,2008,2034,2090,2090,2071,2022,2134
2001,2025,2060,2085,2084,2066,2020,2125
1984,2037,2063,2076,2069,2068,2016,2119
1981,2037,2068,2057,2048,2071,2015,2120
1982,2051,2064,2047,2040,2082,2029,2129
1992,2055,2059,2036,2052,2097,2042,2136
1998,2068,2067,2042,2057,2098,2045,2148
2007,2067,2076,2043,2081,2094,2036,2142
2008,2067,2071,2059,2115,2100,2030,2138
2007,2072,2078,2067,2136,2121,2039,2149
2028,2081,2093,2082,2161,2125,2033,2148
2031,2079,2093,2086,2180,2119,2040,2146
2037,2081,2092,2081,2147,2106,2028,2150
2041,2077,2090,2089,2172,2086,2045,2154
2044,2081,2085,2106,2204,2067,2046,2157
2044,2052,2067,2107,2215,2058,2060,2129
2021,2026,2051,2094,2165,2028,2035,2120
1994,2019,2037,2072,2094,2027,2031,2132
1985,2024,2028,2039,1982,2033,2020,2133
1986,2021,2016,2036,2003,2039,2015,2123
1987,2034,2017,2021,2013,2029,2036,2121
1998,2031,1998,1994,1972,2029,2032,2133
2013,2035,1994,2012,2038,2062,2036,2126
2009,2022,1992,2027,2074,2077,2039,2130
2014,2017,1995,2039,2097,2103,2050,2145
2010,2025,1991,2047,2109,2125,2058,2148
1994,2021,1994,2045,2088,2129,2045,2144
1998,2033,1985,2031,2080,2119,2057,2150
2024,2051,2001,2034,2075,2109,2041,2146
2030,2041,1989,2016,2078,2111,2027,2141
2025,2035,1987,2017,2098,2105,2026,2137
2024,2037,2011,2033,2108,2111,2023,2161
2056,2055,2051,2059,2091,2114,2034,2171
2060,2058,2077,2069,2051,2107,2034,2142
2029,2058,2080,2062,2034,2091,2010,2128
2005,2047,2091,2057,1972,2075,1996,2135
2006,2052,2091,2039,1928,2060,1997,2141
1996,2054,2103,2047,1974,2064,2011,2140
1980,2059,2112,2073,2069,2064,2004,2146
1986,2054,2116,2089,2100,2052,2000,2155
2009,2065,2117,2086,2096,2057,2008,2172
2033,2080,2124,2102,2117,2069,2028,2164
2025,2085,2127,2111,2124,2084,2019,2155
2016,2064,2108,2098,2105,2090,2015,2154
2005,2044,2084,2083,2073,2086,2013,2150
2003,2040,2087,2072,2060,2085,2001,2146
2005,2047,2093,2082,2062,2078,1994,2154
2010,2052,2096,2095,2096,2056,2019,2168
2013,2058,2103,2109,2147,2058,2030,2172
2013,2052,2088,2105,2149,2070,2037,2176
2007,2045,2069,2101,2135,2076,2035,2181
2015,2046,2045,2090,2122,2077,2023,2182
2015,2039,2037,2084,2111,2085,2043,2159
1994,2018,2027,2078,2110,2082,2015,2129
1977,2025,2028,2076,2109,2093,2022,2135
1996,2042,2047,2089,2112,2103,2015,2143
2021,2063,2060,2099,2120,2109,2024,2148
2027,2064,2073,2099,2120,2113,2028,2153
2016,2069,2077,2093,2106,2108,2035,2153
2000,2053,2053,2070,2103,2103,2017,2146
1990,2036,2036,2064,2100,2115,2024,2143
1997,2050,2044,2066,2099,2127,2038,2148
2001,2057,2042,2074,2101,2134,2026,2150
2006,2050,2051,2081,2100,2105,2019,2145
2003,2048,2055,2084,2091,2041,2028,2147
2003,2046,2058,2080,2088,2034,2010,2151
2004,2036,2058,2076,2079,2035,2008,2155
2007,2041,2049,2073,2072,2053,2010,2158
2008,2049,2053,2080,2080,2060,2012,2170
2010,2058,2061,2086,2076,2064,2029,2170
2010,2066,2051,2084,2075,2063,2019,2167
2004,2060,2047,2073,2068,2067,2015,2172
2007,2050,2041,2074,2069,2069,2032,2182
2007,2048,2051,2077,2069,2079,2029,2187
2006,2053,2066,2092,2082,2080,2029,2188
2017,2062,2100,2104,2091,2088,2028,2192
2017,2057,2105,2104,2080,2070,2023,2191
2018,2060,2092,2103,2083,2070,2037,2186
2028,2061,2080,2095,2081,2081,2030,2187
2013,2050,2057,2092,2084,2085,2034,2176
2009,2037,2031,2086,2080,2084,2025,2162
2004,2028,2006,2079,2079,2087,2023,2166
2008,2019,1987,2085,2090,2081,2019,2167
2013,2015,1993,2103,2098,2086,2027,2172
2014,2024,2006,2126,2105,2092,2027,2172
2018,2038,2007,2129,2106,2092,2013,2176
2024,2034,2001,2126,2106,2088,2009,2175
2027,2027,1979,2107,2100,2094,2034,2165
2024,2023,1950,2087,2104,2095,2016,2159
2021,2020,1922,2072,2101,2094,2017,2167
2018,2008,1902,2065,2095,2094,2028,2163
2021,2014,1905,2058,2088,2088,2017,2169
2023,2018,1918,2054,2080,2076,2010,2154
2011,2018,1919,2052,2082,2077,2027,2163
2012,2028,1923,2051,2086,2087,2046,2167
2023,2046,1944,2058,2081,2076,2040,2173
2022,2041,1949,2043,2067,2049,2021,2173
2015,2028,1955,2018,2040,2016,2021,2163
2007,2039,1986,2018,2038,1996,2020,2168
2016,2074,2056,2047,2039,2003,2016,2168
2017,2090,2088,2053,2039,2009,2009,2180
2010,2092,2101,2059,2040,2026,2010,2188
2016,2109,2128,2083,2054,2050,2010,2199
2028,2118,2138,2100,2068,2076,2026,2200
2026,2101,2141,2096,2068,2082,2027,2201
2027,2089,2142,2097,2069,2081,2020,2202
2030,2087,2146,2096,2081,2078,2012,2201
2035,2081,2154,2088,2073,2077,2012,2201
2039,2092,2166,2086,2083,2075,2013,2206
2045,2104,2159,2086,2084,2072,1996,2209
2044,2092,2132,2081,2075,2070,2016,2208
2041,2082,2116,2084,2086,2079,2035,2196
2048,2087,2100,2080,2091,2077,2026,2190
2039,2077,2091,2085,2084,2072,2025,2189
2039,2082,2089,2094,2089,2076,2013,2199
2034,2092,2097,2109,2095,2063,2030,2202
2037,2099,2106,2112,2096,2050,2034,2199
2042,2091,2095,2113,2096,2051,2028,2198
2040,2086,2093,2108,2088,2062,2026,2180
2037,2082,2093,2115,2088,2065,2019,2185
2040,2074,2082,2113,2086,2061,2020,2186
2031,2067,2070,2103,2090,2058,2036,2178
2035,2061,2064,2095,2077,2052,2008,2174
2030,2066,2062,2094,2080,2046,2015,2167
2027,2063,2064,2095,2078,2040,2014,2161
2028,2053,2061,2088,2073,2034,2033,2153
2020,2048,2050,2077,2060,2027,2018,2159
2022,2051,2058,2079,2060,2024,2007,2171
2035,2066,2079,2090,2068,2032,2028,2164
2044,2076,2094,2098,2079,2036,2019,2176
2049,2078,2090,2099,2078,2042,2005,2186
2042,2076,2074,2099,2071,2059,2021,2179
2045,2078,2068,2097,2079,2075,2022,2163
2042,2068,2058,2093,2068,2062,2024,2163
2037,2062,2048,2076,2054,2047,2015,2175
2031,2060,2049,2080,2056,2039,2014,2163
2042,2064,2063,2091,2049,2048,2009,2170
2042,2065,2074,2096,2062,2061,1997,2171
2049,2062,2068,2101,2063,2069,1993,2170
2044,2064,2074,2108,2059,2073,2011,2173
2041,2074,2090,2113,2067,2074,2010,2179
2043,2081,2091,2121,2060,2082,2022,2178
2047,2081,2086,2121,2069,2081,2014,2180
2047,2068,2080,2115,2069,2077,2022,2183
2042,2074,2068,2112,2074,2083,2024,2182
2050,2078,2067,2118,2076,2074,2019,2180
2045,2078,2070,2118,2075,2078,2035,2180
2044,2068,2070,2118,2074,2065,2029,2175
2049,2070,2072,2110,2069,2053,2032,2166
2052,2065,2071,2108,2060,2057,2021,2170
2054,2061,2075,2103,2064,2054,2023,2166
2045,2065,2070,2098,2060,2052,2027,2162
2036,2045,2057,2081,2052,2055,2008,2152
2025,2039,2045,2081,2051,2068,2022,2152
2028,2041,2050,2091,2063,2082,2040,2167
2037,2046,2041,2089,2069,2073,2067,2169
2044,2038,2045,2093,2073,2079,2054,2163
2048,2053,2065,2106,2069,2081,2042,2154
2042,2057,2061,2099,2055,2076,2032,2133
2022,2053,2070,2104,2056,2070,2021,2126
2019,2041,2061,2102,2058,2069,2027,2132
2022,2036,2046,2102,2060,2077,2011,2151
2035,2059,2050,2114,2065,2074,2016,2152
2050,2071,2053,2108,2068,2063,2027,2154
2061,2076,2051,2102,2056,2064,2011,2151
2069,2084,2050,2104,2053,2056,2011,2157
2061,2079,2058,2100,2055,2062,2019,2148
2059,2078,2052,2097,2058,2058,2007,2165
2061,2082,2054,2101,2059,2059,2013,2169
2066,2068,2056,2106,2058,2058,2007,2165
2060,2072,2059,2101,2061,2054,2007,2162
2060,2082,2068,2103,2063,2050,2028,2152
2058,2078,2077,2104,2058,2051,2018,2159
2058,2076,2086,2097,2056,2056,2020,2160
2068,2075,2094,2099,2058,2056,2024,2162
2060,2069,2097,2096,2053,2052,2021,2158
2061,2051,2082,2077,2040,2050,2010,2162
2055,2039,2072,2075,2040,2053,2029,2179
2064,2042,2077,2082,2051,2060,2036,2176
2064,2052,2073,2089,2048,2061,2039,2157
2064,2046,2064,2091,2054,2064,2025,2144
2044,2026,2052,2089,2052,2064,2032,2137
2040,2028,2047,2102,2056,2069,2026,2152
2046,2049,2066,2114,2076,2072,2028,2156
2059,2082,2089,2125,2079,2076,2042,2164
2077,2088,2074,2115,2061,2075,2031,2168
2085,2071,2056,2109,2048,2072,2045,2150
2065,2062,2036,2092,2037,2055,2022,2138
2050,2047,2027,2085,2028,2041,2007,2132
2057,2054,2038,2080,2022,2031,2014,2121
2060,2057,2040,2082,2030,2035,2024,2118
2050,2059,2035,2075,2021,2032,2017,2112
2034,2040,2004,2057,2019,2024,2011,2111
2032,2025,1978,2054,2036,2024,2021,2106
2048,2028,1996,2076,2043,2041,2027,2116
2052,2047,2022,2087,2033,2035,2027,2118
2054,2042,2026,2075,2018,2034,2016,2119
2056,2042,2020,2066,2002,2028,2009,2108
2058,2050,2023,2075,1989,1996,2015,2125
2067,2058,2053,2103,2021,1973,2020,2139
2079,2071,2068,2121,2061,1987,2023,2141
2086,2073,2067,2134,2082,2012,2028,2135
2083,2064,2057,2135,2097,2043,2047,2126
2059,2045,2047,2140,2107,2077,2050,2117
2072,2060,2062,2157,2122,2119,2057,2121
2073,2072,2065,2152,2100,2144,2049,2128
2081,2075,2054,2136,2079,2139,2035,2132
2073,2061,2037,2115,2062,2109,2035,2124
2066,2056,2021,2087,2041,2068,2018,2117
2057,2057,2031,2072,2021,2013,2003,2117
2053,2057,2049,2053,2012,1999,2021,2122
2062,2075,2077,2040,2001,2015,2038,2129
2080,2100,2110,2040,2007,2029,2045,2131
2084,2114,2127,2050,2017,2038,2015,2143
2098,2127,2132,2053,2025,2049,2025,2147
2098,2114,2106,2048,2032,2045,2024,2145
2086,2090,2091,2041,2024,2045,2055,2142
2077,2077,2089,2041,2026,2047,2054,2139
2076,2067,2076,2043,2031,2056,2053,2131
2084,2063,2067,2047,2041,2063,2042,2127
2083,2066,2072,2067,2045,2064,2056,2127
2080,2070,2072,2074,2051,2069,2043,2126
2077,2069,2076,2083,2058,2056,2040,2119
2084,2081,2084,2097,2062,2016,2029,2122
2089,2089,2081,2099,2058,2006,2015,2112
2086,2091,2066,2096,2052,2012,2013,2107
2083,2082,2053,2087,2052,2013,2023,2100
2071,2072,2040,2078,2055,2032,2026,2095
2073,2082,2060,2079,2062,2051,2044,2102
2090,2099,2072,2078,2055,2048,2043,2104
2091,2096,2072,2075,2044,2038,2051,2103
2085,2094,2065,2072,2051,2040,2049,2107
2088,2089,2068,2077,2056,2036,2031,2113
2100,2088,2062,2064,2048,2027,2033,2111
2100,2087,2045,2064,2035,2026,2043,2109
2091,2077,2053,2072,2032,2033,2029,2111
2088,2075,2068,2080,2036,2068,2068,2119
2094,2078,2061,2084,2042,2088,2070,2125
2104,2070,2042,2083,2038,2066,2066,2124
2098,2059,2017,2082,2026,2036,2050,2112
2096,2054,2003,2082,2011,2028,2037,2108
2094,2052,1996,2083,2011,2031,2028,2091
2081,2049,1996,2092,2030,2042,2034,2087
2083,2061,2009,2097,2037,2053,2018,2094
2092,2057,2003,2097,2051,2053,2034,2103
2097,2054,1989,2086,2060,2060,2043,2094
2097,2049,1983,2105,2064,2070,2042,2094
2096,2058,1976,2103,2076,2065,2040,2090
2093,2050,1966,2102,2081,2064,2033,2088
2082,2042,1971,2096,2078,2058,2028,2082
2088,2039,1995,2104,2089,2058,2036,2078
2083,2050,2015,2114,2109,2052,2028,2073
2087,2053,2039,2119,2115,2049,2021,2076
2090,2058,2067,2116,2101,2042,2020,2081
2086,2061,2074,2097,2063,2030,2035,2077
2083,2068,2077,2083,2054,2020,2026,2076
2087,2075,2094,2093,2077,2026,2046,2077
2099,2096,2101,2097,2078,2036,2021,2079
2103,2096,2087,2081,2042,2034,2035,2072
2096,2092,2074,2059,1970,2023,2025,2058
2087,2070,2029,2018,1893,2008,2007,2061
2087,2059,2009,2004,1928,2013,2012,2060
2091,2070,2021,2013,1968,2021,2034,2067
2088,2076,2036,2021,1976,2029,2030,2071
2099,2082,2050,2011,1989,2039,2048,2075
2099,2086,2072,2006,1992,2042,2033,2081
2099,2093,2093,2009,1995,2036,2038,2077
2105,2101,2110,2020,1994,2037,2037,2083
2109,2109,2131,2030,2008,2036,2040,2091
2112,2107,2120,2041,2016,2043,2037,2096
2121,2106,2118,2056,2034,2050,2044,2102
2123,2100,2106,2064,2038,2051,2021,2093
2115,2093,2094,2068,2045,2047,2030,2092
2111,2088,2092,2070,2042,2042,2030,2085
2103,2082,2085,2074,2049,2043,2044,2090
2101,2084,2076,2079,2050,2036,2041,2085
2107,2083,2075,2062,2034,2034,2032,2080
2087,2064,2064,2054,2024,2028,2030,2073
2092,2068,2056,2062,2032,2036,2032,2090
2104,2077,2065,2068,2043,2043,2030,2082
2108,2075,2059,2069,2037,2044,2030,2078
2101,2074,2062,2059,2029,2038,2034,2079
2100,2079,2059,2065,2034,2038,2040,2076
2099,2076,2058,2063,2028,2044,2038,2073
2101,2075,2064,2068,2029,2039,2040,2078
2101,2079,2064,2066,2027,2028,2034,2081
2099,2077,2058,2073,2020,2022,2020,2074
2105,2073,2059,2076,2016,2023,2033,2074
2096,2067,2050,2074,2017,2026,2037,2068
2095,2064,2045,2061,2018,2032,2033,2060
2092,2059,2055,2067,2029,2040,2040,2053
2101,2068,2054,2068,2023,2042,2027,2052
2094,2062,2044,2063,2021,2043,2042,2052
2093,2057,2036,2048,2014,2043,2030,2049
2088,2051,2022,2048,2006,2040,2025,2051
2084,2057,2027,2047,2009,2050,2030,2059
2094,2051,2018,2044,2018,2058,2033,2044
2089,2059,2015,2051,2023,2060,2016,2042
2094,2058,2005,2052,2032,2075,2034,2046
2090,2059,2010,2055,2045,2078,2033,2042
2091,2055,2005,2060,2056,2080,2041,2049
2090,2055,2004,2061,2042,2057,2031,2050
2100,2062,1999,2064,2040,2003,2022,2055
2100,2062,1988,2057,2029,1983,2027,2056
2100,2061,1996,2070,2026,1996,2024,2064
2103,2066,2000,2076,2032,2016,2029,2057
2102,2060,1996,2076,2031,2020,2029,2047
2092,2065,2015,2085,2036,2025,2038,2045
2100,2075,2032,2091,2036,2030,2031,2045
2092,2072,2040,2094,2031,2019,2015,2044
2086,2062,2043,2094,2013,2006,2017,2043
2084,2062,2048,2094,1995,1992,2012,2044
2096,2064,2066,2100,1987,1993,2011,2043
2085,2064,2068,2086,1973,1996,2010,2035
2088,2066,2077,2080,1965,2005,2008,2028
2087,2072,2099,2085,1986,2025,2006,2023
2096,2080,2120,2105,2022,2044,2018,2032
2104,2102,2136,2130,2068,2062,2039,2047
2122,2126,2160,2142,2101,2058,2048,2051
2130,2124,2152,2129,2093,2065,2050,2050
2113,2109,2146,2109,2056,2060,2023,2036
2112,2110,2131,2092,2028,2057,2022,2032
2112,2105,2121,2095,2010,2043,2016,2027
2115,2101,2106,2088,2006,2020,2013,2020
2113,2090,2088,2084,2019,2002,2019,2021
2118,2093,2089,2096,2043,2009,2034,2029
2109,2098,2095,2105,2061,2014,2037,2019
2105,2083,2082,2092,2054,2022,2035,2021
2101,2080,2071,2083,2046,2036,2028,2022
2108,2094,2076,2074,2038,2031,2014,2026
2110,2096,2064,2055,2032,2027,2006,2019
2111,2094,2054,2042,2025,2027,2027,2022
2101,2081,2040,2031,2015,2027,2023,2021
2105,2073,2023,2010,2015,2036,2032,2027
2104,2071,2018,2001,2004,2029,2026,2023
2098,2059,2010,2003,2001,2032,2032,2025
2094,2053,2001,2010,1995,2034,2037,2018
2092,2058,2006,2022,2012,2034,2044,2016
2100,2057,2017,2037,2019,2036,2025,2028
2101,2061,2021,2029,1998,2034,2023,2032
2107,2057,2014,2026,1979,2022,2029,2028
2113,2055,2004,2023,1969,2018,2026,2030
2110,2055,1993,2041,1970,2011,2023,2033
2110,2045,1988,2038,1977,2005,2014,2023
2100,2037,1987,2048,1997,2012,2025,2007
2086,2039,1985,2052,2024,2018,2028,2004
2090,2053,1988,2054,2027,2008,2017,2008
2095,2050,1982,2040,1998,2001,2022,2013
2090,2056,1990,2045,2013,2016,2026,2014
2102,2072,2010,2048,2033,2024,2024,2018
2102,2072,2009,2045,2035,2033,2032,2015
2110,2084,2035,2052,2038,2036,2040,2016
2112,2088,2054,2055,2031,2039,2045,2016
2108,2081,2060,2057,2035,2042,2042,2013
2106,2076,2056,2060,2036,2041,2044,2015
2102,2070,2050,2064,2042,2043,2031,2012
2099,2062,2056,2072,2050,2046,2037,2007
2096,2060,2041,2069,2043,2047,2018,2002
2098,2052,2038,2074,2037,2040,2039,2000
2090,2050,2032,2082,2035,2042,2039,1996
2094,2048,2060,2101,2031,2040,2038,1993
2088,2054,2082,2111,2021,2031,2032,1991
2098,2060,2082,2099,2009,2034,2023,1988
2100,2059,2060,2091,2009,2031,2024,1982
2094,2056,2042,2093,2008,2030,2044,1982
2097,2051,2012,2086,1997,2026,2038,1983
2094,2045,1997,2084,1999,2027,2036,1989
2097,2058,1986,2075,1998,2026,2033,1990
2102,2056,1962,2053,1983,2012,2045,1993
2100,2050,1956,2038,1978,2008,2023,2000
2105,2057,1974,2021,1983,2011,2025,1994
2112,2063,2008,2016,1975,2008,2026,1995
2108,2076,2046,2002,1972,2007,2035,1990
2115,2088,2082,1987,1961,2000,2029,1990
2119,2085,2085,1966,1952,1999,2038,1989
2112,2083,2075,1956,1951,2004,2048,1999
2114,2093,2092,1957,1962,2006,2044,1994
2112,2100,2114,1966,1965,2008,2042,1999
2121,2109,2109,1986,1982,2020,2039,2010
2127,2124,2106,2004,1986,2025,2040,2017
2118,2116,2087,2015,1984,2020,2050,2020
2131,2113,2076,2027,1984,2022,2035,2003
2121,2108,2075,2030,1985,2023,2058,1998
2118,2094,2060,2027,1981,2020,2045,1995
2121,2088,2047,2020,1975,2011,2036,1989
2110,2078,2046,2026,1984,2010,2027,1982
2108,2092,2072,2034,2000,2019,2043,1984
2118,2110,2085,2051,2017,2027,2050,1977
2124,2118,2099,2055,2025,2030,2050,1978
2125,2112,2082,2042,2005,2026,2051,1976
2121,2102,2067,2032,1995,2017,2044,1977
2113,2084,2053,2019,2004,2012,2048,1959
2105,2072,2042,2026,2022,2014,2047,1953
2098,2073,2045,2020,2037,2014,2046,1949
2105,2077,2045,2031,2045,2023,2043,1955
2107,2083,2051,2037,2059,2034,2047,1964
2112,2089,2052,2036,2046,2031,2020,1961
2109,2085,2044,2042,2021,2028,2040,1963
2110,2085,2041,2037,2012,2026,2050,1970
2110,2076,2032,2039,2010,2018,2049,1965
2106,2076,2029,2043,2022,2029,2048,1980
2114,2068,2026,2054,2075,2056,2052,1977
2115,2072,2029,2065,2147,2071,2060,1956
2105,2070,2035,2064,2161,2068,2055,1955
2108,2074,2035,2059,2137,2057,2051,1967
2113,2069,2032,2036,2100,2053,2052,1964
2106,2057,2016,2004,2020,2038,2047,1962
2106,2059,2020,1991,1979,2021,2054,1970
2110,2056,2015,1989,1984,2024,2043,1973
2112,2041,2001,1985,1984,2012,2018,1979
2100,2027,1989,1986,1955,1989,2023,1965
2076,2020,1981,1984,1850,1965,2006,1958
2087,2056,2017,1997,1818,1968,2009,1963
2110,2080,2040,2009,1881,1987,2039,1955
2106,2071,2030,2021,1941,2014,2052,1958
2109,2072,2029,2028,1977,2028,2041,1969
2107,2074,2028,2028,1981,2028,2066,1971
2104,2071,2024,2023,1992,2024,2053,1967
2110,2074,2037,2016,2006,2022,2046,1966
2110,2084,2047,2019,2007,2019,2046,1967
2116,2086,2048,2019,2019,2017,2039,1967
2116,2080,2035,2030,2031,2022,2024,1965
2112,2076,2024,2036,2036,2021,2056,1959
2106,2072,2012,2037,2036,2025,2045,1954
2110,2069,1992,2046,2027,2020,2055,1949
2114,2067,2006,2059,2012,2018,2053,1940
2107,2068,2016,2054,2005,2004,2055,1932
2103,2060,2026,2054,1994,2000,2035,1933
2098,2054,2032,2052,1990,2000,2007,1936
2107,2074,2048,2061,1995,2002,2036,1936
2111,2077,2050,2067,2002,2005,2050,1938
2115,2078,2074,2073,1988,2002,2046,1943
2116,2085,2085,2073,1986,2004,2037,1945
2118,2087,2092,2070,1991,2001,2035,1942
2128,2090,2086,2068,1988,2010,2049,1945
2128,2091,2081,2057,1992,2009,2053,1946
2116,2089,2085,2044,1986,2005,2060,1956
2120,2091,2090,2039,1992,2011,2051,1960
2123,2102,2103,2045,2000,2021,2059,1960
2118,2092,2091,2026,1994,2016,2041,1963
2106,2082,2084,2014,1991,2011,2040,1968
2112,2077,2085,2017,2002,2021,2072,1969
2112,2072,2063,2013,2000,2024,2085,1974
2109,2067,2050,2013,1996,2023,2074,1970
2100,2053,2030,1997,1996,2021,2072,1964
2098,2052,2030,1997,2002,2028,2067,1970
2112,2069,2054,2007,2002,2030,2069,1966
2115,2077,2058,2008,2000,2024,2067,1965
2116,2077,2051,2007,2011,2020,2040,1967
2113,2070,2041,2010,2004,2022,2057,1961
2109,2062,2035,2020,2011,2025,2047,1949
2109,2068,2046,2023,2017,2033,2051,1945
2109,2086,2051,2041,2028,2041,2038,1946
2118,2080,2053,2043,2024,2040,2042,1950
2119,2075,2051,2044,2021,2026,2039,1939
2118,2073,2052,2041,2020,2013,2032,1937
2115,2069,2054,2048,2012,2010,2026,1939
2117,2069,2056,2042,2014,2016,2027,1934
2115,2067,2050,2040,2010,2024,2050,1929
2105,2061,2045,2045,2010,2030,2046,1915
2102,2056,2043,2037,2004,2022,2048,1910
2095,2051,2033,2041,2006,2024,2051,1909
2096,2061,2038,2045,2010,2035,2052,1911
2111,2070,2053,2052,2004,2030,2048,1920
2106,2077,2056,2058,2003,2026,2064,1918
2107,2076,2061,2065,2001,2020,2061,1919
2112,2078,2051,2064,1998,2017,2064,1920
2109,2066,2036,2057,2000,2007,2060,1921
2102,2057,2025,2057,1982,2001,2041,1924
2101,2056,2021,2064,1999,2012,2034,1925
2105,2058,2021,2065,2010,2015,2040,1929
2101,2059,2020,2057,2014,2012,2033,1925
2096,2052,2014,2045,2003,2012,2042,1925
2097,2038,1999,2029,2000,2013,2040,1933
2086,2034,1996,2026,2007,2009,2049,1942
2093,2041,2015,2030,2005,2005,2034,1946
2101,2053,2028,2032,1986,2009,2052,1944
2103,2053,2021,2017,1971,2007,2055,1949
2098,2054,2034,2010,1972,2008,2064,1941
2102,2073,2054,2018,1986,2025,2070,1945
2111,2073,2049,2007,1999,2036,2074,1941
2106,2068,2044,1990,1998,2038,2064,1938
2099,2068,2035,1966,1988,2031,2069,1937
2102,2065,2034,1956,1978,2020,2043,1936
2109,2068,2032,1954,1995,2019,2049,1935
2114,2065,2033,1963,2012,2012,2060,1927
2108,2080,2048,1978,1977,2003,2073,1924
2110,2079,2052,1977,1944,2000,2073,1917
2111,2075,2049,1988,1936,2003,2065,1917
2105,2066,2034,1990,1960,2021,2071,1909
2111,2067,2040,2012,1983,2037,2079,1915
2112,2074,2056,2034,1992,2033,2076,1921
2107,2076,2057,2040,1995,2021,2075,1922
2112,2072,2048,2045,1996,2016,2075,1916
2096,2058,2032,2036,1988,2021,2066,1907
2096,2053,2039,2034,2018,2042,2080,1905
2100,2075,2057,2045,2077,2059,2074,1908
2108,2079,2066,2052,2109,2066,2046,1907
2104,2081,2073,2050,2160,2075,2066,1912
2108,2078,2070,2062,2158,2069,2073,1923
2110,2077,2063,2061,2116,2045,2071,1926
2110,2065,2052,2062,2094,2005,2076,1924
2106,2056,2053,2052,2052,1998,2073,1916
2099,2040,2047,2026,1950,2005,2062,1914
2095,2043,2050,2025,1942,2002,2053,1899
2091,2048,2044,2025,1980,2010,2053,1905
2090,2039,2027,2024,2008,2024,2048,1901
2076,2029,2018,2028,2033,2025,2038,1904
2077,2038,2019,2034,2007,2025,2042,1908
2082,2043,2013,2034,1983,2021,2043,1910
2081,2041,2001,2038,2006,2018,2046,1908
2071,2028,1992,2045,1986,2021,2053,1916
2079,2030,1997,2057,1987,2033,2075,1920
2084,2038,2010,2063,1992,2027,2050,1923
2085,2037,2025,2064,1999,2022,2034,1922
2086,2044,2038,2058,2008,2030,2049,1923
2094,2054,2043,2064,2019,2030,2066,1922
2092,2056,2014,2049,2031,2030,2084,1924
2098,2051,2012,2050,2060,2048,2082,1925
2102,2065,2027,2067,2078,2070,2079,1927
2108,2080,2049,2089,2086,2079,2090,1924
2110,2091,2060,2099,2088,2064,2075,1919
2106,2091,2067,2108,2072,2047,2062,1914
2104,2084,2067,2115,2107,2048,2069,1904
2105,2069,2050,2104,2123,2048,2071,1900
2103,2062,2035,2087,2084,2040,2062,1902
2092,2057,2031,2049,2014,2019,2072,1898
2091,2043,2019,2021,1965,1980,2053,1891
2082,2029,2001,1992,1876,1930,2039,1883
2075,2034,1993,1984,1918,1941,2048,1895
2089,2039,2011,2016,1994,1978,2057,1903
2102,2063,2038,2035,2004,2003,2059,1913
2106,2073,2059,2029,1994,2017,2055,1911
2105,2079,2053,2025,2004,2029,2076,1904
2087,2057,2026,2008,2010,2031,2062,1911
2083,2041,2012,1982,1934,2024,2067,1907
2081,2037,2012,1956,1855,1993,2055,1913
2075,2052,2042,1955,1895,1988,2049,1910
2081,2075,2073,1974,1972,1978,2058,1923
2084,2088,2080,1994,2012,2008,2031,1923
2090,2088,2068,2015,2018,2017,2044,1924
2098,2091,2069,2002,1987,2021,2052,1930
2096,2085,2064,1988,1935,2032,2062,1931
2104,2083,2070,1983,1927,2036,2055,1936
2096,2074,2071,1989,1957,2020,2070,1941
2094,2077,2059,2021,2015,2020,2072,1950
2100,2081,2060,2032,2040,2040,2072,1953
2093,2073,2057,2021,1993,2060,2097,1951
2102,2078,2064,2032,1977,2078,2116,1960
2116,2087,2066,2046,1998,2078,2114,1971
2125,2099,2068,2041,2019,2047,2091,1953
2117,2088,2055,2008,1984,2007,2067,1939
2100,2074,2038,1988,2006,1989,2060,1930
2096,2070,2037,1980,2020,1991,2058,1928
2094,2070,2031,1972,1943,1971,2036,1910
2080,2062,2029,1992,1891,1977,2044,1905
2078,2062,2035,2027,1960,2016,2054,1904
2081,2058,2036,2049,2039,2025,2052,1912
2082,2050,2037,2053,2077,2027,2048,1914
2088,2061,2034,2059,2100,2018,2049,1903
2083,2051,2031,2044,2086,1983,2026,1904
2071,2042,2024,2033,2039,1964,2026,1906
2078,2052,2045,2057,2071,1992,2061,1915
2087,2073,2064,2069,2120,2026,2066,1922
2093,2066,2047,2072,2180,2037,2061,1918
2084,2049,2027,2053,2177,2028,2054,1925
2082,2048,2008,2044,2160,2038,2058,1925
2086,2045,2015,2045,2169,2052,2062,1926
2090,2060,2027,2049,2150,2060,2067,1922
2092,2065,2038,2056,2124,2061,2070,1929
2091,2059,2037,2054,2105,2056,2072,1926
2086,2053,2029,2038,2103,2046,2057,1928
2082,2044,2024,2026,2054,2003,2033,1924
2068,2037,2020,1981,1927,1948,2024,1914
2068,2042,2029,1974,1863,1940,2026,1925
2074,2046,2032,1991,1883,1962,2043,1936
2075,2051,2031,2000,1916,1975,2049,1935
2078,2052,2030,2001,1957,1981,2047,1931
2069,2040,2020,2002,1980,1978,2042,1934
2078,2049,2026,2003,1975,1981,2058,1942
2079,2049,2032,2007,1964,1980,2060,1940
2084,2049,2039,2003,1954,1992,2053,1936
2087,2057,2038,2013,1975,2013,2071,1931
2081,2062,2042,2035,1968,2021,2073,1938
2089,2064,2050,2046,1966,2035,2091,1941
2090,2069,2059,2048,1976,2031,2069,1944
2087,2068,2059,2054,1988,2049,2073,1947
2095,2072,2078,2073,2054,2078,2094,1950
2100,2072,2077,2088,2125,2097,2092,1945
2089,2059,2081,2097,2148,2106,2072,1931
2087,2057,2084,2099,2088,2113,2088,1930
2084,2063,2092,2078,1966,2120,2091,1916
2088,2068,2089,2048,1896,2111,2072,1920
2095,2063,2081,2051,1916,2090,2078,1928
2092,2056,2067,2057,1970,2055,2076,1925
2081,2061,2073,2078,1986,2057,2084,1947
2088,2085,2083,2113,2004,2060,2089,1962
2094,2082,2073,2095,1933,2074,2078,1964
2098,2085,2062,2078,1949,2093,2092,1967
2098,2080,2046,2039,1951,2083,2091,1959
2092,2069,2022,2011,1968,2028,2066,1949
2083,2051,1999,1978,1996,1967,2030,1931
2075,2032,1966,1948,1994,1950,2021,1933
2069,2030,1952,1985,2145,2003,2022,1939
2078,2038,1969,2048,2262,2033,2019,1935
2084,2059,1992,2056,2216,2025,2052,1937
2083,2064,1996,2012,2122,1988,2046,1941
2078,2054,1973,1972,2082,1949,2033,1943
2077,2047,1979,1967,2072,1943,2026,1947
2083,2045,1998,1985,2055,1955,2034,1960
2093,2053,2015,1995,2016,1949,2026,1956
2093,2048,2011,1994,1978,1947,2008,1944
2084,2038,2013,1989,1964,1965,2013,1944
2084,2055,2037,2008,1971,1985,2039,1947
2077,2064,2045,2011,1966,1996,2040,1950
2069,2062,2050,2010,1958,1998,2048,1945
2074,2065,2059,2013,1951,1989,2046,1948
2080,2066,2058,2012,1937,1974,2024,1951
2075,2062,2056,2021,1950,1981,2035,1944
2074,2065,2050,2020,1978,1989,2052,1948
2081,2058,2043,2021,2003,2003,2046,1953
2080,2046,2037,2023,2036,2014,2045,1945
2072,2044,2035,2030,2022,2013,2042,1941
2070,2042,2032,2030,1996,2019,2051,1936
2068,2034,2039,2030,1994,2019,2055,1940
2064,2033,2042,2036,2011,2031,2061,1949
2058,2041,2042,2040,2014,2035,2056,1957
2067,2039,2037,2037,2024,2023,2050,1943
2063,2037,2036,2029,2034,2016,2045,1936
2066,2037,2040,2036,2033,2025,2036,1943
2073,2045,2044,2041,2043,2029,2038,1949
2083,2046,2046,2043,2056,2024,2033,1955
2084,2048,2041,2038,2089,2002,2043,1954
2082,2047,2036,2042,2138,2014,2046,1964
2081,2053,2041,2063,2182,2037,2030,1976
2079,2049,2039,2060,2178,2059,2056,1972
2069,2044,2031,2041,2074,2050,2067,1973
2068,2042,2030,2007,1922,2051,2064,1970
2070,2042,2030,2004,1903,2053,2058,1973
2075,2048,2030,2006,1928,2052,2069,1976
2077,2049,2028,2024,2020,2063,2062,1976
2078,2050,2028,2038,2096,2078,2066,1981
2088,2057,2041,2073,2134,2079,2076,1998
2087,2051,2044,2089,2120,2069,2080,1994
2076,2038,2030,2061,2028,2043,2065,1980
2072,2027,2023,2047,1979,2051,2080,1998
2081,2029,2027,2065,2011,2065,2077,1998
2078,2031,2013,2061,2081,2077,2053,1988
2068,2022,2005,2044,2066,2083,2042,1986
2062,2017,2001,2022,1997,2069,2071,1979
2071,2024,2009,2001,1927,2050,2061,1966
2061,2036,2023,2001,2029,2036,2040,1963
2053,2031,2023,2021,2092,2022,2045,1966
2058,2032,2023,2041,2114,2008,2068,1967
2068,2042,2028,2050,2117,2007,2057,1974
2076,2048,2026,2028,2018,1998,2060,1979
2081,2046,2014,2000,1956,1999,2050,1985
2076,2048,2017,2007,2044,2026,2061,1974
2071,2044,2026,1984,1963,2058,2057,1962
2067,2044,2017,1959,1779,2085,2068,1957
2062,2047,2029,1992,1859,2122,2059,1960
2064,2048,2053,2036,1961,2130,2050,1968
2065,2054,2074,2041,1964,2093,2064,1973
2080,2066,2086,2053,2012,2021,2065,1983
2079,2070,2084,2062,2037,1958,2073,1987
2072,2059,2073,2071,2033,1975,2064,1989
2080,2059,2073,2096,2085,2016,2069,1987
2084,2061,2080,2113,2126,2045,2082,1981
2070,2056,2078,2091,2088,2044,2075,1983
2066,2053,2068,2063,1986,2039,2069,1988
2066,2052,2075,2060,1958,2036,2056,1993
2063,2055,2076,2058,1951,2007,2069,1988
2055,2040,2056,2026,1948,1970,2044,1979
2046,2035,2035,2013,1974,1976,2029,1970
2046,2031,2034,2029,2018,1999,2055,1975
2045,2033,2031,2049,2067,2025,2045,1992
2059,2043,2035,2066,2089,2024,2045,2000
2063,2045,2027,2053,2089,2002,2035,1996
2049,2032,2015,2036,2071,1977,2023,1990
2048,2036,2025,2040,2110,1997,2042,2009
2062,2056,2030,2030,2105,2012,2037,2003
2060,2044,2023,2013,2010,2000,2040,2001
2052,2038,2013,1999,1948,1993,2042,1992
2056,2034,2017,2029,2024,2001,2048,1993
2062,2041,2026,2044,2064,2005,2051,1989
2054,2038,2023,2041,2055,2017,2034,1988
2051,2036,2034,2056,2072,2038,2059,1994
2059,2041,2040,2065,2082,2048,2056,1995
2062,2042,2045,2059,2077,2046,2062,1993
2058,2048,2052,2060,2081,2057,2075,2000
2066,2046,2045,2067,2071,2048,2047,1997
2061,2043,2035,2056,2041,2026,2064,2001
2054,2036,2022,2043,2020,2020,2060,1999
2064,2040,2026,2041,2012,2016,2052,1998
2061,2032,2023,2030,2001,2003,2023,1985
2051,2026,2027,2032,1999,1999,2024,1988
2048,2034,2043,2035,1997,2005,2031,1992
2056,2039,2036,2030,1988,2002,2031,1996
2053,2045,2028,2036,1987,2008,2032,2001
2057,2048,2026,2038,1991,2002,2041,1997
2061,2054,2034,2039,2008,2004,2028,2001
2058,2052,2035,2048,2053,2008,2011,2003
2062,2058,2055,2055,2107,2028,2046,2005
2070,2056,2056,2058,2115,2026,2056,2003
2065,2046,2044,2048,2069,2023,2066,2014
2061,2045,2043,2044,2054,2024,2062,2012
2061,2054,2043,2044,2042,2019,2053,2008
2060,2051,2056,2047,2072,2025,2052,2011
2051,2052,2064,2065,2119,2039,2058,2009
2048,2049,2068,2067,2133,2056,2055,2021
2050,2047,2074,2066,2124,2091,2031,2015
2045,2040,2064,2062,2110,2093,2052,2011
2049,2037,2063,2058,2089,2087,2049,2021
2049,2043,2067,2061,2091,2092,2052,2027
2052,2043,2066,2056,2081,2095,2058,2030
2050,2060,2073,2066,2093,2101,2051,2025
2057,2053,2060,2055,2055,2098,2051,2026
2051,2042,2047,2047,2045,2086,2058,2024
2040,2029,2044,2029,1982,2086,2058,2019
2037,2026,2027,2021,1946,2078,2029,2018
2033,2023,2023,2031,1972,2063,2040,2005
2034,2027,2026,2032,1983,2037,2042,2010
2034,2028,2028,2026,1995,2012,2055,2014
2046,2027,2015,2004,2016,2005,2056,2017
2041,2028,2004,2004,2038,2010,2043,2012
2038,2034,1997,2001,2020,2010,2031,2015
2046,2040,2018,2009,2035,2021,2022,2015
2040,2038,2036,2009,2023,2011,2013,2002
2031,2032,2046,2010,2021,2010,2016,2011
2038,2037,2075,2021,1975,2013,2044,2026
2048,2042,2074,2022,1923,2010,2045,2031
2038,2032,2061,2039,1954,2010,2044,2038
2047,2043,2067,2079,2014,2034,2080,2037
2063,2065,2081,2103,2048,2069,2090,2042
2073,2084,2102,2123,2072,2105,2097,2050
2068,2086,2114,2128,2074,2116,2091,2048
2070,2079,2095,2094,1975,2076,2067,2048
2062,2067,2092,2050,1875,2055,2084,2042
2064,2065,2091,2028,1929,2054,2071,2040
2058,2057,2081,2015,2052,2055,2069,2037
2056,2046,2077,2019,2125,2071,2050,2029
2047,2042,2072,2029,2089,2076,2026,2021
2042,2036,2065,2052,2096,2078,2026,2019
2039,2031,2066,2061,2104,2053,2044,2013
2038,2026,2051,2054,2096,2016,2016,2005
2032,2017,2044,2074,2157,2023,2034,2016
2038,2028,2050,2094,2235,2049,2045,2018
2045,2034,2052,2105,2247,2065,2033,2020
2039,2030,2042,2104,2227,2062,2007,2019
2043,2025,2037,2073,2149,2052,2032,2021
2041,2034,2035,2044,2073,2042,2045,2026
2042,2032,2036,2038,2116,2045,2039,2028
2036,2028,2026,2040,2191,2071,2060,2030
2031,2029,2024,2045,2198,2089,2066,2033
2032,2033,2015,2018,2096,2088,2056,2040
2047,2032,2002,1998,2039,2093,2046,2036
2045,2024,1997,1972,1954,2075,2042,2026
2027,2009,1987,1933,1761,2023,2047,2012
2020,2024,2000,1969,1816,1992,2041,2017
2022,2036,2036,2014,1922,2010,2040,2014
2036,2046,2053,2033,2008,2039,2059,2020
2034,2032,2046,2043,2086,2059,2056,2015
2034,2034,2045,2049,2130,2061,2051,2014
2041,2050,2054,2056,2081,2050,2055,2019
2037,2042,2054,2049,2042,2041,2061,2022
2034,2038,2052,2053,2042,2049,2048,2023
2034,2040,2049,2061,2030,2057,2027,2021
2025,2033,2044,2067,2022,2060,2058,2028
2025,2029,2052,2062,2019,2069,2037,2036
2037,2025,2043,2051,1980,2073,2045,2044
2044,2029,2038,2023,1930,2067,2048,2049
2037,2033,2034,2023,1990,2060,2066,2047
2038,2040,2038,2048,2068,2054,2072,2041
2033,2043,2048,2058,2150,2042,2034,2030
2033,2045,2050,2041,2224,2046,2040,2033
2037,2039,2056,2050,2252,2063,2041,2043
2038,2045,2056,2030,2065,2049,2045,2041
2040,2043,2041,2013,1965,2025,2023,2036
2030,2030,2026,2005,1956,2018,2018,2045
2025,2031,2032,2025,1988,2015,2031,2049
2036,2048,2044,2036,1955,2015,2032,2057
2044,2050,2039,2038,1945,2030,2041,2062
2058,2045,2044,2051,1994,2065,2065,2069
2059,2047,2049,2079,2109,2092,2071,2065
2054,2046,2063,2100,2158,2098,2077,2059
2051,2043,2063,2099,2151,2093,2082,2054
2039,2037,2074,2106,2163,2091,2063,2053
2033,2042,2090,2115,2172,2101,2079,2050
2039,2049,2092,2104,2141,2100,2076,2058
2044,2044,2083,2070,2031,2087,2062,2054
2043,2031,2061,2027,2020,2062,2029,2036
2026,2028,2058,2015,2100,2053,2036,2016
2026,2034,2076,2041,2074,2069,2059,2011
2030,2037,2087,2052,2040,2078,2029,2012
2015,2030,2090,2067,2053,2065,2043,2005
2006,2029,2084,2045,2008,2017,2039,2010
2016,2045,2077,2027,1956,1988,2028,2021
2028,2045,2068,2021,1930,2002,2055,2031
2035,2045,2057,2006,1904,2024,2028,2047
2043,2042,2047,2016,2022,2071,2055,2050
2043,2042,2043,2042,2108,2111,2049,2052
2039,2043,2045,2046,2150,2134,2082,2063
2047,2052,2048,2054,2130,2169,2080,2070
2060,2056,2066,2067,2153,2183,2061,2078
2065,2060,2069,2084,2162,2141,2065,2067
2055,2063,2064,2091,2216,2112,2073,2062
2053,2054,2057,2108,2266,2110,2062,2058
2044,2039,2047,2068,2090,2042,2052,2047
2033,2030,2028,1983,1839,1973,2025,2033
2016,2013,2020,1928,1726,1940,2016,2024
2007,2008,2014,1932,1792,1948,2007,2019
2000,2005,2020,1980,1919,1985,2030,2027
2007,2020,2037,2030,2040,2026,2053,2040
2024,2032,2043,2042,2101,2033,2052,2041
2030,2031,2045,2039,2137,2035,2056,2046
2035,2040,2054,2037,2113,2042,2056,2057
2036,2039,2048,2042,2094,2047,2056,2061
2037,2043,2051,2040,2064,2052,2047,2062
2044,2055,2069,2045,2062,2051,2050,2053
2046,2059,2060,2031,2057,2058,2045,2047
2035,2036,2040,2021,2046,2044,2033,2048
2039,2026,2020,2014,2004,2021,2031,2046
2039,2019,2024,2029,1992,2029,2037,2058
2048,2027,2030,2037,2011,2027,2051,2057
2041,2013,2022,2030,2011,2028,2043,2051
2025,2006,2014,2005,1956,2016,2045,2035
2024,2002,2006,2003,1966,2024,2042,2036
2027,2002,2005,2002,1996,2037,2036,2032
2024,2008,2011,2024,2039,2061,2050,2028
2021,2012,2013,2032,2063,2064,2053,2025
2012,2004,2000,2033,2095,2057,2045,2025
2001,2011,2011,2043,2111,2066,2051,2034
2008,2011,2016,2056,2113,2076,2058,2042
2012,2015,2012,2041,2054,2067,2050,2052
2018,2027,2026,2037,1969,2068,2041,2060
2032,2042,2052,2049,1932,2078,2060,2068
2045,2058,2078,2059,1982,2108,2083,2074
2057,2070,2096,2068,2057,2129,2065,2080
2054,2069,2100,2071,2044,2133,2076,2078
2050,2060,2089,2048,1968,2115,2068,2070
2041,2061,2089,2037,1913,2088,2047,2066
2032,2054,2081,2024,1931,2061,2047,2057
2030,2056,2080,2049,2060,2047,2062,2059
2027,2044,2073,2057,2114,2026,2059,2049
2023,2033,2072,2068,2107,2037,2042,2057
2030,2040,2066,2086,2148,2056,2051,2056
2030,2036,2050,2042,1990,2042,2040,2062
2031,2033,2061,2062,2081,2099,2040,2067
2043,2046,2070,2088,2259,2111,2051,2069
2037,2048,2065,2077,2251,2078,2034,2057
2029,2040,2063,2057,2159,2048,2044,2056
2025,2038,2055,2044,2041,2036,2051,2046
2016,2030,2044,2026,2015,2048,2045,2037
2011,2037,2052,2026,2049,2050,2043,2038
2014,2039,2051,2034,2088,2054,2020,2042
2017,2047,2055,2044,2103,2053,2046,2048
2022,2045,2059,2046,2105,2046,2049,2037
2013,2039,2052,2047,2094,2035,2038,2028
2004,2040,2043,2048,2083,2037,2045,2025
2012,2044,2040,2048,2069,2033,2036,2029
2009,2029,2029,2040,2073,2037,2042,2031
2015,2037,2038,2049,2099,2055,2042,2039
2020,2047,2040,2046,2143,2066,2046,2047
2024,2050,2038,2036,2106,2073,2055,2045
2028,2046,2041,2049,2112,2078,2052,2046
2020,2037,2043,2064,2128,2080,2042,2037
2015,2040,2044,2065,2109,2069,2054,2045
2022,2037,2043,2056,2098,2064,2053,2058
2016,2039,2039,2044,2061,2036,2028,2049
2018,2038,2038,2032,1985,2003,2026,2056
2022,2036,2035,2016,1909,1989,2031,2049
2016,2037,2049,2025,1934,1994,2018,2055
2026,2045,2067,2054,2006,2008,2038,2059
2021,2044,2079,2061,2004,2006,2026,2060
2020,2041,2076,2049,1983,1996,2021,2061
2020,2039,2067,2042,1994,2011,2026,2060
2011,2023,2052,2045,2019,2023,2029,2061
2012,2025,2045,2066,2067,2049,2051,2068
2027,2040,2056,2088,2131,2072,2063,2075
2027,2037,2050,2099,2162,2095,2066,2070
2024,2035,2050,2088,2122,2090,2068,2063
2016,2029,2041,2072,2079,2079,2052,2061
2012,2028,2033,2055,2062,2070,2052,2063
2018,2024,2033,2047,2066,2082,2061,2064
2023,2028,2033,2049,2079,2091,2068,2061
2025,2028,2024,2038,2039,2080,2056,2061
2019,2029,2017,2022,2004,2064,2055,2058
2022,2033,2018,2011,2017,2058,2062,2049
2032,2020,2019,2016,2048,2052,2051,2045
2027,2019,2028,2014,2027,2050,2054,2056
2024,2038,2052,2023,2052,2079,2062,2051
2029,2051,2066,2043,2106,2090,2082,2063
2033,2049,2066,2060,2128,2086,2082,2064
2028,2048,2065,2078,2129,2085,2064,2067
2035,2064,2094,2091,2173,2099,2069,2073
2042,2066,2096,2108,2227,2096,2072,2067
2037,2066,2103,2121,2224,2084,2070,2055
2030,2054,2088,2107,2175,2052,2054,2055
2023,2044,2077,2085,2165,2023,2050,2058
2021,2048,2067,2070,2061,2012,2050,2062
2023,2046,2074,2086,2076,2042,2055,2062
2025,2051,2079,2097,2084,2054,2057,2067
2031,2053,2074,2076,2057,2045,2046,2080
2032,2047,2064,2057,1998,2031,2025,2068
2024,2037,2053,2033,1965,2019,2020,2056
2019,2033,2054,2021,1981,2015,2016,2055
2019,2033,2041,2008,1974,2042,2034,2062
2014,2030,2039,1998,1936,2075,2019,2061
2015,2032,2044,1987,1919,2086,2015,2063
2014,2035,2047,1995,1964,2075,2038,2073
2014,2034,2051,2009,1982,2078,2048,2086
2029,2043,2057,2026,2024,2091,2043,2083
2032,2042,2053,2034,2079,2084,2047,2073
2026,2034,2050,2032,2129,2079,2025,2068
2016,2037,2046,2042,2165,2076,2049,2075
2013,2041,2056,2065,2182,2076,2072,2071
2016,2042,2055,2062,2170,2084,2053,2065
2010,2041,2043,2052,2084,2097,2049,2064
2009,2032,2037,2052,2047,2105,2052,2062
2004,2028,2042,2052,2062,2100,2057,2060
2009,2029,2040,2041,2048,2086,2065,2058
2008,2028,2038,2027,2013,2065,2058,2051
2005,2027,2029,2018,2006,2052,2046,2047
1997,2015,2024,2018,2013,2047,2040,2043
1993,2009,2017,2027,2010,2047,2032,2030
1988,2003,2007,2036,2015,2032,2043,2034
1996,2011,2011,2052,2040,2037,2046,2044
2013,2034,2018,2062,2038,2051,2053,2041
2014,2036,2020,2055,2027,2057,2039,2051
2020,2031,2011,2051,2021,2061,2068,2058
2020,2025,2004,2059,2044,2074,2071,2062
2021,2019,2009,2073,2080,2086,2064,2062
2011,2029,2014,2074,2085,2091,2069,2067
2009,2031,2014,2076,2112,2070,2076,2076
2015,2038,2031,2080,2119,2065,2070,2072
2023,2045,2038,2078,2123,2082,2070,2078
2024,2044,2047,2087,2100,2081,2058,2085
2017,2045,2053,2100,2061,2081,2065,2076
2014,2035,2040,2078,2017,2071,2048,2064
2004,2020,2026,2051,2097,2066,2041,2060
1998,2008,2020,2043,2229,2089,2033,2057
1994,1990,2013,2039,2232,2127,2042,2068
1999,2003,2048,2054,2188,2144,2066,2081
2017,2044,2082,2067,2146,2140,2056,2077
2024,2060,2080,2048,2073,2100,2043,2078
2019,2052,2073,2011,1937,2038,2016,2076
2012,2046,2085,1993,1804,1971,2029,2070
2015,2056,2100,2009,1786,1962,2026,2071
2012,2047,2095,2033,1904,1988,2021,2069
2010,2035,2084,2036,2032,2011,2018,2065
1995,2024,2058,2023,2086,2013,2032,2067
2005,2025,2066,2028,2096,2004,2033,2075
2013,2042,2079,2056,2109,2026,2044,2082
2023,2055,2092,2078,2146,2070,2064,2080
2025,2061,2096,2076,2154,2104,2074,2075
2024,2063,2089,2069,2150,2121,2076,2070
2023,2057,2082,2061,2118,2105,2063,2063
2009,2040,2057,2032,2075,2088,2051,2059
2005,2031,2054,2019,2065,2090,2051,2061
2016,2040,2051,2020,2077,2096,2060,2059
2017,2040,2056,2021,2073,2081,2058,2061
2017,2041,2053,2019,2070,2069,2046,2072
2021,2047,2063,2018,2050,2062,2057,2066
2023,2055,2076,2029,2056,2063,2055,2068
2026,2066,2094,2045,2078,2079,2054,2074
2024,2062,2086,2049,2083,2051,2037,2080
2022,2055,2073,2051,2070,2006,2024,2075
2016,2046,2064,2048,2071,2016,2036,2074
2020,2051,2066,2050,2080,2040,2031,2079
2020,2058,2070,2054,2080,2055,2034,2080
2023,2047,2065,2051,2081,2056,2022,2082
2021,2045,2066,2052,2078,2055,2041,2091
2021,2047,2060,2043,2021,2050,2035,2088
2018,2039,2057,2028,1965,2037,2041,2087
2014,2038,2054,2019,1951,2031,2045,2096
2020,2051,2059,2027,1944,2043,2064,2091
2015,2048,2059,2034,1959,2049,2065,2092
2021,2044,2061,2042,2016,2059,2067,2090
2014,2038,2063,2047,2036,2059,2060,2095
2014,2037,2058,2041,2047,2066,2046,2093
2005,2023,2028,2036,2104,2069,2054,2086
2005,2016,2027,2064,2155,2074,2057,2084
2002,2009,2039,2074,2146,2069,2064,2082
1999,2011,2048,2079,2120,2081,2079,2072
2008,2015,2050,2081,2112,2093,2070,2077
2002,2022,2045,2083,2102,2098,2090,2071
2003,2027,2044,2080,2097,2102,2076,2070
2003,2014,2039,2075,2116,2093,2046,2075
2002,2015,2033,2091,2176,2095,2062,2067
1998,2001,2017,2083,2153,2057,2040,2060
1993,1998,2014,2076,2100,2041,2029,2050
1990,2008,2023,2070,2082,2040,2038,2048
1987,2007,2019,2057,2079,2049,2024,2046
1983,2010,2015,2042,2044,2055,2024,2040
1996,2025,2027,2026,2010,2071,2029,2052
2001,2025,2022,2023,2008,2105,2034,2055
1998,2024,2014,2012,2011,2106,2043,2066
1998,2025,2001,1997,2027,2050,2040,2070
2006,2038,2014,2016,2065,1972,2033,2085
2011,2048,2022,2032,2106,1985,2043,2088
2014,2049,2026,2025,2098,2053,2064,2075
2013,2041,2027,2021,2103,2072,2061,2086
2011,2041,2035,2025,2067,2061,2051,2085
2013,2042,2043,2015,2032,2057,2038,2093
2016,2046,2054,2014,2060,2076,2041,2096
2006,2043,2054,2018,2082,2086,2026,2092
2010,2056,2090,2036,2099,2096,2057,2103
2028,2081,2120,2050,2118,2113,2069,2110
2032,2082,2121,2056,2113,2116,2067,2108
2033,2072,2115,2055,2123,2116,2060,2098
2020,2058,2102,2058,2138,2116,2069,2093
2012,2050,2095,2068,2144,2131,2045,2088
2006,2045,2083,2053,2001,2111,2038,2085
2013,2047,2088,2063,2046,2094,2044,2084
2016,2058,2090,2070,2054,2058,2026,2081
2018,2058,2088,2064,2066,2014,2042,2078
2016,2053,2078,2040,1989,1988,2028,2071
2004,2052,2084,2024,1919,1999,2043,2066
2006,2057,2082,2017,1901,2030,2043,2065
2005,2045,2068,2009,1966,2074,2072,2059
2007,2047,2070,2044,2097,2126,2042,2067
2009,2045,2061,2050,2133,2141,2037,2062
2001,2046,2053,2055,2144,2131,2052,2066
2011,2052,2063,2053,2142,2119,2054,2064
2006,2050,2058,2040,2116,2120,2034,2053
2006,2051,2054,2033,2079,2109,2056,2055
2003,2051,2053,2015,2015,2050,2045,2061
2005,2050,2055,2013,1976,1979,2019,2068
2015,2061,2062,2030,2021,1939,2046,2087
2027,2063,2071,2060,2102,1939,2056,2094
2023,2058,2068,2077,2142,2004,2056,2085
2027,2050,2064,2083,2137,2034,2047,2083
2022,2045,2052,2060,2099,2032,2040,2085
2013,2035,2053,2050,2075,2027,2041,2076
2007,2036,2055,2049,2077,2032,2048,2075
2013,2033,2058,2042,2077,2038,2045,2081
2004,2025,2050,2047,2086,2035,2045,2086
2003,2009,2040,2042,2079,2032,2008,2072
1994,2011,2046,2042,2077,2016,2028,2074
2002,2025,2052,2053,2074,2035,2031,2091
2011,2043,2052,2062,2049,2044,2044,2091
2024,2053,2052,2076,2062,2051,2051,2093
2019,2052,2042,2076,2083,2061,2051,2092
2022,2047,2046,2078,2105,2061,2066,2096
2025,2051,2042,2088,2130,2069,2055,2093
2028,2048,2034,2086,2119,2066,2066,2097
2026,2044,2038,2085,2078,2059,2074,2096
2015,2042,2035,2088,2064,2054,2080,2088
2019,2038,2041,2086,2059,2046,2057,2084
2015,2034,2036,2071,2036,2036,2056,2070
2008,2029,2034,2056,2014,2029,2044,2064
2009,2025,2033,2038,1999,2018,2035,2061
1996,2020,2028,2024,1987,2028,2044,2058
1994,2004,2003,2001,1934,2025,2048,2055
1992,1992,1992,1981,1875,2005,2058,2061
1999,2007,2023,1992,1903,2008,2045,2059
2005,2026,2067,1997,1915,2010,2052,2063
2022,2049,2100,2007,1949,2019,2035,2064
2023,2059,2098,2005,2019,2026,2048,2066
2028,2057,2079,2023,2110,2026,2042,2069
2028,2048,2075,2034,2156,2033,2038,2072
2020,2047,2080,2046,2135,2034,2056,2077
2022,2048,2064,2036,2102,2037,2064,2074
2013,2044,2056,2057,2154,2066,2072,2076
2026,2042,2056,2078,2204,2116,2077,2078
2024,2046,2056,2076,2213,2125,2076,2091
2023,2044,2067,2078,2203,2125,2040,2088
2018,2042,2063,2080,2195,2120,2073,2088
2018,2053,2069,2096,2221,2123,2085,2086
2016,2040,2065,2086,2225,2115,2059,2083
2005,2034,2061,2076,2182,2102,2066,2079
2017,2038,2062,2057,2074,2092,2053,2095
2024,2040,2059,2031,2016,2064,2055,2091
2023,2034,2041,1999,1948,2026,2067,2086
2016,2030,2037,2006,1976,2011,2035,2078
2018,2028,2034,2029,1965,2000,2047,2076
2017,2033,2032,2026,1942,2004,2048,2069
2018,2025,2036,2038,1981,2012,2038,2066
2015,2021,2048,2059,2032,2034,2050,2064
2008,2013,2041,2062,2051,2038,2049,2065
2008,2012,2040,2051,2046,2044,2049,2057
2010,2022,2044,2047,2048,2038,2059,2068
2015,2021,2035,2046,2087,2053,2072,2068
2016,2035,2057,2069,2141,2060,2068,2055
2018,2039,2077,2074,2155,2062,2052,2051
2015,2044,2085,2066,2177,2068,2050,2050
2016,2034,2089,2075,2222,2084,2071,2061
2021,2046,2091,2079,2224,2091,2083,2072
2031,2053,2084,2077,2204,2081,2078,2070
2022,2039,2068,2062,2159,2079,2074,2071
2020,2041,2063,2045,2036,2050,2068,2071
2026,2042,2056,2026,2017,2049,2076,2060
2022,2041,2047,2011,1968,2022,2077,2070
2028,2044,2039,2003,1878,2020,2074,2067
2021,2036,2033,2019,1982,2043,2063,2068
2020,2029,2025,2012,2037,2055,2070,2074
2018,2024,2023,2004,2032,2064,2080,2068
2011,2025,2040,2008,2038,2056,2057,2076
2020,2039,2038,1996,2039,2058,2069,2078
2021,2043,2036,2009,2026,2056,2067,2086
2033,2042,2040,2007,2016,2056,2059,2086
2027,2036,2043,2013,2003,2049,2057,2074
2017,2034,2040,2010,2010,2045,2053,2071
2016,2030,2038,2021,2017,2050,2063,2085
2028,2029,2035,2035,2066,2059,2062,2082
2022,2034,2034,2050,2077,2057,2063,2077
2015,2031,2027,2042,2084,2064,2077,2084
2009,2025,2023,2039,2076,2080,2053,2075
2007,2027,2018,2042,2076,2086,2052,2073
2015,2027,2017,2036,2096,2082,2061,2065
2020,2036,2020,2033,2091,2089,2052,2064
2025,2035,2018,2029,2087,2109,2079,2067
2022,2032,2014,2025,2077,2104,2068,2064
2013,2028,2011,2020,2042,2084,2066,2057
2011,2027,2008,2013,2016,2049,2069,2057
2007,2024,2011,2025,2011,1999,2025,2061
2020,2027,2017,2032,1991,1993,2049,2062
2021,2024,2004,2028,1970,2004,2035,2039
2002,2001,1981,2014,1984,2017,2015,2037
1997,2003,2004,2035,2023,2045,2056,2059
2013,2027,2039,2061,2068,2071,2047,2070
2022,2040,2057,2057,2078,2086,2082,2068
2025,2047,2067,2065,2089,2102,2081,2069
2034,2045,2057,2067,2130,2105,2078,2075
2026,2045,2057,2063,2171,2105,2060,2074
2024,2048,2051,2057,2141,2098,2063,2072
2028,2040,2041,2047,2097,2090,2058,2074
2023,2040,2041,2049,2098,2084,2060,2066
2025,2035,2051,2045,2048,2049,2044,2076
2016,2040,2052,2027,1993,2020,2026,2061
2013,2032,2052,2020,1996,2023,2034,2057
2012,2038,2054,2031,2034,2024,2057,2072
2016,2042,2059,2044,2047,2020,2047,2086
2034,2051,2070,2050,2055,2042,2060,2078
2029,2043,2065,2048,2046,2050,2062,2080
2024,2043,2070,2050,2067,2069,2052,2074
2026,2050,2068,2041,2043,2086,2050,2070
2022,2053,2072,2044,2064,2106,2068,2079
2031,2056,2072,2067,2075,2104,2055,2085
2035,2059,2077,2069,2024,2089,2061,2081
2032,2059,2080,2059,1969,2063,2037,2086
2036,2057,2078,2048,1994,2027,2042,2083
2035,2054,2063,2047,2050,2022,2047,2074
2031,2042,2057,2039,2071,1993,2046,2064
2027,2035,2047,2059,2111,2004,2046,2058
2020,2030,2049,2065,2100,2029,2054,2053
2021,2024,2043,2060,2070,2047,2061,2054
2022,2027,2040,2048,2050,2043,2050,2055
2024,2022,2046,2043,2042,2045,2048,2047
2030,2034,2062,2047,2050,2049,2043,2045
2017,2026,2069,2047,2041,2051,2047,2047
2023,2032,2079,2053,2050,2065,2073,2056
2030,2046,2080,2066,2065,2074,2065,2052
2026,2041,2067,2068,2046,2083,2071,2052
2034,2038,2062,2074,2043,2084,2073,2054
2032,2035,2056,2067,1980,2053,2052,2053
2023,2033,2048,2037,1902,2014,2043,2051
2024,2034,2050,2032,1921,2003,2007,2054
2021,2041,2055,2040,1955,2004,2042,2065
2029,2039,2055,2057,2058,2007,2043,2063
2027,2038,2064,2058,2155,2012,2055,2066
2023,2045,2065,2060,2201,2036,2087,2075
2041,2059,2075,2062,2184,2061,2076,2081
2048,2069,2071,2047,2128,2058,2058,2082
2042,2061,2060,2034,2082,2040,2047,2073
2032,2048,2047,2025,2048,2032,2047,2069
2025,2032,2031,2005,2023,2013,2036,2067
2018,2023,2031,2006,2028,2016,2041,2068
2032,2037,2035,2022,2061,2023,2044,2080
2033,2038,2035,2040,2059,2028,2054,2082
2038,2039,2044,2062,2077,2037,2041,2087
2044,2039,2046,2061,2076,2043,2051,2079
2031,2037,2046,2058,2086,2052,2060,2076
2031,2039,2041,2065,2128,2058,2052,2070
2023,2031,2034,2062,2126,2061,2053,2068
2030,2033,2027,2060,2141,2059,2034,2062
2026,2028,2030,2063,2165,2065,2064,2062
2037,2035,2032,2062,2208,2070,2060,2064
2033,2033,2031,2066,2215,2079,2064,2050
2028,2030,2032,2083,2164,2087,2046,2056
2032,2030,2038,2071,2030,2071,2038,2047
2030,2030,2046,2053,1970,2061,2046,2035
2022,2012,2045,2052,1991,2063,2047,2030
2021,2010,2043,2034,2001,2057,2053,2042
2026,2025,2044,2032,1992,2065,2043,2046
2033,2024,2038,2040,1998,2061,2053,2045
2033,2025,2052,2039,2002,2040,2045,2053
2032,2022,2051,2045,2004,2024,2031,2046
2031,2023,2045,2060,2034,2032,2033,2050
2029,2031,2053,2063,2045,2057,2036,2052
2029,2034,2053,2054,2094,2073,2031,2045
2027,2032,2043,2045,2086,2064,2045,2042
2025,2028,2041,2043,2044,2065,2035,2052
2030,2022,2035,2021,2027,2064,2035,2050
2027,2024,2024,2005,2023,2036,2023,2053
2024,2027,2029,1982,1964,2010,2023,2061
2029,2037,2034,1995,2085,2038,2038,2070
2041,2046,2045,2014,2148,2054,2029,2065
2041,2047,2050,2020,2088,2047,2048,2075
2041,2046,2052,2008,1938,2020,2055,2074
2050,2058,2053,2007,1863,2012,2050,2074
2044,2057,2051,2023,1871,2005,2053,2077
2049,2050,2037,2020,1892,2002,2018,2068
2039,2041,2021,2023,1969,2027,2044,2065
2039,2034,2013,2035,2030,2016,2062,2076
2045,2032,2018,2042,2031,1996,2040,2057
2038,2022,2010,2042,2012,2002,2024,2052
2033,2024,2017,2067,2079,2028,2035,2055
2040,2033,2026,2073,2130,2052,2055,2060
2047,2036,2025,2066,2130,2067,2073,2054
2044,2041,2035,2074,2122,2073,2058,2060
2042,2043,2030,2069,2103,2081,2056,2061
2047,2038,2039,2056,2121,2088,2058,2056
2046,2049,2050,2051,2130,2084,2059,2057
2040,2042,2053,2048,2114,2078,2055,2049
2040,2035,2052,2036,2088,2077,2080,2049
2053,2047,2054,2038,2097,2089,2090,2051
2051,2048,2056,2050,2158,2082,2094,2051
2049,2042,2060,2058,2172,2078,2095,2056
2041,2037,2068,2068,2171,2077,2096,2056
2042,2041,2079,2081,2192,2090,2101,2061
2048,2045,2103,2111,2190,2106,2097,2059
2059,2055,2117,2125,2181,2103,2078,2066
2057,2059,2106,2128,2148,2122,2088,2067
2047,2052,2083,2093,1926,2091,2082,2060
2048,2042,2075,2065,1827,2050,2073,2065
2051,2052,2076,2081,1911,2036,2059,2062
2054,2050,2073,2088,1976,2034,2047,2053
2051,2052,2060,2084,2012,2014,2045,2053
2037,2041,2056,2075,2033,2003,2026,2059
2037,2034,2044,2066,2070,2012,2015,2058
2036,2030,2036,2062,2072,2033,2036,2066
2044,2045,2036,2044,2040,2051,2051,2068
2045,2037,2022,2017,2036,2057,2064,2076
2047,2034,2009,1994,2009,2057,2062,2079
2050,2025,2002,1970,1991,2055,2057,2085
2051,2029,2011,1976,1988,2056,2045,2094
2063,2046,2037,1994,1977,2051,2048,2084
2068,2051,2059,2011,1968,2044,2046,2074
2053,2060,2064,2039,2040,2057,2048,2066
2045,2048,2055,2058,2086,2052,2056,2051
2032,2030,2032,2055,2084,2039,2043,2046
2029,2026,2021,2050,2072,2042,2049,2042
2028,2015,2017,2049,2110,2053,2060,2045
2025,2016,2013,2051,2136,2063,2054,2039
2025,2008,2013,2056,2095,2062,2072,2038
2034,2007,2005,2044,2023,2047,2048,2033
2024,2000,2005,2035,1973,2041,2041,2038
2034,2017,2019,2024,1958,2043,2020,2040
2037,2021,2009,2019,1982,2038,2032,2044
2038,2022,2012,2019,2001,2053,2023,2046
2051,2025,2020,2021,2016,2079,2046,2051
2054,2035,2027,2016,2053,2088,2054,2047
2054,2034,2026,2013,2113,2088,2037,2052
2054,2029,2023,2012,2148,2090,2059,2050
2045,2028,2023,2021,2178,2071,2037,2068
2055,2032,2037,2046,2181,2049,2039,2069
2057,2041,2049,2057,2166,2049,2050,2070
2052,2041,2050,2064,2140,2058,2065,2069
2051,2046,2046,2060,2097,2038,2046,2068
