CH1,CH2,CH3,CH4,CH5,CH6,CH7,CH8
2042,2037,2026,2051,2069,2062,2057,2071
2042,2043,2035,2056,2069,2070,2056,2066
2045,2047,2034,2056,2065,2070,2064,2062
2044,2047,2035,2053,2062,2061,2049,2059
2050,2043,2040,2062,2054,2053,2051,2053
2041,2044,2047,2062,2050,2044,2040,2050
2047,2048,2058,2067,2040,2041,2053,2054
2047,2057,2073,2070,2054,2042,2042,2052
2056,2062,2079,2068,2049,2046,2036,2041
2057,2065,2076,2063,2042,2041,2036,2048
2058,2062,2074,2061,2036,2039,2037,2036
2048,2047,2055,2049,2026,2030,2031,2029
2043,2034,2048,2040,2022,2030,2040,2024
2045,2041,2051,2033,2021,2045,2039,2024
2041,2042,2051,2038,2018,2046,2030,2035
2048,2052,2065,2041,2010,2049,2044,2038
2050,2057,2072,2038,2014,2039,2040,2043
2053,2056,2073,2042,2003,2042,2042,2053
2061,2066,2079,2051,2020,2047,2043,2057
2060,2058,2077,2059,2071,2052,2054,2067
2060,2057,2072,2063,2076,2067,2035,2068
2059,2053,2067,2067,2070,2074,2065,2067
2055,2050,2060,2068,2049,2072,2059,2076
2055,2055,2066,2062,2044,2068,2060,2077
2055,2053,2060,2061,2044,2071,2049,2069
2057,2049,2057,2049,2031,2068,2060,2070
2051,2048,2046,2025,1999,2056,2056,2066
2047,2039,2037,2030,2007,2049,2049,2062
2042,2030,2032,2028,1991,2040,2037,2063
2042,2042,2044,2033,2002,2027,2044,2067
2048,2051,2056,2045,2046,2027,2062,2077
2044,2051,2071,2065,2077,2047,2061,2076
2051,2050,2071,2070,2106,2066,2054,2074
2058,2060,2069,2072,2112,2078,2064,2074
2056,2056,2065,2068,2104,2062,2048,2068
2043,2058,2064,2066,2093,2030,2038,2055
2045,2057,2062,2064,2080,2029,2031,2052
2044,2056,2056,2061,2071,2039,2053,2052
2043,2045,2053,2067,2072,2037,2058,2045
2042,2042,2050,2069,2073,2033,2040,2038
2041,2041,2047,2066,2071,2028,2035,2036
2043,2052,2056,2062,2030,2035,2039,2031
2051,2060,2065,2052,1994,2037,2032,2025
2049,2062,2053,2048,2003,2030,2037,2012
2041,2039,2046,2046,2030,2035,2039,2016
2043,2051,2047,2053,2048,2040,2060,2024
2045,2049,2049,2051,2036,2029,2063,2021
2043,2042,2042,2045,2003,2020,2060,2030
2045,2046,2038,2040,2003,2018,2049,2033
2046,2051,2040,2027,2012,2019,2050,2035
2043,2051,2033,2018,2051,2038,2038,2039
2046,2049,2038,2034,2112,2064,2056,2049
2050,2046,2044,2057,2151,2084,2083,2059
2054,2054,2044,2072,2177,2105,2091,2058
2055,2046,2049,2076,2177,2105,2084,2061
2055,2041,2043,2072,2152,2096,2058,2056
2047,2037,2043,2063,2111,2076,2056,2060
2044,2045,2038,2058,2067,2058,2061,2061
2045,2044,2028,2050,1958,2041,2045,2060
2049,2031,2024,2036,1927,2034,2046,2053
2037,2026,2018,2040,1973,2039,2047,2056
2044,2029,2024,2049,2022,2050,2038,2061
2047,2034,2035,2050,2056,2052,2067,2061
2054,2036,2043,2051,2050,2056,2060,2057
2052,2035,2048,2044,2018,2059,2056,2050
2052,2040,2047,2037,1991,2049,2060,2051
2042,2038,2049,2041,1988,2046,2052,2042
2036,2038,2059,2044,1983,2048,2047,2033
2034,2039,2063,2051,1993,2023,2054,2041
2042,2049,2074,2072,2030,2002,2057,2043
2046,2058,2080,2086,2058,2022,2047,2042
2054,2052,2076,2088,2074,2057,2066,2038
2052,2047,2072,2085,2066,2070,2069,2030
2049,2045,2067,2080,2066,2063,2058,2027
2044,2039,2067,2076,2063,2056,2077,2017
2045,2037,2063,2064,2058,2046,2053,2009
2036,2033,2057,2063,2033,2041,2060,2007
2035,2040,2055,2064,2047,2048,2050,2021
2037,2046,2055,2066,2049,2053,2027,2021
2040,2042,2042,2056,2038,2044,2050,2024
2035,2040,2040,2039,2045,2045,2057,2033
2040,2036,2037,2034,2055,2050,2051,2040
2042,2043,2049,2042,2066,2052,2046,2043
2041,2046,2047,2046,2077,2052,2073,2058
2045,2041,2039,2049,2067,2052,2060,2058
2045,2039,2040,2049,2067,2059,2049,2060
2042,2037,2040,2052,2058,2062,2062,2063
2050,2037,2048,2060,2068,2064,2063,2062
2056,2044,2055,2070,2060,2068,2050,2066
2048,2042,2054,2077,2064,2059,2053,2069
2045,2040,2057,2077,2050,2060,2052,2068
2047,2037,2049,2069,2044,2061,2028,2071
2034,2032,2046,2073,2046,2057,2032,2071
2041,2034,2051,2069,2045,2074,2065,2088
2051,2054,2057,2076,2051,2083,2076,2078
2047,2054,2056,2072,2050,2077,2052,2080
2051,2051,2048,2075,2056,2074,2045,2073
2046,2053,2041,2073,2051,2037,2041,2064
2040,2041,2033,2067,2045,2017,2034,2061
2042,2041,2025,2055,2048,2026,2049,2056
2038,2040,2018,2035,2043,2031,2044,2050
2039,2031,2011,2021,2046,2039,2056,2051
2041,2034,2010,2004,2050,2040,2064,2040
2040,2039,2024,2015,2051,2038,2054,2041
2041,2051,2051,2017,2045,2035,2049,2035
2050,2063,2062,2024,2050,2045,2033,2026
2050,2064,2066,2030,2057,2050,2043,2029
2049,2062,2074,2044,2056,2062,2058,2013
2034,2047,2061,2044,2061,2060,2050,2016
2027,2045,2057,2056,2053,2054,2061,2022
2034,2049,2066,2064,2054,2031,2048,2014
2034,2042,2065,2068,2046,2019,2035,2017
2032,2043,2066,2068,2051,2022,2036,2026
2039,2045,2065,2071,2054,2030,2033,2037
2040,2044,2064,2076,2054,2031,2030,2041
2042,2046,2062,2079,2040,2032,2010,2042
2038,2040,2056,2072,2046,2035,2043,2048
2037,2036,2054,2075,2043,2037,2056,2054
2037,2035,2041,2071,2040,2041,2060,2056
2040,2039,2036,2070,2045,2040,2065,2056
2038,2041,2044,2066,2046,2039,2080,2053
2044,2046,2041,2056,2046,2040,2081,2065
2039,2045,2027,2042,2046,2041,2087,2064
2038,2043,2027,2035,2052,2043,2059,2066
2042,2048,2020,2024,2054,2047,2056,2065
2038,2041,2025,2028,2050,2048,2076,2067
2036,2046,2026,2019,2055,2054,2086,2074
2053,2064,2028,2013,2054,2052,2077,2071
2049,2063,2023,2006,2049,2049,2072,2069
2049,2057,2028,2006,2042,2047,2073,2064
2045,2052,2029,2004,2032,2046,2077,2065
2047,2057,2031,2020,2016,2042,2056,2066
2038,2051,2017,2021,2018,2031,2057,2059
2038,2049,2027,2027,2037,2043,2071,2053
2039,2057,2036,2046,2052,2046,2071,2049
2046,2061,2040,2045,2053,2051,2072,2043
2046,2058,2047,2049,2053,2050,2083,2038
2044,2053,2044,2050,2053,2051,2082,2037
2044,2053,2048,2052,2051,2044,2056,2037
2041,2053,2052,2053,2068,2043,2046,2035
2040,2051,2058,2055,2059,2049,2050,2026
2034,2041,2052,2047,2045,2038,2058,2017
2030,2041,2048,2043,2040,2039,2059,2022
2036,2055,2054,2047,2036,2040,2060,2026
2034,2052,2053,2047,2038,2040,2048,2028
2042,2047,2049,2041,2038,2039,2048,2035
2046,2050,2050,2051,2037,2044,2072,2043
2040,2050,2049,2051,2042,2049,2068,2049
2047,2048,2046,2052,2046,2044,2062,2049
2049,2047,2041,2049,2043,2045,2075,2055
2045,2043,2039,2050,2038,2041,2072,2054
2044,2045,2041,2054,2042,2049,2073,2058
2039,2045,2049,2054,2053,2051,2044,2060
2039,2051,2054,2056,2052,2043,2068,2071
2042,2044,2063,2058,2050,2042,2064,2073
2044,2044,2058,2058,2056,2042,2082,2080
2049,2049,2047,2061,2057,2044,2074,2072
2043,2037,2047,2049,2055,2040,2065,2065
2030,2026,2041,2045,2047,2039,2060,2075
2036,2037,2039,2054,2050,2046,2054,2068
2041,2042,2048,2048,2049,2051,2047,2073
2036,2039,2048,2048,2048,2054,2052,2077
2040,2043,2050,2049,2044,2060,2063,2064
2040,2041,2045,2051,2044,2066,2054,2060
2038,2038,2044,2052,2051,2080,2041,2058
2041,2045,2043,2049,2051,2082,2042,2055
2039,2040,2039,2050,2051,2084,2039,2042
2035,2038,2041,2044,2047,2073,2035,2035
2028,2038,2038,2041,2049,2037,2040,2033
2041,2034,2037,2045,2056,2022,2048,2036
2037,2039,2043,2046,2053,2034,2047,2024
2034,2044,2040,2049,2049,2048,2052,2022
2036,2049,2048,2041,2053,2054,2044,2022
2040,2055,2053,2048,2047,2041,2052,2011
2027,2042,2042,2043,2046,2043,2041,2014
2033,2034,2042,2048,2044,2050,2061,2019
2041,2053,2051,2051,2050,2047,2040,2025
2044,2055,2052,2047,2040,2048,2053,2027
2038,2053,2053,2048,2041,2048,2051,2042
2039,2056,2052,2051,2038,2044,2050,2045
2046,2057,2055,2048,2028,2033,2049,2054
2050,2053,2049,2043,2006,2020,2039,2058
2051,2052,2040,2041,2007,2013,2037,2057
2045,2044,2031,2035,2002,2009,2039,2058
2039,2042,2027,2023,2008,2020,2021,2061
2030,2041,2024,2025,2024,2037,2021,2066
2038,2046,2033,2044,2048,2054,2024,2068
2043,2047,2049,2051,2055,2051,2018,2069
2046,2053,2051,2051,2058,2054,2033,2074
2049,2054,2057,2056,2056,2067,2052,2072
2050,2043,2048,2045,2050,2062,2039,2072
2045,2042,2037,2044,2051,2064,2040,2074
2042,2052,2044,2049,2060,2071,2044,2069
2049,2049,2048,2051,2058,2069,2050,2066
2045,2051,2044,2044,2053,2049,2045,2062
2046,2049,2039,2043,2046,2044,2048,2060
2049,2048,2044,2043,2049,2044,2040,2059
2040,2047,2041,2045,2047,2052,2051,2054
2044,2050,2048,2040,2040,2044,2043,2044
2044,2047,2047,2039,2045,2044,2032,2042
2040,2052,2047,2045,2056,2041,2055,2041
2046,2055,2053,2050,2056,2032,2038,2041
2040,2056,2048,2043,2055,2039,2060,2037
2042,2047,2042,2042,2050,2052,2043,2029
2040,2044,2042,2044,2056,2058,2053,2026
2040,2039,2045,2037,2045,2050,2044,2023
2037,2039,2043,2035,2040,2040,2037,2011
2030,2034,2038,2034,2039,2047,2021,2014
2030,2033,2041,2035,2043,2049,2044,2019
2040,2054,2051,2040,2046,2044,2051,2030
2048,2056,2053,2038,2039,2044,2047,2031
2053,2058,2057,2041,2045,2045,2061,2036
2055,2059,2055,2044,2040,2042,2062,2043
2060,2069,2052,2044,2044,2037,2063,2047
2058,2067,2049,2043,2038,2029,2051,2050
2057,2061,2052,2042,2036,2035,2052,2055
2057,2058,2052,2045,2032,2041,2060,2054
2052,2053,2049,2046,2035,2043,2052,2057
2050,2053,2049,2042,2042,2043,2065,2063
2053,2050,2048,2038,2040,2045,2054,2070
2056,2051,2055,2042,2043,2049,2048,2072
2060,2054,2051,2045,2041,2051,2066,2076
2060,2061,2045,2042,2042,2050,2058,2071
2049,2054,2037,2033,2033,2047,2070,2064
2038,2038,2038,2035,2028,2053,2075,2061
2037,2037,2036,2035,2038,2060,2079,2073
2047,2043,2037,2033,2044,2059,2069,2081
2051,2048,2043,2035,2049,2062,2048,2077
2056,2047,2038,2036,2045,2060,2050,2074
2052,2052,2038,2028,2043,2064,2054,2075
2051,2051,2032,2032,2050,2063,2070,2066
2053,2055,2034,2041,2052,2066,2060,2063
2052,2056,2032,2038,2056,2068,2066,2062
2043,2051,2033,2042,2054,2063,2046,2048
2044,2043,2029,2034,2047,2065,2048,2038
2048,2043,2030,2030,2047,2061,2060,2037
2047,2047,2038,2038,2057,2060,2045,2028
2038,2046,2041,2040,2045,2052,2049,2026
2036,2049,2042,2042,2045,2052,2057,2021
2039,2050,2046,2042,2044,2051,2059,2020
2030,2047,2042,2030,2042,2039,2031,2022
2036,2041,2038,2035,2034,2034,2036,2018
2042,2053,2042,2043,2037,2043,2055,2025
2046,2060,2040,2043,2044,2044,2052,2024
2046,2055,2043,2048,2035,2034,2031,2031
2047,2052,2046,2047,2024,2030,2038,2035
2048,2048,2053,2042,2036,2024,2031,2032
2046,2042,2046,2049,2038,2035,2044,2042
2052,2047,2048,2043,2036,2029,2044,2051
2052,2045,2049,2043,2042,2041,2048,2055
2043,2046,2048,2043,2043,2040,2042,2056
2047,2044,2046,2044,2041,2042,2048,2053
2047,2047,2045,2040,2040,2046,2045,2055
2045,2048,2042,2041,2045,2054,2046,2054
2038,2045,2042,2045,2048,2065,2037,2059
2042,2043,2038,2045,2049,2063,2049,2070
2044,2041,2041,2041,2051,2056,2039,2065
2040,2036,2026,2032,2037,2056,2026,2061
2032,2031,2023,2026,2046,2057,2038,2062
2037,2045,2034,2036,2051,2061,2038,2066
2050,2045,2034,2036,2043,2061,2019,2062
2047,2049,2040,2039,2055,2060,2037,2064
2053,2046,2034,2040,2055,2056,2034,2066
2049,2053,2040,2037,2055,2052,2030,2070
2051,2052,2041,2034,2058,2048,2031,2057
2050,2055,2041,2035,2052,2042,2057,2057
2045,2053,2037,2039,2051,2041,2058,2043
2042,2048,2037,2036,2046,2040,2057,2038
2048,2046,2044,2041,2048,2044,2036,2029
2047,2044,2056,2046,2049,2049,2022,2021
2043,2042,2054,2042,2048,2049,2033,2016
2041,2038,2053,2042,2050,2050,2043,2012
2045,2048,2054,2041,2047,2054,2042,2013
2051,2050,2053,2036,2042,2050,2026,2011
2048,2043,2048,2033,2038,2050,2040,2013
2049,2052,2056,2036,2042,2058,2063,2016
2050,2057,2052,2036,2044,2068,2057,2024
2056,2055,2050,2030,2037,2070,2044,2028
2053,2052,2052,2034,2034,2069,2052,2024
2053,2048,2049,2037,2043,2069,2061,2038
2048,2048,2048,2042,2038,2073,2057,2045
2052,2052,2051,2038,2045,2076,2046,2052
2059,2060,2047,2043,2045,2078,2051,2050
2066,2057,2052,2042,2049,2072,2055,2059
2060,2058,2054,2043,2048,2073,2057,2060
2060,2050,2053,2041,2051,2071,2038,2061
2059,2053,2051,2042,2046,2065,2024,2054
2058,2054,2049,2038,2042,2059,2031,2052
2054,2045,2049,2033,2039,2057,2061,2050
2054,2050,2048,2039,2042,2054,2032,2052
2042,2044,2042,2032,2039,2040,2043,2057
2038,2037,2037,2032,2034,2039,2034,2054
2049,2051,2044,2036,2046,2053,2048,2061
2048,2055,2052,2042,2058,2048,2054,2054
2059,2053,2047,2037,2048,2043,2057,2056
2056,2058,2051,2038,2045,2041,2051,2052
2056,2056,2049,2037,2041,2044,2038,2047
2054,2051,2048,2036,2044,2046,2025,2041
2052,2049,2047,2035,2038,2041,2041,2037
2050,2046,2048,2031,2038,2042,2053,2036
2044,2047,2050,2035,2036,2051,2041,2033
2047,2051,2045,2033,2033,2049,2053,2029
2043,2048,2049,2031,2044,2055,2061,2028
2049,2052,2050,2034,2040,2054,2045,2008
2050,2050,2049,2034,2035,2046,2026,2009
2052,2052,2046,2034,2039,2052,2040,2010
2051,2047,2050,2030,2038,2043,2023,2004
2049,2034,2034,2023,2030,2035,2026,2005
2046,2040,2042,2024,2030,2036,2030,2011
2048,2052,2049,2029,2030,2038,2042,2012
2050,2047,2043,2031,2037,2037,2044,2020
2054,2053,2050,2030,2049,2037,2053,2019
2055,2052,2042,2033,2051,2040,2059,2026
2052,2051,2045,2032,2054,2042,2052,2038
2057,2059,2048,2038,2047,2040,2049,2045
2059,2053,2041,2034,2045,2037,2037,2042
2053,2053,2043,2036,2043,2040,2039,2044
2052,2049,2038,2034,2043,2041,2055,2044
2054,2047,2039,2034,2045,2042,2032,2050
2048,2046,2038,2029,2043,2043,2040,2056
2041,2045,2039,2031,2040,2045,2017,2046
2052,2045,2038,2031,2039,2044,2027,2054
2046,2040,2039,2031,2043,2044,2041,2056
2046,2044,2038,2028,2039,2044,2027,2048
2042,2032,2031,2031,2041,2047,2021,2057
2048,2033,2032,2031,2043,2054,2052,2061
2055,2044,2040,2037,2046,2049,2061,2058
2058,2040,2036,2040,2049,2057,2068,2053
2055,2042,2040,2037,2052,2062,2050,2062
2055,2038,2044,2039,2052,2067,2062,2052
2052,2046,2036,2039,2051,2069,2059,2058
2055,2045,2041,2040,2057,2081,2052,2056
2056,2045,2040,2037,2061,2101,2049,2043
2057,2049,2040,2031,2055,2125,2058,2039
2051,2044,2039,2030,2044,2140,2039,2030
2051,2043,2037,2024,2039,2137,2065,2021
2048,2044,2034,2025,2040,2129,2070,2024
2051,2050,2039,2029,2042,2084,2072,2024
2054,2047,2043,2038,2052,2038,2072,2031
2064,2054,2051,2048,2068,2027,2064,2026
2055,2047,2041,2042,2045,2020,2056,2017
2044,2038,2047,2036,2043,2015,2035,1996
2043,2049,2050,2045,2047,2027,2039,2009
2050,2051,2055,2042,2045,2027,2029,2011
2046,2050,2047,2039,2033,2019,2029,2017
2047,2051,2047,2039,2036,2028,2038,2022
2052,2047,2042,2042,2041,2040,2037,2032
2047,2052,2046,2040,2030,2044,2037,2033
2048,2053,2044,2046,2038,2047,2021,2036
2052,2051,2046,2044,2038,2059,2027,2041
2052,2053,2043,2038,2035,2059,2026,2042
2056,2053,2048,2036,2028,2050,2025,2046
2054,2056,2046,2039,2043,2059,2046,2056
2054,2056,2051,2044,2031,2052,2054,2055
2054,2053,2047,2044,2036,2032,2030,2046
2049,2054,2045,2047,2039,2028,2030,2056
2046,2057,2049,2050,2051,2030,2036,2052
2042,2040,2043,2036,2045,2022,2029,2046
2038,2032,2041,2030,2049,2027,2032,2055
2049,2054,2047,2045,2061,2041,2027,2060
2054,2053,2048,2039,2062,2036,2020,2055
2051,2052,2052,2045,2059,2035,2048,2056
2049,2057,2051,2048,2065,2038,2051,2055
2052,2060,2056,2048,2064,2043,2043,2055
2049,2059,2050,2042,2055,2048,2042,2051
2051,2052,2049,2041,2041,2047,2045,2046
2049,2052,2046,2040,2026,2054,2065,2039
2047,2050,2046,2038,2038,2067,2081,2031
2050,2047,2040,2034,2039,2076,2082,2032
2045,2054,2037,2041,2056,2081,2073,2031
2044,2053,2040,2040,2049,2081,2079,2032
2045,2050,2043,2042,2046,2084,2082,2028
2048,2051,2045,2045,2046,2090,2084,2021
2048,2049,2049,2044,2045,2060,2054,2016
2040,2040,2034,2041,2036,2013,2049,2013
2043,2040,2038,2037,2038,2001,2058,2011
2051,2054,2044,2047,2041,2017,2047,2016
2053,2046,2049,2042,2038,2033,2039,2019
2056,2052,2047,2042,2045,2038,2047,2029
2057,2050,2044,2044,2039,2038,2050,2028
2058,2050,2042,2047,2038,2039,2054,2037
2054,2055,2044,2047,2041,2038,2052,2041
2055,2054,2040,2047,2039,2039,2029,2046
2057,2052,2038,2045,2043,2040,2028,2049
2055,2052,2044,2046,2040,2037,2059,2046
2057,2050,2042,2045,2038,2038,2065,2046
2048,2048,2041,2045,2040,2047,2051,2046
2051,2047,2038,2043,2038,2051,2058,2043
2043,2052,2034,2043,2041,2044,2019,2052
2042,2050,2040,2046,2032,2042,2013,2054
2049,2042,2032,2038,2026,2028,2037,2053
2047,2039,2031,2041,2034,2035,2049,2064
2052,2049,2037,2055,2045,2054,2069,2067
2061,2053,2043,2056,2053,2055,2063,2062
2059,2048,2043,2050,2056,2054,2055,2059
2049,2047,2038,2052,2056,2059,2060,2058
2056,2053,2030,2051,2056,2056,2047,2055
2054,2050,2038,2049,2064,2054,2047,2045
2050,2047,2038,2050,2060,2048,2072,2049
2053,2045,2036,2051,2050,2042,2069,2042
2057,2051,2039,2049,2052,2042,2061,2036
2049,2056,2031,2046,2047,2042,2063,2026
2049,2049,2041,2054,2050,2047,2055,2020
2047,2054,2037,2050,2045,2051,2063,2011
2044,2048,2036,2047,2040,2043,2059,2012
2047,2044,2030,2044,2037,2039,2050,2003
2043,2043,2029,2041,2033,2034,2036,1994
2031,2034,2022,2032,2027,2039,2027,2000
2037,2032,2031,2037,2034,2051,2043,2005
2043,2044,2033,2046,2034,2041,2050,2007
2049,2044,2033,2042,2032,2033,2048,2013
2049,2045,2034,2040,2033,2051,2062,2016
2044,2049,2038,2044,2041,2060,2060,2017
2051,2050,2033,2043,2040,2059,2059,2025
2051,2050,2037,2050,2037,2060,2059,2029
2056,2046,2042,2045,2045,2063,2066,2040
2060,2051,2041,2041,2048,2062,2060,2048
2058,2053,2038,2044,2048,2062,2057,2053
2061,2049,2042,2047,2040,2054,2057,2050
2061,2053,2048,2047,2036,2043,2048,2057
2058,2054,2049,2051,2041,2050,2053,2060
2054,2058,2049,2052,2047,2051,2059,2053
2057,2052,2052,2052,2040,2045,2049,2052
2049,2044,2039,2046,2044,2043,2027,2045
2039,2034,2039,2036,2031,2044,2038,2054
2047,2044,2045,2037,2035,2052,2042,2063
2047,2051,2043,2040,2038,2049,2046,2062
2050,2054,2049,2043,2037,2046,2045,2064
2058,2062,2045,2048,2043,2053,2040,2066
2063,2070,2053,2056,2048,2055,2057,2064
2063,2064,2053,2052,2043,2061,2053,2054
2060,2069,2050,2046,2051,2058,2061,2053
2057,2066,2052,2046,2042,2062,2066,2050
2056,2061,2049,2050,2048,2068,2051,2045
2051,2061,2051,2051,2048,2060,2059,2041
2052,2057,2049,2047,2047,2048,2045,2033
2052,2057,2049,2049,2044,2050,2043,2021
2044,2056,2051,2050,2046,2051,2041,2015
2043,2047,2041,2047,2042,2052,2037,2019
2044,2045,2033,2037,2043,2050,2038,2006
2037,2027,2030,2032,2032,2048,2024,2007
2042,2039,2034,2034,2044,2048,2069,2015
2040,2044,2041,2036,2040,2052,2047,2014
2049,2046,2040,2042,2037,2058,2043,2013
2046,2042,2039,2045,2040,2054,2041,2023
2049,2047,2043,2047,2038,2048,2058,2018
2049,2048,2040,2049,2037,2029,2042,2032
2051,2042,2034,2044,2039,2016,2046,2045
2052,2044,2037,2047,2042,2019,2035,2053
2051,2051,2033,2051,2045,2054,2029,2054
2052,2047,2038,2051,2054,2077,2058,2060
2057,2044,2041,2050,2047,2085,2060,2059
2054,2051,2039,2049,2048,2090,2032,2055
2055,2054,2036,2046,2052,2089,2050,2068
2054,2052,2039,2050,2054,2092,2051,2069
2055,2050,2035,2050,2055,2096,2034,2074
2052,2035,2029,2043,2054,2105,2021,2076
2046,2033,2036,2046,2062,2100,2040,2075
2055,2050,2044,2052,2057,2086,2030,2072
2059,2055,2041,2045,2047,2050,2026,2064
2051,2042,2037,2040,2051,2032,2045,2057
2045,2041,2036,2036,2048,2022,2051,2046
2045,2038,2033,2043,2046,2013,2047,2043
2043,2036,2038,2040,2053,2013,2062,2038
2042,2031,2039,2047,2057,2026,2059,2035
2046,2030,2041,2051,2068,2026,2053,2029
2050,2036,2043,2051,2054,2019,2036,2014
2051,2036,2042,2056,2043,2014,2026,2011
2042,2045,2045,2050,2037,1998,2038,2005
2051,2050,2046,2045,2030,2007,2034,2009
2051,2054,2040,2038,2024,2018,2030,2007
2049,2049,2038,2032,2003,2025,2042,2003
2044,2041,2021,2018,1945,2005,2034,2006
2041,2036,2021,2011,1911,2000,2027,2011
2052,2054,2033,2013,1900,2000,2022,2008
2052,2046,2025,2007,1898,1970,2011,2009
2047,2038,2015,2005,1939,1969,2030,2015
2053,2048,2038,2047,2050,2014,2064,2046
2065,2062,2049,2074,2111,2051,2065,2061
2083,2068,2052,2080,2127,2077,2064,2062
2081,2066,2050,2079,2121,2081,2058,2060
2069,2063,2044,2064,2083,2059,2056,2056
2065,2052,2037,2056,2059,2047,2058,2052
2054,2052,2039,2051,2054,2039,2041,2048
2051,2050,2042,2047,2054,2038,2046,2045
2046,2053,2042,2055,2041,2037,2036,2050
2049,2050,2046,2056,2046,2042,2041,2060
2052,2056,2050,2056,2053,2039,2033,2060
2042,2043,2042,2049,2047,2042,2051,2054
2046,2044,2033,2052,2048,2043,2058,2070
2049,2055,2049,2053,2052,2052,2062,2071
2055,2055,2050,2059,2054,2058,2079,2071
2054,2059,2047,2058,2052,2059,2084,2060
2048,2061,2050,2053,2055,2051,2074,2060
2050,2061,2053,2054,2046,2044,2078,2052
2054,2059,2049,2051,2050,2043,2058,2044
2052,2052,2051,2049,2062,2042,2055,2040
2050,2052,2046,2059,2068,2043,2049,2036
2054,2056,2051,2053,2060,2041,2057,2031
2057,2055,2050,2047,2066,2047,2064,2029
2055,2046,2042,2046,2060,2039,2060,2021
2048,2046,2040,2052,2060,2049,2077,2010
2047,2054,2045,2060,2069,2059,2070,2007
2052,2054,2046,2060,2064,2051,2048,2005
2047,2046,2043,2051,2056,2037,2070,2004
2046,2044,2044,2054,2061,2051,2065,2018
2058,2060,2055,2063,2064,2072,2077,2020
2054,2051,2056,2057,2060,2094,2061,2020
2051,2053,2050,2058,2054,2082,2071,2023
2053,2053,2051,2056,2052,2065,2061,2019
2057,2050,2044,2061,2057,2053,2069,2032
2059,2052,2050,2061,2060,2059,2058,2041
2064,2057,2050,2062,2062,2061,2066,2035
2055,2054,2051,2064,2065,2053,2021,2036
2051,2054,2044,2063,2062,2054,2012,2033
2049,2049,2040,2057,2047,2055,2044,2034
2050,2042,2042,2053,2038,2041,2023,2031
2050,2046,2039,2055,2032,2030,2023,2031
2051,2049,2040,2048,2037,2032,2020,2040
2052,2050,2046,2057,2037,2044,2048,2039
2048,2045,2045,2053,2037,2040,2040,2037
2046,2049,2045,2053,2032,2038,2044,2040
2057,2055,2055,2054,2037,2029,2043,2043
2060,2058,2053,2060,2044,2016,2036,2036
2057,2055,2054,2053,2037,2008,2028,2044
2048,2052,2052,2056,2041,2020,2022,2039
2056,2051,2051,2058,2053,2026,2044,2041
2050,2050,2046,2056,2055,2027,2045,2035
2050,2049,2045,2056,2051,2031,2070,2020
2044,2051,2040,2053,2046,2048,2066,2012
2049,2046,2042,2047,2047,2060,2069,2021
2052,2046,2038,2053,2050,2074,2071,2017
2054,2050,2036,2053,2050,2084,2080,2016
2057,2053,2038,2055,2078,2098,2083,2015
2055,2050,2040,2054,2090,2086,2090,2011
2050,2046,2038,2050,2094,2034,2064,2002
2054,2042,2031,2041,2073,2013,2050,1988
2043,2033,2021,2032,2065,2027,2043,1982
2038,2032,2019,2038,2061,2053,2045,1986
2053,2044,2021,2033,2057,2073,2016,1997
2055,2053,2027,2040,2046,2077,2014,2003
2064,2057,2042,2043,2030,2075,2040,2008
2069,2056,2040,2048,2004,2061,2052,2013
2064,2059,2044,2039,1909,2016,2029,2018
2064,2062,2049,2038,1890,2007,2036,2012
2064,2064,2051,2043,1972,2024,2049,2032
2067,2064,2048,2052,2034,2051,2050,2034
2063,2061,2049,2051,2057,2067,2071,2051
2064,2062,2052,2056,2045,2067,2074,2047
2061,2059,2050,2062,2017,2058,2075,2045
2058,2050,2046,2057,2007,2057,2070,2042
2054,2043,2044,2058,2032,2053,2060,2039
2046,2046,2046,2050,2033,2039,2054,2027
2033,2028,2034,2028,1973,2009,2009,2012
2029,2027,2030,2028,1981,2007,2033,2021
2042,2042,2057,2043,1996,1992,2020,2023
2047,2050,2060,2050,2010,1975,2034,2023
2050,2051,2059,2053,2038,2000,2030,2028
2049,2042,2052,2054,2059,2017,2061,2030
2051,2047,2051,2063,2068,2032,2067,2024
2048,2053,2053,2066,2081,2041,2069,2016
2051,2047,2047,2065,2094,2045,2059,2009
2053,2045,2042,2067,2097,2050,2075,2009
2050,2048,2047,2072,2085,2065,2084,2006
2045,2048,2041,2057,2053,2082,2072,2002
2046,2045,2040,2045,2025,2082,2080,1994
2051,2042,2035,2032,1985,2075,2078,1992
2048,2040,2030,2021,1939,2047,2068,1996
2046,2034,2029,2025,1965,1996,2078,1995
2037,2024,2023,2025,2005,1987,2069,1995
2035,2020,2019,2026,2025,2002,2059,1994
2044,2036,2030,2034,2029,2027,2059,1997
2051,2044,2045,2044,2023,2040,2056,2007
2058,2054,2038,2050,2031,2053,2079,2013
2061,2054,2044,2047,2032,2062,2067,2016
2060,2048,2042,2048,2031,2061,2078,2017
2049,2038,2036,2044,2044,2060,2068,2022
2049,2029,2038,2046,2053,2048,2044,2023
2048,2038,2037,2057,2071,2014,2037,2039
2058,2047,2054,2066,2086,1996,2060,2042
2064,2052,2062,2068,2087,2011,2044,2037
2059,2050,2063,2074,2138,2041,2058,2046
2054,2046,2056,2077,2147,2041,2052,2041
2044,2043,2058,2078,2127,2053,2054,2050
2053,2048,2061,2084,2106,2043,2046,2036
2049,2041,2054,2080,2080,2018,2035,2034
2051,2037,2050,2072,2071,2023,2039,2041
2054,2045,2056,2073,2062,2046,2048,2033
2052,2043,2047,2056,2079,2065,2027,2034
2049,2039,2048,2038,2065,2097,2037,2026
2048,2043,2045,2026,1995,2098,2029,2030
2053,2047,2055,2041,2035,2096,2034,2025
2056,2048,2063,2066,2105,2028,2047,2027
2063,2054,2060,2081,2138,1987,2068,2020
2062,2051,2058,2078,2131,2008,2078,2001
2053,2052,2055,2077,2118,2046,2080,1991
2051,2053,2050,2067,2114,2072,2073,1981
2045,2039,2038,2057,2098,2066,2079,1975
2038,2030,2035,2050,2098,2070,2074,1965
2032,2028,2025,2039,2091,2063,2071,1959
2027,2022,2022,2037,2098,2051,2041,1953
2025,2008,2009,2016,1999,2033,2025,1951
2027,2010,2005,2019,2002,2034,2050,1959
2043,2031,2025,2040,2043,2072,2064,1981
2059,2033,2028,2053,2075,2100,2073,1996
2056,2037,2030,2051,2081,2109,2081,1996
2050,2029,2027,2051,2050,2105,2083,1997
2053,2027,2026,2049,2055,2081,2081,1997
2041,2020,2027,2045,2079,2084,2073,1999
2051,2030,2030,2053,2092,2091,2092,2008
2053,2042,2038,2042,2072,2057,2075,2006
2044,2050,2038,2039,2069,2034,2066,2008
2041,2045,2036,2044,2057,2024,2056,2016
2040,2042,2032,2050,2019,2015,2050,2026
2052,2041,2035,2055,2031,2027,2064,2018
2044,2052,2034,2053,2037,2022,2046,2019
2041,2040,2030,2048,1997,2013,2023,2008
2027,2024,2026,2028,1932,2010,2044,2011
2024,2024,2031,2040,1947,2032,2048,2022
2042,2037,2050,2058,1997,2047,2060,2031
2046,2040,2043,2058,2016,2042,2043,2024
2046,2042,2043,2054,2017,2043,2033,2027
2045,2048,2038,2050,1989,2032,2051,2028
2048,2047,2031,2026,1969,2002,2047,2022
2045,2043,2031,2021,1949,1980,2036,2021
2047,2038,2037,2020,1936,1958,2041,2006
2048,2047,2056,2031,1973,1960,2046,2008
2051,2051,2071,2042,2017,1982,2053,2009
2058,2062,2085,2056,2049,2034,2052,2001
2060,2076,2094,2067,2080,2054,2049,1991
2054,2073,2086,2074,2088,2060,2049,1986
2058,2072,2076,2072,2096,2084,2034,1990
2052,2063,2061,2061,2082,2045,2048,1980
2045,2046,2047,2046,2078,1971,2018,1972
2040,2041,2044,2044,2090,1948,2018,1979
2054,2059,2060,2061,2097,1972,2023,1981
2059,2062,2057,2054,2080,2009,2034,1990
2050,2065,2056,2045,2055,2028,2020,1986
2047,2055,2055,2037,2037,2053,2004,1991
2047,2054,2051,2036,2037,2068,2010,1998
2047,2054,2049,2034,2036,2057,2035,2006
2048,2053,2048,2036,2041,2044,2045,2013
2040,2052,2054,2043,2037,2042,2050,2010
2044,2047,2051,2051,2058,2046,2048,2025
2044,2043,2049,2047,2077,2044,2053,2012
2034,2033,2039,2050,2085,2044,2039,2023
2038,2031,2043,2046,2081,2046,2037,2022
2046,2041,2042,2052,2080,2054,2043,2028
2049,2040,2043,2051,2053,2050,2041,2032
2046,2033,2030,2041,2040,2043,2050,2030
2035,2034,2023,2042,2016,2032,2018,2024
2046,2039,2021,2045,2022,2050,2019,2030
2050,2039,2018,2051,2045,2056,2031,2026
2045,2031,2011,2045,2047,2055,2031,2027
2040,2028,1999,2037,2050,2063,2042,2028
2050,2039,2004,2048,2092,2072,2047,2029
2054,2046,2010,2067,2106,2070,2056,2030
2057,2047,2010,2068,2097,2045,2048,2023
2048,2046,2003,2070,2090,2024,2047,2015
2050,2036,1992,2054,2060,2024,2030,2011
2046,2028,1991,2051,2068,2044,2042,2008
2042,2027,1997,2044,2055,2046,2032,1994
2039,2019,2005,2019,1988,2033,2016,1987
2042,2022,2022,2027,1993,2037,2047,1983
2049,2040,2060,2046,2027,2050,2028,1982
2042,2039,2055,2044,2039,2051,2034,1981
2041,2034,2054,2043,2031,2056,2035,1984
2044,2047,2077,2057,2007,2058,2033,1993
2049,2057,2092,2050,1992,2058,2063,1989
2049,2053,2098,2051,2002,2039,2046,1993
2041,2060,2107,2060,2043,2027,2049,1993
2047,2065,2129,2071,2077,2029,2047,2008
2046,2065,2120,2074,2080,2031,2045,2008
2038,2047,2097,2066,2077,2031,2042,2013
2038,2052,2095,2059,2090,2031,2039,2024
2040,2055,2106,2072,2097,2050,2057,2029
2050,2067,2118,2083,2108,2063,2067,2034
2051,2076,2115,2091,2149,2068,2056,2031
2049,2071,2097,2082,2157,2073,2058,2032
2042,2060,2088,2067,2075,2081,2064,2031
2041,2060,2081,2064,2064,2099,2068,2037
2034,2050,2077,2054,2033,2101,2055,2036
2040,2048,2074,2034,1997,2088,2056,2040
2039,2051,2070,2024,2050,2084,2060,2043
2044,2048,2066,2020,2097,2033,2043,2047
2044,2045,2057,2020,2095,2030,2041,2042
2043,2052,2057,2026,2083,2062,2056,2047
2042,2053,2063,2032,2062,2083,2065,2044
2051,2059,2072,2037,2049,2080,2055,2040
2048,2064,2067,2043,2035,2055,2056,2037
2048,2059,2065,2032,1988,2033,2064,2023
2040,2056,2063,2028,2002,2036,2058,2024
2041,2056,2063,2037,2019,2030,2060,2020
2034,2053,2065,2042,1984,2022,2055,2015
2036,2054,2055,2040,1955,2037,2031,2007
2035,2048,2043,2028,1966,2043,2030,1995
2042,2042,2047,2039,2010,2072,2046,1999
2036,2052,2050,2064,2075,2076,2050,1994
2028,2038,2042,2063,2058,2019,2040,1995
2038,2048,2048,2064,2045,1975,2035,2009
2052,2039,2046,2062,2062,1991,2048,2024
2052,2033,2036,2044,2010,1997,2061,2021
2038,2021,2024,1999,1891,1976,2044,2012
2021,2009,2008,1996,1966,1989,2030,2008
2018,2011,2018,2029,2128,2052,2060,2011
2016,2031,2043,2054,2181,2094,2075,2013
2016,2038,2045,2063,2178,2101,2066,2031
2020,2044,2053,2075,2177,2091,2067,2033
2030,2057,2056,2070,2147,2066,2029,2034
2035,2052,2045,2057,2106,2056,2024,2048
2042,2058,2055,2054,2066,2053,2031,2044
2033,2053,2036,2016,1934,2007,2024,2036
2022,2035,2021,1998,1875,1976,1998,2036
2028,2042,2023,2014,1931,1986,1991,2030
2018,2026,2024,2039,2012,2032,2000,2028
2023,2022,2018,2054,2072,2064,2019,2024
2018,2034,2023,2047,2078,2068,2040,2022
2019,2040,2028,2048,2084,2075,2067,2036
2026,2035,2030,2041,2071,2072,2077,2049
2035,2031,2017,2028,2077,2040,2053,2039
2037,2024,2017,2028,2139,2045,2075,2035
2046,2021,2024,2040,2173,2062,2075,2025
2042,2028,2031,2046,2182,2066,2052,2026
2047,2041,2039,2045,2156,2044,2050,2020
2045,2046,2041,2032,2119,2019,2044,2009
2044,2037,2035,2024,2078,2014,2037,2008
2046,2044,2051,2024,2065,2036,2044,2009
2035,2045,2047,2027,2068,2071,2039,2005
2025,2044,2043,2033,2082,2080,2041,1993
2013,2048,2049,2037,2076,2061,2049,2002
2017,2043,2051,2041,2056,2044,2048,2009
2035,2045,2053,2043,2031,2050,2064,2015
2038,2064,2061,2038,1998,2070,2078,2022
2040,2062,2058,2046,2048,2107,2069,2026
2039,2070,2063,2062,2084,2151,2072,2023
2039,2062,2063,2052,2056,2162,2073,2019
2032,2052,2050,2043,2040,2148,2039,2023
2035,2043,2037,2025,2001,2081,2021,2025
2035,2026,2029,2011,1973,1969,2022,2027
2026,2020,2027,2004,1973,1936,2036,2025
2022,2015,2030,2007,1999,1982,2059,2031
2020,2015,2033,2033,2065,2036,2049,2037
2021,2020,2042,2054,2123,2060,2052,2039
2028,2031,2057,2068,2132,2076,2074,2054
2038,2037,2066,2070,2115,2086,2073,2061
2041,2036,2065,2066,2095,2074,2070,2053
2029,2029,2046,2056,2080,2050,2059,2041
2019,2032,2041,2050,2065,2027,2045,2039
2022,2037,2048,2051,2058,2018,2048,2053
2032,2044,2051,2051,2046,2013,2031,2046
2029,2048,2057,2057,2077,2002,2007,2046
2028,2051,2053,2065,2101,2026,2024,2047
2037,2045,2056,2059,2103,2054,2024,2060
2043,2052,2058,2053,2048,2059,2053,2056
2051,2048,2051,2043,2006,2020,2051,2045
2043,2054,2052,2052,2038,2028,2057,2045
2039,2053,2061,2053,2056,2047,2049,2048
2042,2063,2056,2039,2050,2074,2064,2042
2040,2056,2048,2019,2024,2059,2067,2033
2033,2042,2023,1980,1942,2000,2040,2010
2019,2040,2020,1952,1856,1956,2041,2004
2017,2045,2024,1960,1855,1969,2041,2002
2017,2036,2023,1978,1933,1983,2036,1994
2011,2007,2000,1987,2032,1993,2022,1992
2003,1978,1984,1999,2134,2058,2043,2015
2013,2003,2002,2044,2200,2139,2069,2023
2023,2012,2013,2069,2245,2157,2060,2032
2041,2034,2020,2071,2217,2113,2050,2035
2046,2031,2027,2078,2156,2026,2020,2023
2043,2019,2024,2076,2152,1969,2018,2014
2030,2015,2034,2093,2182,2020,2022,2027
2018,2011,2037,2097,2194,2059,2048,2050
2036,2025,2037,2077,2174,2064,2059,2064
2033,2027,2028,2046,2101,2043,2049,2059
2023,2030,2012,2024,2005,2031,2057,2070
2027,2022,2016,1999,1871,2029,2065,2069
2029,2038,2025,2003,1828,2035,2044,2072
2026,2057,2039,2019,1865,2069,2065,2073
2047,2066,2047,2032,1893,2094,2049,2072
2045,2052,2035,2016,1898,2070,2026,2065
2037,2033,2015,1990,1867,2018,2030,2071
2048,2041,2024,2014,1974,1978,2056,2074
2047,2044,2033,2028,2057,1965,2057,2067
2041,2047,2029,2031,2080,1983,2064,2060
2042,2042,2034,2031,2104,2011,2055,2069
2050,2055,2045,2030,2120,2023,2066,2058
2040,2057,2032,2016,2159,2024,2040,2056
2037,2056,2023,2014,2218,2044,2018,2052
2042,2057,2029,2032,2244,2071,2036,2054
2044,2057,2032,2034,2182,2073,2025,2045
2037,2043,2030,2012,2025,2047,2030,2042
2043,2039,2033,2012,1988,2049,2038,2034
2045,2031,2025,2014,2013,2055,2028,2036
2050,2025,2022,2027,2019,2044,2037,2032
2036,2019,2025,2038,2018,2025,2035,2021
2030,2001,2020,2016,2004,2006,2008,2008
2022,1997,2020,2013,1995,2005,2011,2010
2026,2012,2038,2029,2014,2035,2045,2027
2034,2031,2070,2056,2017,2047,2058,2050
2048,2053,2086,2068,2029,2053,2056,2059
2040,2044,2079,2076,2027,2055,2047,2069
2051,2054,2080,2077,2026,2055,2054,2077
2061,2060,2077,2078,2072,2051,2044,2072
2046,2049,2071,2085,2126,2047,2047,2067
2045,2045,2080,2102,2182,2077,2059,2067
2052,2059,2095,2122,2235,2106,2052,2080
2064,2065,2083,2117,2252,2106,2062,2084
2066,2048,2052,2090,2228,2071,2050,2075
2048,2028,2039,2056,2173,2039,2046,2072
2024,2011,2032,2052,2150,2050,2045,2076
2033,2017,2046,2053,2175,2061,2042,2086
2037,2010,2028,2027,2116,2024,2016,2078
2019,1980,1998,1967,1915,2002,1993,2066
1996,2002,2015,1982,1907,2027,2041,2054
2013,2050,2064,2030,2016,2044,2057,2079
2035,2060,2060,2033,2037,2029,2068,2097
2056,2052,2040,2005,1975,1994,2054,2079
2040,2039,2014,1985,1979,1992,2027,2081
2033,2025,2003,1984,2021,2009,2025,2075
2040,2026,1997,1996,2047,2032,2038,2079
2045,2038,2012,2015,2086,2055,2059,2069
2052,2062,2035,2011,2096,2066,2065,2070
2049,2060,2030,2003,2070,2059,2069,2064
2036,2056,2032,2006,2045,2047,2077,2057
2023,2048,2029,2005,2037,2032,2070,2056
2034,2048,2033,2013,2050,2032,2077,2050
2053,2051,2042,2011,2042,2028,2073,2064
2058,2051,2043,2019,2052,2026,2058,2057
2051,2037,2033,2017,2066,2022,2060,2035
2033,2016,2020,2022,2071,2014,2051,2035
2027,2027,2035,2023,2073,2023,2050,2040
2024,2037,2045,2031,2062,2015,2041,2021
1990,2038,2043,2030,2050,2014,2037,2027
1987,2032,2045,2032,2038,2021,2043,2056
2007,2025,2053,2036,2058,2034,2063,2081
2029,2017,2053,2038,2060,2033,2053,2081
2040,2023,2053,2039,2061,2029,2036,2087
2046,2035,2062,2043,2064,2025,2034,2100
2061,2037,2050,2031,2061,2027,2040,2104
2063,2027,2025,2019,2060,2038,2046,2106
2064,2026,2018,2022,2078,2073,2036,2114
2062,2051,2030,2036,2082,2097,2032,2095
2056,2049,2036,2045,2041,2082,2027,2087
2029,2040,2051,2047,2017,2060,2032,2085
2018,2037,2052,2056,2036,2050,2029,2080
2005,2024,2038,2058,2051,2043,2044,2083
2014,2036,2037,2062,2077,2056,2041,2093
2033,2044,2040,2066,2105,2062,2041,2091
2036,2042,2028,2063,2102,2067,2043,2096
2034,2041,2020,2072,2099,2070,2034,2092
2027,2040,2034,2090,2102,2068,2033,2089
2027,2040,2064,2105,2104,2058,2042,2085
2034,2045,2083,2111,2084,2045,2061,2090
2043,2051,2087,2108,2083,2046,2048,2084
2049,2047,2085,2113,2093,2055,2058,2079
2045,2052,2087,2108,2089,2059,2065,2076
2041,2044,2073,2088,2078,2046,2050,2062
2032,2027,2054,2056,2060,2041,2039,2054
2027,2028,2051,2037,2047,2033,2053,2060
2026,2035,2056,2031,2051,2037,2056,2062
2022,2051,2063,2024,2047,2034,2071,2056
2026,2044,2053,2014,2040,2031,2042,2033
2010,2037,2039,2002,2043,2029,2048,2040
2014,2044,2037,2004,2042,2039,2038,2054
2030,2060,2038,2000,2048,2040,2057,2063
2038,2065,2047,1996,2051,2040,2049,2068
2048,2068,2056,1992,2048,2037,2040,2076
2046,2065,2052,1985,2039,2036,2023,2080
2043,2071,2046,1981,2048,2039,2036,2079
2036,2054,2025,1970,2041,2050,2047,2091
2029,2041,2020,1976,2044,2054,2051,2090
2031,2052,2026,1995,2049,2050,2057,2091
2045,2060,2039,2015,2055,2048,2050,2097
2045,2068,2042,2021,2065,2051,2052,2096
2054,2066,2039,2024,2056,2047,2053,2103
2056,2059,2027,2022,2057,2042,2041,2105
2057,2050,2024,2021,2049,2031,2032,2107
2050,2042,2024,2018,2046,2028,2042,2098
2030,2031,2014,2014,2050,2025,2023,2087
2013,2026,2020,2021,2051,2031,2031,2093
2023,2035,2026,2027,2060,2043,2049,2090
2012,2035,2028,2027,2067,2078,2052,2100
2021,2048,2048,2039,2078,2113,2056,2107
2030,2053,2051,2036,2079,2116,2065,2095
2031,2055,2057,2038,2077,2116,2043,2102
2035,2060,2062,2044,2074,2111,2047,2099
2036,2059,2063,2043,2076,2072,2050,2093
2031,2061,2053,2048,2091,2049,2026,2089
2037,2053,2056,2055,2095,2055,2050,2087
2035,2056,2054,2063,2098,2064,2034,2080
2041,2053,2062,2062,2088,2060,2017,2072
2034,2052,2065,2059,2089,2057,2027,2069
2034,2054,2071,2064,2078,2054,2054,2060
2036,2053,2072,2059,2077,2055,2033,2059
2040,2042,2056,2051,2069,2039,2022,2061
2037,2037,2055,2047,2057,2000,2023,2055
2038,2039,2051,2043,2048,1981,2004,2055
2039,2040,2050,2036,2052,2008,2004,2050
2025,2039,2049,2046,2058,2032,2018,2063
2025,2043,2043,2046,2064,2042,2024,2079
2024,2039,2035,2042,2060,2045,2037,2086
2019,2041,2032,2039,2064,2044,2035,2077
2013,2042,2028,2045,2063,2050,2033,2083
2019,2035,2034,2045,2064,2044,2023,2084
2025,2034,2034,2039,2058,2045,2023,2087
2026,2033,2026,2033,2061,2038,2043,2087
2026,2042,2025,2037,2068,2036,2041,2089
2030,2046,2026,2042,2071,2034,2042,2105
2026,2043,2045,2054,2076,2034,2042,2104
2040,2047,2054,2068,2082,2033,2047,2112
2038,2042,2047,2068,2074,2024,2035,2110
2022,2031,2031,2068,2078,2026,2047,2107
2020,2027,2021,2076,2069,2026,2049,2107
2037,2047,2021,2077,2073,2024,2056,2101
2033,2049,2021,2085,2067,2033,2033,2099
2031,2052,2033,2095,2074,2037,2035,2100
2025,2049,2035,2097,2078,2042,2040,2100
2023,2046,2035,2088,2064,2050,2044,2099
2029,2053,2038,2077,2062,2058,2041,2094
2030,2062,2038,2064,2067,2070,2040,2093
2033,2071,2038,2056,2061,2067,2054,2091
2036,2069,2044,2044,2060,2056,2058,2087
2038,2069,2054,2030,2058,2050,2056,2083
2030,2069,2064,2021,2056,2051,2052,2080
2026,2067,2070,2006,2053,2055,2036,2072
2029,2062,2072,2007,2057,2058,2029,2067
2026,2065,2080,2003,2061,2057,2047,2067
2024,2054,2066,1994,2045,2044,2041,2060
2023,2046,2064,1992,2038,2039,2031,2056
2026,2060,2066,1997,2046,2047,2038,2076
2038,2054,2056,1997,2044,2043,2052,2072
2034,2056,2059,2004,2048,2042,2041,2084
2034,2067,2073,2017,2056,2040,2055,2089
2037,2062,2079,2026,2054,2030,2026,2087
2040,2057,2065,2028,2058,2045,2027,2096
2040,2050,2061,2030,2062,2052,2036,2098
2038,2054,2054,2036,2062,2059,2039,2109
2045,2060,2044,2040,2067,2051,2035,2108
2045,2051,2040,2039,2071,2056,2032,2106
2044,2052,2040,2042,2078,2056,2027,2106
2036,2052,2035,2042,2074,2043,2031,2100
2034,2053,2040,2043,2065,2026,2020,2107
2032,2049,2050,2044,2062,2022,2007,2106
2028,2053,2038,2041,2052,2007,2007,2100
2024,2036,2035,2043,2054,2009,2014,2106
2032,2042,2046,2055,2064,2023,2028,2109
2041,2052,2061,2069,2070,2029,2036,2109
2034,2047,2072,2075,2073,2031,2030,2109
2031,2046,2082,2072,2079,2036,2037,2106
2035,2046,2086,2074,2080,2036,2012,2103
2035,2044,2085,2082,2090,2042,2019,2099
2035,2047,2086,2085,2085,2048,2030,2101
2032,2044,2077,2088,2085,2049,2015,2091
2034,2039,2073,2079,2077,2049,2015,2083
2027,2039,2057,2074,2076,2053,2028,2082
2021,2040,2053,2070,2071,2049,2028,2076
2024,2040,2066,2076,2075,2056,2038,2064
2031,2037,2066,2077,2085,2065,2041,2068
2024,2036,2052,2076,2077,2073,2057,2064
2025,2031,2046,2059,2062,2058,2041,2052
2020,2014,2021,2032,2049,2050,2040,2053
2017,2015,2022,2025,2050,2059,2034,2059
2032,2034,2037,2027,2058,2062,2052,2065
2039,2040,2040,2028,2058,2059,2037,2070
2043,2046,2033,2029,2060,2049,2021,2083
2043,2046,2042,2042,2065,2052,2028,2083
2049,2059,2057,2056,2071,2055,2038,2091
2049,2067,2064,2065,2073,2058,2012,2092
2038,2059,2073,2055,2060,2040,2031,2091
2041,2045,2068,2053,2054,2038,2046,2092
2042,2045,2064,2058,2068,2044,2042,2093
2039,2045,2061,2054,2068,2038,2037,2093
2031,2046,2057,2050,2062,2047,2032,2092
2032,2047,2041,2043,2062,2050,2033,2099
2033,2052,2037,2042,2062,2045,2036,2102
2034,2056,2056,2050,2066,2042,2051,2102
2033,2041,2050,2043,2073,2040,2039,2098
2033,2043,2054,2035,2064,2050,2039,2104
2035,2053,2060,2041,2067,2056,2052,2106
2047,2057,2062,2044,2072,2054,2043,2107
2046,2060,2054,2041,2072,2049,2046,2104
2049,2062,2052,2031,2066,2050,2053,2097
2042,2056,2038,2030,2074,2056,2064,2101
2035,2049,2027,2027,2074,2054,2046,2094
2042,2042,2023,2032,2076,2056,2054,2095
2042,2045,2032,2038,2075,2057,2068,2086
2040,2044,2038,2041,2074,2051,2070,2086
2039,2050,2037,2042,2076,2051,2055,2078
2046,2051,2042,2044,2086,2056,2045,2080
2046,2052,2042,2051,2084,2058,2042,2075
2043,2057,2040,2049,2081,2054,2045,2065
2042,2052,2035,2044,2086,2049,2035,2055
2037,2042,2018,2038,2078,2042,2024,2055
2035,2041,2017,2043,2073,2043,2020,2060
2034,2048,2021,2056,2071,2045,2029,2063
2042,2050,2020,2049,2080,2055,2054,2061
2042,2050,2022,2050,2071,2052,2046,2067
2038,2046,2018,2051,2068,2052,2039,2075
2034,2044,2016,2053,2072,2047,2025,2074
2033,2038,2020,2042,2067,2043,2027,2083
2027,2036,2025,2052,2062,2045,2032,2088
2031,2039,2046,2050,2072,2048,2044,2090
2031,2032,2059,2065,2074,2050,2027,2092
2034,2039,2067,2083,2075,2050,2038,2088
2030,2038,2075,2089,2073,2043,2042,2092
2027,2047,2087,2089,2076,2046,2044,2103
2039,2060,2087,2094,2080,2059,2043,2106
2041,2057,2081,2093,2082,2059,2052,2105
2038,2035,2056,2088,2080,2053,2049,2105
2033,2036,2052,2083,2074,2054,2046,2111
2043,2049,2059,2091,2085,2058,2061,2116
2047,2053,2075,2086,2085,2062,2054,2118
2050,2069,2090,2085,2079,2058,2040,2111
2053,2071,2087,2082,2072,2057,2048,2107
2054,2071,2078,2074,2073,2054,2042,2100
2050,2062,2064,2062,2071,2051,2039,2093
2042,2057,2049,2045,2068,2045,2035,2087
2038,2050,2032,2034,2055,2038,2043,2082
2039,2051,2030,2031,2055,2044,2025,2081
2034,2043,2034,2024,2053,2045,2042,2076
2037,2048,2044,2032,2057,2044,2049,2077
2048,2056,2057,2037,2058,2052,2055,2081
2047,2063,2075,2058,2075,2053,2036,2076
2047,2079,2088,2065,2076,2057,2046,2068
2051,2083,2087,2066,2071,2048,2021,2062
2050,2078,2082,2059,2069,2048,2037,2059
2061,2076,2067,2049,2073,2048,2026,2069
2048,2061,2052,2046,2061,2046,2028,2067
2046,2059,2059,2056,2064,2055,2039,2073
2054,2063,2068,2076,2077,2064,2020,2078
2051,2065,2067,2078,2067,2063,2031,2085
2045,2064,2066,2084,2068,2059,2034,2095
2053,2068,2070,2086,2069,2058,2042,2101
2051,2071,2059,2085,2064,2062,2048,2100
2051,2059,2058,2083,2070,2060,2045,2104
2042,2057,2044,2081,2065,2060,2052,2105
2042,2056,2041,2086,2074,2064,2037,2107
2047,2057,2042,2099,2073,2068,2041,2114
2053,2058,2053,2105,2076,2064,2027,2113
2052,2053,2047,2106,2075,2059,2023,2116
2039,2048,2037,2104,2066,2052,2034,2111
2037,2042,2030,2097,2062,2051,2049,2106
2052,2056,2035,2096,2068,2058,2056,2105
2052,2058,2035,2079,2062,2052,2042,2104
2057,2053,2044,2069,2053,2045,2034,2097
2055,2057,2053,2058,2058,2047,2036,2093
2057,2064,2059,2058,2060,2047,2035,2088
2051,2063,2052,2050,2065,2051,1997,2080
2047,2061,2038,2057,2061,2051,2021,2077
2041,2068,2047,2057,2059,2057,2026,2077
2036,2065,2051,2051,2060,2057,2038,2074
2037,2055,2028,2024,2050,2056,2052,2071
2036,2048,2009,2013,2051,2051,2042,2065
2036,2046,2005,2003,2040,2051,2038,2063
2036,2046,1994,1988,2034,2054,2045,2066
2045,2047,2000,1975,2036,2051,2060,2059
2043,2046,2012,1983,2027,2046,2032,2053
2040,2048,2024,1996,2031,2047,2016,2051
2039,2044,2032,2001,2034,2042,2016,2057
2039,2047,2040,2011,2034,2045,2042,2071
2045,2048,2052,2020,2027,2045,2042,2068
2045,2052,2046,2027,2036,2045,2037,2070
2040,2053,2054,2039,2044,2045,2029,2082
2042,2052,2053,2060,2049,2052,2058,2086
2045,2050,2049,2072,2057,2057,2060,2092
2056,2056,2044,2080,2055,2065,2065,2101
2055,2049,2039,2081,2064,2061,2061,2099
2054,2047,2038,2080,2058,2060,2064,2097
2047,2045,2031,2080,2052,2058,2061,2101
2048,2044,2028,2088,2052,2056,2057,2101
2042,2039,2030,2086,2056,2060,2067,2099
2046,2043,2033,2092,2066,2062,2058,2095
2044,2046,2041,2084,2061,2052,2062,2091
2045,2041,2032,2078,2062,2057,2057,2096
2042,2049,2037,2070,2061,2060,2041,2098
2047,2046,2036,2062,2054,2056,2053,2088
2052,2046,2033,2049,2047,2055,2064,2089
2040,2046,2035,2045,2047,2053,2056,2098
2047,2043,2037,2039,2046,2053,2056,2086
2047,2045,2033,2033,2047,2055,2044,2085
2054,2054,2030,2035,2049,2056,2061,2091
2056,2055,2047,2042,2058,2059,2051,2085
2062,2070,2058,2047,2056,2057,2062,2072
2060,2070,2081,2052,2055,2059,2055,2068
2055,2078,2095,2063,2061,2065,2061,2058
2056,2069,2096,2061,2053,2058,2068,2057
2053,2063,2077,2049,2048,2060,2072,2064
2048,2056,2065,2046,2046,2050,2060,2057
2048,2043,2062,2044,2040,2050,2055,2054
2049,2051,2078,2048,2043,2056,2059,2058
2051,2070,2094,2060,2047,2059,2061,2059
2052,2070,2082,2062,2052,2055,2063,2065
2047,2062,2071,2063,2044,2062,2054,2064
2045,2054,2051,2056,2044,2055,2067,2064
2046,2043,2035,2051,2036,2050,2053,2066
2045,2038,2029,2051,2038,2041,2054,2084
2047,2045,2033,2064,2047,2045,2049,2092
2057,2061,2041,2070,2053,2051,2065,2091
2060,2062,2047,2071,2064,2064,2057,2094
2062,2065,2050,2068,2060,2068,2038,2100
2051,2070,2052,2073,2058,2067,2033,2097
2055,2066,2052,2066,2049,2066,2062,2101
2053,2063,2055,2063,2051,2063,2035,2104
2051,2053,2054,2060,2041,2047,2010,2097
2034,2040,2046,2052,2040,2041,2008,2095
2035,2037,2056,2053,2038,2048,2019,2101
2046,2051,2071,2061,2040,2053,2019,2100
2051,2058,2088,2069,2047,2056,2030,2099
2050,2059,2092,2073,2053,2060,2025,2098
2054,2063,2087,2075,2058,2057,2030,2090
2049,2060,2076,2073,2048,2058,2010,2081
2048,2055,2067,2071,2055,2057,2043,2083
2046,2048,2061,2070,2052,2066,2046,2077
2056,2051,2053,2068,2057,2064,2031,2076
2059,2055,2059,2076,2057,2063,2053,2068
2054,2054,2059,2088,2061,2063,2049,2061
2053,2053,2053,2085,2061,2059,2045,2057
2060,2052,2041,2082,2059,2058,2046,2052
2058,2049,2037,2075,2059,2062,2056,2047
2047,2044,2028,2078,2052,2053,2052,2041
2044,2028,2017,2080,2056,2056,2036,2032
2042,2034,2035,2092,2054,2066,2057,2046
2053,2056,2055,2105,2051,2057,2056,2048
2055,2055,2053,2109,2059,2054,2039,2061
2051,2052,2049,2107,2058,2048,2012,2058
2052,2055,2055,2100,2057,2055,2019,2067
2056,2065,2059,2092,2050,2056,2020,2077
2058,2064,2063,2086,2051,2058,2024,2084
2065,2067,2053,2077,2049,2055,2032,2082
2056,2061,2036,2066,2036,2050,2034,2081
2052,2052,2024,2053,2029,2050,2040,2089
2050,2045,2030,2059,2027,2045,2033,2085
2050,2050,2040,2063,2032,2051,2014,2092
2054,2048,2049,2058,2035,2057,2020,2092
2049,2051,2049,2060,2031,2064,2028,2098
2052,2053,2051,2057,2026,2057,2035,2090
2042,2041,2051,2041,2013,2044,2032,2096
2044,2046,2051,2036,2015,2055,2041,2103
2056,2080,2073,2044,2023,2062,2056,2109
2066,2086,2086,2055,2034,2064,2054,2103
2067,2087,2090,2056,2038,2069,2058,2102
2064,2087,2091,2066,2039,2065,2029,2096
2063,2079,2092,2069,2035,2058,2046,2094
2062,2071,2088,2065,2035,2057,2020,2087
2052,2066,2076,2055,2031,2055,2036,2087
2053,2069,2070,2053,2029,2054,2044,2078
2056,2064,2073,2050,2039,2055,2055,2073
2056,2066,2080,2042,2038,2056,2049,2068
2063,2066,2081,2040,2031,2060,2036,2067
2060,2067,2079,2037,2031,2057,2034,2056
2064,2069,2069,2028,2031,2055,2035,2058
2058,2062,2052,2028,2016,2047,2023,2041
2056,2052,2045,2030,2016,2039,2033,2046
2053,2058,2049,2041,2031,2044,2045,2054
2063,2069,2056,2052,2032,2051,2043,2048
2063,2069,2063,2051,2028,2055,2051,2050
2066,2066,2062,2054,2027,2054,2038,2062
2066,2060,2052,2059,2029,2058,2041,2061
2063,2060,2043,2054,2026,2051,2021,2069
2066,2055,2044,2050,2029,2050,2027,2072
2062,2059,2048,2052,2040,2052,2017,2082
2066,2065,2051,2055,2039,2066,2032,2087
2072,2069,2056,2058,2045,2077,2042,2081
2071,2066,2046,2058,2046,2082,2036,2086
2071,2061,2044,2072,2035,2081,2020,2083
2066,2058,2045,2073,2036,2082,2035,2082
2064,2050,2051,2069,2028,2080,2052,2081
2060,2045,2039,2061,2009,2063,2022,2073
2053,2040,2043,2066,2001,2051,2016,2073
2055,2057,2056,2074,2009,2058,2038,2078
2063,2062,2049,2067,2015,2048,2040,2073
2060,2062,2044,2065,2012,2018,2037,2084
2062,2067,2048,2053,2016,1995,2052,2077
2068,2066,2039,2040,2023,1999,2034,2071
2060,2056,2040,2036,2030,2014,2016,2073
2047,2048,2027,2021,2036,2012,2030,2059
2050,2045,2026,2009,2037,2018,2021,2046
2057,2053,2045,2026,2036,2031,2029,2044
2054,2068,2073,2045,2046,2047,2041,2044
2062,2083,2084,2055,2056,2057,2051,2045
2060,2073,2073,2051,2052,2078,2082,2048
2064,2075,2064,2047,2052,2082,2073,2047
2070,2066,2048,2042,2050,2081,2063,2046
2060,2053,2034,2042,2049,2085,2079,2041
2056,2045,2036,2048,2059,2112,2087,2055
2064,2061,2048,2054,2059,2127,2091,2066
2070,2065,2052,2054,2049,2124,2089,2058
2073,2064,2060,2051,2040,2112,2079,2061
2075,2065,2054,2047,2041,2104,2069,2063
2071,2058,2051,2047,2042,2075,2051,2055
2061,2061,2048,2043,2030,2035,2051,2056
2065,2058,2046,2047,2025,2036,2057,2052
2054,2061,2045,2046,2031,2049,2051,2058
2059,2060,2049,2048,2029,2066,2066,2060
2055,2059,2044,2048,2024,2064,2066,2062
2057,2064,2041,2047,2026,2073,2081,2077
2055,2064,2041,2046,2029,2060,2088,2076
2056,2067,2044,2055,2034,2063,2074,2075
2067,2060,2035,2057,2040,2051,2086,2070
2058,2050,2018,2052,2036,2018,2064,2061
2050,2040,2013,2060,2031,1992,2061,2065
2049,2042,2007,2069,2034,1998,2064,2064
2053,2037,2002,2067,2040,2019,2065,2063
2058,2040,2006,2062,2046,2036,2066,2065
2063,2041,2000,2063,2048,2052,2066,2052
2051,2038,1987,2073,2049,2060,2082,2053
2060,2029,1982,2078,2057,2062,2076,2052
2065,2038,1978,2090,2071,2065,2073,2046
2060,2043,1981,2099,2078,2067,2079,2050
2057,2050,1990,2102,2087,2060,2067,2041
2066,2052,2002,2092,2071,2039,2065,2039
2060,2050,1992,2084,2048,2025,2054,2032
2059,2050,1996,2068,2023,2025,2045,2026
2050,2052,2005,2056,2023,2022,2041,2022
2053,2058,2036,2068,2024,2024,2046,2016
2059,2061,2069,2059,2020,2021,2037,2012
2052,2065,2081,2055,2010,2016,2058,2010
2054,2074,2089,2057,2022,2021,2057,2016
2060,2075,2090,2057,2016,2023,2056,2014
2061,2085,2111,2075,2024,2036,2057,2024
2069,2099,2115,2072,2026,2045,2055,2032
2067,2100,2125,2071,2025,2049,2048,2037
2067,2093,2111,2057,2016,2053,2062,2054
2061,2079,2098,2050,2019,2048,2060,2054
2069,2066,2092,2051,2023,2054,2060,2059
2066,2064,2086,2055,2024,2052,2055,2064
2066,2063,2077,2038,2018,2054,2080,2069
2071,2068,2064,2029,2020,2047,2073,2068
2064,2065,2054,2034,2020,2043,2068,2064
2064,2056,2049,2043,2023,2038,2071,2070
2060,2050,2044,2051,2024,2036,2060,2069
2052,2038,2035,2051,2020,2025,2042,2061
2044,2038,2036,2056,2020,2023,2055,2065
2056,2047,2046,2060,2017,2026,2062,2068
2058,2055,2054,2053,2005,2025,2049,2063
2066,2053,2055,2062,2019,2036,2054,2063
2060,2056,2059,2064,2025,2040,2054,2063
2069,2065,2067,2073,2024,2041,2054,2063
2066,2059,2063,2064,2026,2037,2057,2058
2067,2059,2056,2046,2014,2038,2065,2052
2062,2057,2051,2043,2013,2033,2069,2046
2061,2058,2059,2040,2014,2031,2058,2043
2067,2056,2061,2050,2020,2037,2057,2039
2065,2064,2071,2060,2028,2030,2069,2028
2071,2068,2072,2060,2027,2034,2077,2026
2071,2069,2070,2057,2029,2031,2059,2024
2071,2064,2063,2060,2023,2034,2046,2016
2061,2049,2051,2051,2017,2027,2046,2016
2060,2045,2042,2052,2010,2036,2062,2012
2063,2057,2044,2041,2013,2039,2048,2021
2070,2051,2041,2045,2001,2049,2028,2021
2069,2052,2048,2058,2015,2053,2035,2025
2068,2046,2060,2070,2013,2051,2056,2030
2069,2056,2063,2080,2001,2047,2049,2043
2073,2056,2066,2077,1978,2039,2049,2051
2078,2055,2061,2072,1967,2027,2044,2048
2075,2048,2046,2069,1947,2020,2037,2049
2065,2043,2036,2064,1951,2026,2045,2055
2069,2043,2040,2078,1989,2047,2057,2057
2072,2049,2033,2084,2012,2071,2058,2053
2066,2052,2018,2069,2027,2098,2045,2055
2063,2046,2017,2072,2046,2112,2046,2065
2066,2045,2020,2068,2036,2091,2046,2057
2055,2040,2011,2042,1993,2053,2034,2058
2055,2044,2023,2049,2008,2033,2031,2069
2069,2054,2030,2041,2040,2033,2048,2077
2075,2053,2021,2036,2050,2032,2061,2079
2079,2054,2014,2031,2061,2044,2061,2073
2079,2065,2025,2039,2060,2056,2061,2073
2079,2067,2041,2034,2059,2070,2053,2073
2080,2061,2042,2023,2052,2089,2059,2054
2078,2057,2037,2021,2035,2104,2057,2042
2068,2051,2040,2027,2027,2100,2065,2044
2074,2061,2040,2041,2026,2097,2049,2030
2071,2053,2028,2045,2022,2087,2058,2029
2070,2058,2037,2055,2029,2050,2058,2030
2072,2067,2056,2072,2040,2030,2067,2026
2067,2062,2047,2061,2032,2039,2059,2026
2068,2045,2033,2055,2022,2043,2054,2009
2055,2022,2010,2051,2008,2043,2045,2011
2054,2016,2028,2069,2022,2048,2061,2012
2061,2041,2047,2086,2032,2055,2060,2025
2071,2049,2060,2085,2037,2054,2068,2028
2064,2046,2058,2087,2030,2050,2056,2035
2066,2043,2050,2075,2025,2054,2056,2038
2068,2046,2044,2070,2017,2054,2062,2042
2070,2050,2035,2075,2025,2059,2050,2050
2072,2045,2042,2082,2034,2062,2058,2045
2059,2048,2036,2072,2028,2059,2049,2052
2060,2044,2030,2063,2013,2056,2040,2050
2065,2044,2037,2046,2006,2050,2037,2059
2061,2042,2039,2043,2001,2047,2034,2058
2058,2039,2039,2043,2001,2039,2020,2055
2060,2041,2038,2028,1996,2034,2028,2060
2058,2043,2039,2021,1993,2029,2024,2057
2058,2038,2042,2021,1997,2037,2027,2075
2066,2046,2048,2032,2010,2058,2036,2078
2080,2062,2059,2041,2032,2058,2046,2080
2084,2060,2050,2046,2045,2061,2056,2076
2088,2062,2060,2056,2040,2059,2052,2075
2087,2064,2069,2071,2045,2060,2049,2068
2087,2067,2056,2067,2045,2061,2066,2064
2082,2062,2047,2055,2041,2065,2047,2060
2081,2053,2031,2057,2036,2061,2038,2053
2077,2047,2020,2056,2028,2065,2040,2047
2068,2043,2017,2054,2015,2056,2042,2039
2070,2037,2012,2049,2004,2061,2047,2035
2065,2038,1996,2021,1979,2049,2037,2029
2061,2025,1981,1991,1948,2045,2022,2025
2064,2039,2009,1996,1955,2045,2013,2024
2067,2054,2043,1999,1962,2036,2014,2016
2058,2044,2034,1979,1942,2039,2020,2023
2054,2040,2032,1973,1937,2047,2022,2028
2063,2057,2068,1989,1939,2054,2042,2034
2074,2081,2119,2007,1945,2062,2041,2036
2079,2096,2142,2029,1952,2067,2037,2048
2084,2093,2139,2037,1973,2063,2042,2055
2084,2088,2115,2052,1988,2063,2052,2058
2082,2079,2089,2054,2042,2057,2054,2069
2083,2070,2072,2059,2103,2063,2038,2064
2077,2059,2061,2063,2136,2070,2040,2072
2078,2060,2056,2077,2146,2065,2042,2073
2076,2056,2056,2076,2130,2063,2052,2063
2074,2053,2063,2080,2128,2059,2050,2060
2071,2057,2065,2076,2120,2060,2055,2064
2064,2057,2070,2079,2116,2070,2053,2063
2062,2052,2071,2075,2090,2063,2058,2054
2049,2045,2069,2073,2058,2054,2044,2062
2058,2055,2083,2076,1981,2046,2053,2076
2073,2065,2084,2069,1919,2043,2048,2076
2066,2063,2078,2059,1947,2049,2065,2072
2072,2056,2075,2057,1979,2058,2060,2065
2069,2056,2066,2045,1995,2052,2056,2056
2065,2056,2059,2042,2006,2060,2058,2051
2071,2059,2057,2045,2005,2057,2052,2046
2072,2054,2056,2040,2002,2051,2058,2043
2065,2055,2059,2061,2016,2056,2063,2033
2069,2059,2069,2066,2018,2048,2054,2031
2066,2055,2060,2064,2018,2049,2054,2022
2070,2048,2058,2057,2017,2053,2060,2014
2064,2046,2045,2047,2010,2056,2059,2010
2060,2046,2036,2050,2008,2056,2050,2009
2061,2042,2032,2051,2007,2047,2042,2001
2057,2039,2037,2055,2009,2046,2046,2004
2068,2053,2050,2069,2013,2054,2055,2012
2069,2057,2046,2075,2021,2054,2051,2020
2073,2054,2047,2070,2018,2058,2054,2017
2073,2057,2047,2064,2016,2058,2060,2028
2070,2052,2047,2053,2006,2055,2046,2030
2070,2051,2043,2045,1998,2051,2056,2040
2072,2050,2041,2043,1993,2051,2048,2042
2074,2049,2028,2030,1981,2046,2053,2046
2078,2044,2012,2024,1984,2049,2052,2046
2069,2044,2012,2034,1985,2052,2041,2049
2076,2042,2019,2042,1991,2053,2045,2053
2071,2051,2022,2040,2001,2048,2038,2059
2067,2044,2014,2026,2001,2046,2046,2057
2054,2037,2003,2015,2015,2053,2025,2063
2059,2027,1986,2006,2013,2050,2020,2052
2056,2020,1998,2018,2028,2064,2037,2068
2068,2051,2030,2048,2065,2088,2065,2077
2080,2065,2053,2068,2097,2096,2074,2073
2080,2072,2070,2069,2098,2100,2069,2068
2084,2076,2075,2075,2081,2086,2077,2078
2087,2083,2087,2077,2069,2073,2066,2073
2085,2077,2086,2062,2056,2063,2057,2064
2073,2071,2073,2044,2001,2057,2053,2056
2077,2073,2068,2039,2004,2055,2051,2051
2081,2066,2067,2050,2031,2065,2031,2050
2076,2068,2062,2055,2051,2077,2041,2039
2074,2064,2054,2061,2053,2078,2040,2034
2074,2067,2049,2067,2048,2036,2060,2031
2075,2059,2039,2071,2043,2035,2061,2025
2075,2053,2035,2074,2061,2052,2040,2024
2069,2045,2026,2063,2084,2064,2049,2022
2054,2035,2031,2063,2078,2071,2055,2026
2068,2050,2038,2068,2046,2080,2077,2019
2066,2053,2046,2062,1990,2071,2060,2021
2060,2051,2047,2043,1947,2064,2064,2022
2057,2043,2050,2052,1961,2058,2041,2022
2060,2044,2053,2064,1971,2053,2048,2025
2059,2046,2058,2065,1979,2051,2064,2031
2064,2053,2063,2055,1957,2037,2045,2039
2062,2051,2058,2038,1930,2005,2023,2039
2065,2045,2060,2040,1977,2018,2051,2042
2065,2054,2067,2064,2011,2041,2056,2052
2073,2055,2062,2061,2004,2044,2032,2060
2065,2054,2052,2055,1998,2037,2035,2068
2070,2052,2041,2043,2002,2036,2030,2071
2070,2060,2043,2053,2026,2040,2046,2061
2066,2048,2044,2055,2046,2050,2046,2060
2061,2045,2044,2057,2044,2043,2051,2061
2061,2051,2051,2059,2038,2049,2044,2057
2059,2055,2039,2054,2021,2054,2052,2050
2063,2053,2035,2051,2024,2058,2059,2052
2074,2050,2037,2058,2034,2066,2064,2053
2066,2050,2040,2065,2058,2064,2064,2055
2069,2051,2042,2063,2070,2069,2064,2047
2066,2048,2041,2072,2064,2070,2076,2053
2070,2063,2046,2074,2046,2065,2082,2047
2076,2067,2051,2082,2041,2071,2081,2043
2075,2067,2046,2074,2040,2072,2082,2036
2079,2062,2035,2066,2029,2067,2078,2027
2080,2058,2025,2043,2000,2053,2066,2022
2075,2047,2025,2026,1987,2050,2052,2015
2072,2052,2034,2022,1963,2042,2037,2014
2060,2041,2032,2002,1872,2032,2042,2005
2054,2031,2022,1973,1758,2015,2042,2007
2061,2041,2018,1973,1802,2010,2042,2013
2066,2047,2032,1996,1881,2021,2028,2025
2071,2057,2048,2017,1953,2039,2038,2020
2067,2063,2044,2026,1993,2049,2069,2030
2072,2064,2044,2044,2001,2047,2056,2032
2075,2063,2040,2043,2004,2048,2059,2045
2071,2057,2035,2039,2017,2051,2042,2049
2067,2056,2036,2032,2040,2065,2046,2050
2068,2055,2028,2034,2054,2065,2062,2051
2060,2051,2016,2030,2064,2064,2042,2058
2064,2061,2029,2041,2111,2055,2025,2059
2069,2064,2034,2048,2144,2063,2036,2061
2062,2058,2031,2051,2187,2088,2038,2052
2060,2048,2032,2051,2223,2116,2045,2044
2054,2040,2037,2057,2214,2110,2036,2036
2047,2038,2044,2056,2137,2087,2041,2040
2054,2047,2050,2048,2076,2069,2043,2049
2065,2050,2033,2034,2023,2015,2038,2044
2058,2047,2035,2025,1992,1973,2036,2041
2062,2044,2033,2029,1945,1963,2040,2048
2062,2047,2035,2048,1905,1999,2044,2060
2067,2048,2044,2052,1960,2029,2068,2057
2064,2044,2044,2057,2019,2061,2078,2046
2061,2047,2045,2046,2012,2060,2085,2046
2063,2046,2054,2035,2001,2054,2056,2031
2061,2050,2061,2044,1998,2053,2084,2027
2067,2051,2058,2046,2015,2051,2077,2021
2068,2043,2055,2054,2018,2048,2080,2017
2069,2042,2051,2058,2016,2044,2080,2019
2067,2039,2043,2051,1997,2045,2072,2014
2061,2036,2045,2037,1968,2048,2075,2010
2062,2049,2059,2044,1961,2046,2068,2015
2074,2061,2064,2049,1993,2050,2071,2013
2073,2065,2064,2049,2012,2049,2063,2014
2076,2064,2070,2047,2042,2049,2061,2017
2080,2070,2071,2051,2054,2060,2060,2025
2076,2070,2066,2053,2054,2061,2040,2037
2067,2066,2062,2052,2036,2062,2039,2047
2072,2059,2045,2046,2037,2072,2055,2049
2072,2058,2049,2053,2046,2084,2056,2045
2071,2051,2050,2055,2018,2074,2061,2056
2071,2050,2047,2058,1972,2042,2053,2059
2075,2056,2046,2066,1986,2033,2065,2065
2072,2062,2049,2067,2007,2049,2064,2065
2078,2066,2046,2058,2019,2063,2069,2073
2080,2061,2040,2047,1970,2052,2055,2065
2071,2053,2024,2025,1907,2021,2035,2050
2062,2042,2013,2026,1902,2014,2047,2056
2064,2053,2024,2059,1962,2038,2061,2062
2071,2052,2028,2067,2011,2045,2044,2065
2065,2052,2024,2064,2057,2049,2040,2068
2065,2048,2020,2050,2092,2033,2028,2059
2064,2039,2016,2032,2075,2016,2027,2040
2061,2039,2023,2023,2029,2027,2016,2046
2059,2048,2043,2037,2078,2062,2045,2046
2067,2060,2066,2054,2164,2088,2068,2038
2070,2068,2079,2064,2189,2100,2055,2038
2076,2077,2093,2067,2163,2097,2068,2033
2073,2071,2097,2058,2105,2092,2052,2022
2066,2068,2093,2045,2041,2077,2053,2016
2064,2065,2086,2043,2021,2073,2054,2009
2063,2055,2070,2035,2027,2055,2050,2000
2060,2048,2060,2030,2031,2035,2029,1991
2042,2033,2042,2005,1965,2004,2008,1985
2042,2029,2039,1988,1906,1997,2018,1995
2044,2049,2049,2014,1947,2014,2024,2006
2042,2055,2062,2047,1989,2016,2036,2018
2052,2059,2065,2048,1996,2029,2016,2017
2058,2052,2064,2041,1996,2052,2030,2018
2055,2050,2054,2035,1988,2058,2044,2023
2057,2054,2052,2032,2014,2065,2024,2036
2062,2054,2051,2044,2028,2064,2020,2049
2057,2056,2057,2051,2038,2026,2041,2056
2064,2053,2063,2056,2037,2018,2044,2059
2067,2051,2059,2054,2027,2031,2039,2058
2061,2048,2056,2054,2038,2048,2070,2052
2058,2044,2058,2058,2049,2058,2058,2054
2058,2048,2058,2070,2057,2077,2050,2060
2055,2050,2061,2070,2050,2080,2040,2052
2050,2048,2063,2056,1996,2061,2043,2052
2051,2043,2067,2056,1941,2059,2067,2057
2059,2056,2062,2045,1941,2061,2047,2047
2061,2050,2050,2040,2021,2056,2060,2048
2056,2057,2039,2045,2082,2058,2043,2053
2066,2060,2032,2039,2071,2040,2045,2049
2054,2054,2027,2026,2023,2016,2037,2049
2056,2046,2025,2026,2000,2011,2056,2039
2062,2041,2024,2028,1990,2014,2062,2040
2061,2039,2021,2022,1982,2024,2064,2036
2056,2043,2024,2030,2008,2044,2064,2030
2063,2047,2027,2027,2005,2065,2083,2023
2067,2044,2030,2022,1995,2065,2070,2016
2055,2048,2033,2014,1994,2067,2067,2004
2052,2040,2034,2029,2008,2061,2066,2001
2050,2044,2038,2037,2012,2055,2061,1991
2044,2030,2032,2035,2007,2036,2046,1991
2050,2032,2039,2049,2074,2033,2045,2000
2061,2049,2047,2060,2102,2038,2048,2009
2071,2054,2058,2060,2126,2040,2049,2016
2070,2061,2060,2056,2151,2032,2043,2021
2074,2063,2067,2064,2182,2040,2051,2029
2069,2059,2072,2075,2210,2063,2031,2033
2079,2060,2073,2090,2226,2071,2043,2033
2065,2054,2067,2087,2172,2053,2041,2029
2051,2044,2062,2074,2082,2034,2051,2029
2058,2046,2069,2064,1975,2021,2039,2040
2066,2048,2069,2052,1932,2020,2039,2049
2058,2049,2077,2049,1967,2018,2023,2049
2061,2053,2072,2049,1980,2008,2024,2043
2052,2040,2066,2057,1904,1990,2037,2040
2044,2029,2047,2048,1867,1970,2025,2026
2031,2012,2040,2047,1909,1967,2021,2026
2037,2018,2050,2066,1988,1990,2036,2046
2053,2028,2050,2081,2045,2020,2051,2041
2059,2032,2044,2089,2063,2035,2042,2046
2058,2039,2039,2086,2040,2043,2047,2046
2063,2034,2037,2070,2082,2040,2044,2042
2058,2029,2020,2040,2093,2041,2052,2035
2056,2036,2029,2037,2086,2055,2055,2022
2057,2048,2061,2067,2153,2074,2066,2019
2064,2060,2075,2088,2196,2093,2055,2013
2064,2054,2062,2075,2123,2091,2055,2012
2056,2056,2051,2055,2041,2092,2079,2002
2056,2049,2054,2052,2015,2069,2079,2001
2059,2048,2051,2031,1981,2036,2050,1993
2051,2038,2037,2004,1949,1990,2042,1984
2040,2034,2034,2006,1935,1982,2045,1987
2033,2022,2023,2010,1938,2011,2057,1988
2036,2021,2037,2006,1933,2027,2058,1987
2043,2037,2045,2003,1937,2029,2036,1996
2044,2041,2044,1996,1968,2036,2042,2003
2045,2044,2037,1997,1994,2038,2051,2016
2049,2045,2026,1997,1994,2044,2054,2025
2057,2047,2030,2004,1980,2037,2063,2033
2060,2049,2031,2019,2020,2049,2061,2037
2055,2048,2032,2038,2067,2053,2055,2044
2059,2057,2042,2056,2121,2066,2057,2046
2058,2052,2047,2059,2164,2077,2075,2043
2055,2044,2037,2050,2165,2087,2059,2042
2051,2039,2031,2059,2194,2095,2070,2047
2051,2042,2023,2066,2189,2089,2066,2048
2052,2033,2021,2057,2170,2083,2063,2041
2050,2028,2012,2044,2141,2064,2047,2037
2035,2004,1993,2035,2080,2050,2041,2039
2038,2007,2000,2042,2138,2074,2058,2038
2042,2030,2010,2065,2157,2070,2041,2034
2033,2030,2022,2063,2098,2067,2058,2030
2026,2030,2028,2057,1996,2062,2044,2031
2040,2038,2050,2063,1992,2067,2045,2029
2040,2044,2066,2038,1889,2040,2047,2023
2038,2044,2073,2023,1830,2025,2048,2033
2037,2043,2087,2062,1973,2059,2069,2034
2051,2047,2086,2085,2053,2089,2064,2023
2046,2051,2080,2080,2074,2080,2059,2008
2040,2039,2065,2074,2073,2065,2037,2004
2043,2036,2070,2091,2126,2053,2018,2002
2047,2040,2093,2103,2138,2049,2042,1997
2047,2043,2099,2096,2116,2038,2041,1994
2047,2038,2097,2073,2069,2035,2025,1989
2037,2036,2091,2042,2027,2027,2031,1986
2043,2043,2094,2026,2014,2036,2054,2000
2053,2055,2086,2024,2011,2029,2048,2010
2058,2054,2066,2004,1982,2013,2037,2011
2056,2042,2046,1997,1971,2006,2028,2007
2047,2038,2038,1994,1948,2012,2034,2010
2039,2031,2038,1988,1940,2038,2037,2013
2037,2036,2051,1997,1938,2061,2050,2020
2051,2042,2061,2009,1943,2082,2051,2028
2058,2047,2058,2010,1956,2081,2027,2039
2053,2047,2055,2023,1956,2079,2054,2034
2044,2044,2048,2035,1967,2073,2058,2034
2037,2045,2044,2036,1957,2046,2050,2048
2044,2052,2052,2030,1953,2030,2052,2063
2061,2058,2058,2029,1922,2026,2071,2065
2061,2050,2047,2015,1975,2020,2052,2058
2054,2037,2035,2011,2063,2021,2042,2048
2034,2032,2029,2014,2053,2025,2038,2043
2048,2049,2038,2029,2061,2046,2043,2049
2054,2052,2046,2036,2089,2047,2060,2041
2052,2048,2052,2047,2101,2032,2036,2040
2057,2046,2049,2062,2120,2024,2040,2043
2055,2044,2056,2061,2104,2024,2040,2033
2056,2048,2049,2052,2086,2030,2054,2031
2058,2052,2039,2053,2075,2040,2052,2032
2056,2052,2037,2051,2082,2058,2079,2019
2052,2042,2041,2056,2121,2067,2067,2007
2043,2032,2031,2063,2169,2073,2056,1997
2036,2025,2023,2069,2217,2076,2057,2001
2035,2029,2023,2079,2246,2084,2064,2010
2043,2033,2019,2069,2256,2088,2070,2012
2046,2035,2024,2069,2260,2083,2064,2007
2041,2035,2023,2063,2232,2061,2050,1998
2035,2029,2018,2048,2154,2037,2035,1989
2043,2040,2034,2057,2079,2042,2042,1990
2048,2045,2042,2049,1958,2035,2032,1996
2052,2042,2030,2022,1874,2030,2037,1995
2043,2040,2032,2012,1879,2043,2066,2012
2052,2045,2037,2023,1898,2056,2065,2024
2055,2053,2060,2029,1851,2050,2069,2033
2060,2048,2070,2031,1831,2035,2072,2037
2054,2038,2054,2027,1862,2031,2066,2033
2056,2042,2049,2033,1903,2043,2042,2034
2056,2042,2056,2024,1903,2040,2033,2032
2047,2045,2061,2024,1921,2038,2053,2035
2042,2044,2081,2027,1936,2045,2055,2035
2049,2047,2086,2035,1984,2053,2068,2040
2044,2049,2077,2046,2053,2045,2050,2046
2049,2041,2063,2052,2090,2033,2042,2039
2043,2042,2055,2062,2113,2052,2041,2043
2055,2052,2066,2087,2132,2073,2066,2038
2049,2043,2059,2073,2111,2060,2059,2035
2041,2040,2058,2064,2103,2016,2036,2037
2042,2044,2061,2061,2111,1997,2038,2040
2053,2054,2054,2049,2108,1983,2037,2033
2052,2048,2051,2029,2103,1980,2025,2022
2054,2053,2052,2045,2191,2011,2042,2021
2057,2064,2060,2078,2294,2041,2052,2023
2057,2068,2070,2090,2332,2061,2069,2025
2058,2060,2066,2069,2256,2068,2074,2023
2056,2063,2060,2037,2050,2049,2061,2008
2044,2044,2044,1994,1845,2015,2038,1997
2035,2039,2043,2000,1883,2022,2044,1989
2037,2037,2047,2016,1950,2034,2055,1988
2028,2024,2033,2019,1982,2032,2037,1979
2030,2021,2026,2026,2020,2036,2049,1992
2035,2036,2031,2035,2058,2037,2064,1995
2037,2033,2033,2035,2061,2035,2056,2001
2040,2037,2031,2021,2049,2028,2046,2005
2039,2037,2039,2026,2043,2028,2052,2010
2036,2036,2043,2028,2045,2035,2043,2013
2041,2035,2041,2043,2056,2038,2041,2024
2039,2039,2035,2053,2052,2054,2065,2033
2045,2042,2036,2046,2035,2044,2066,2037
2050,2041,2035,2048,2042,2039,2046,2040
2044,2042,2038,2056,2060,2054,2052,2040
2047,2045,2042,2061,2080,2073,2045,2047
2050,2045,2041,2064,2091,2090,2061,2047
2052,2047,2037,2065,2095,2096,2059,2047
2052,2055,2040,2062,2093,2099,2074,2049
2040,2036,2019,2051,2070,2106,2052,2045
2035,2033,2021,2039,2070,2108,2058,2048
2038,2048,2032,2055,2049,2109,2066,2047
2044,2046,2034,2041,2029,2083,2047,2037
2037,2045,2031,2029,2037,2063,2036,2029
2041,2045,2025,2038,2062,2066,2051,2041
2048,2051,2034,2067,2098,2037,2058,2042
2051,2052,2035,2057,2044,2014,2060,2040
2050,2053,2040,2048,1969,2013,2048,2042
2058,2056,2039,2042,1986,2037,2057,2038
2050,2053,2033,2036,2027,2052,2067,2027
2044,2044,2022,2023,1992,2025,2048,2015
2034,2038,2019,2006,1994,2034,2047,2008
2026,2028,2017,2011,2058,2068,2058,2011
2036,2038,2034,2043,2124,2094,2053,2010
2040,2054,2057,2060,2158,2101,2047,2011
2037,2049,2062,2057,2164,2083,2051,2015
2033,2044,2063,2055,2180,2068,2059,2017
2034,2056,2068,2050,2168,2052,2048,2018
2038,2052,2059,2034,2048,2049,2056,2016
2036,2048,2052,2015,1911,2042,2062,2022
2036,2050,2051,2031,1934,2043,2058,2027
2047,2061,2066,2047,1981,2025,2051,2033
2044,2063,2044,2046,1978,2005,2032,2039
2035,2050,2031,2042,1968,2036,2060,2040
2039,2054,2038,2044,1957,2042,2048,2040
2044,2059,2040,2035,1992,2031,2052,2038
2039,2051,2037,2016,1970,2014,2044,2038
2022,2038,2021,2014,1976,1980,2033,2039
2020,2037,2016,2030,2020,1974,2037,2039
2026,2039,2024,2029,2045,1989,2033,2041
2025,2037,2023,2028,2066,2021,2030,2037
2022,2034,2023,2034,2114,2041,2032,2041
2023,2032,2027,2042,2141,2054,2061,2045
2040,2047,2055,2059,2135,2055,2044,2045
2035,2059,2058,2053,2125,2044,2046,2034
2035,2060,2068,2053,2136,2043,2026,2037
2036,2061,2065,2044,2104,2047,2061,2039
2046,2060,2055,2040,2072,2038,2036,2050
2047,2071,2056,2038,2045,2033,2050,2052
2061,2072,2060,2042,2009,2031,2048,2046
2058,2071,2065,2032,1879,2012,2038,2039
2056,2065,2068,2029,1851,2008,2036,2027
2044,2055,2065,2040,1931,2032,2041,2020
2044,2058,2067,2071,2038,2060,2059,2019
2049,2070,2080,2111,2129,2080,2052,2017
2046,2060,2076,2117,2110,2077,2061,2014
2048,2055,2068,2111,2100,2072,2063,2006
2032,2038,2055,2113,2123,2072,2063,2000
2034,2029,2054,2103,2074,2066,2056,2012
2039,2045,2055,2086,1995,2050,2076,2003
2037,2050,2054,2072,1929,2043,2064,2015
2042,2058,2054,2050,1852,2027,2049,2027
2046,2058,2043,2019,1770,2027,2049,2036
2048,2060,2037,2017,1863,2026,2044,2042
2041,2050,2024,2013,1954,2022,2042,2040
2036,2046,2011,2018,2028,2040,2037,2042
2030,2038,2004,2026,2092,2071,2049,2049
2033,2042,2021,2020,2134,2083,2052,2038
2034,2048,2052,2008,2092,2076,2044,2048
2034,2056,2064,2016,2071,2075,2063,2052
2041,2063,2073,2039,2134,2090,2060,2059
2046,2070,2081,2066,2214,2100,2049,2068
2043,2067,2077,2062,2228,2085,2041,2062
2033,2054,2059,2042,2171,2064,2036,2052
2034,2050,2064,2042,2088,2047,2045,2052
2041,2056,2067,2029,1989,2022,2047,2050
2037,2047,2059,2024,1971,2015,2054,2049
2029,2051,2062,2045,2061,2036,2051,2054
2028,2050,2072,2072,2177,2055,2063,2042
2037,2045,2066,2076,2199,2053,2059,2042
2032,2050,2068,2069,2151,2052,2066,2049
2037,2053,2059,2064,2120,2062,2080,2043
2037,2054,2055,2054,2072,2055,2071,2031
2040,2048,2048,2032,2015,2033,2069,2026
2028,2043,2038,2020,1983,2012,2055,2018
2032,2037,2033,2008,1983,1996,2063,2005
2025,2029,2020,1979,1914,1987,2054,2005
2033,2039,2026,1994,1938,2002,2054,2013
2036,2043,2035,2021,2041,2025,2040,2007
2031,2039,2026,2014,2095,2036,2039,2000
2020,2031,2018,2024,2106,2059,2041,2009
2027,2032,2020,2024,2101,2052,2054,2007
2025,2034,2029,2035,2095,2057,2067,2017
2020,2042,2036,2034,2091,2057,2060,2021
2030,2044,2039,2040,2060,2059,2082,2034
2021,2041,2037,2039,2054,2054,2062,2040
2030,2041,2039,2047,2089,2048,2053,2049
2040,2046,2045,2051,2080,2059,2033,2057
2036,2040,2039,2051,2066,2063,2043,2053
2026,2034,2035,2048,2055,2063,2046,2046
2017,2030,2030,2043,2048,2070,2056,2040
2029,2031,2034,2040,2064,2058,2064,2037
2033,2031,2035,2053,2150,2051,2073,2046
2032,2031,2042,2073,2181,2054,2077,2052
2034,2036,2052,2086,2148,2071,2059,2055
2037,2031,2052,2084,2117,2088,2076,2061
2038,2033,2058,2086,2182,2083,2050,2056
2050,2032,2059,2085,2217,2067,2018,2047
2038,2036,2057,2092,2229,2058,2039,2062
2044,2046,2070,2102,2243,2069,2053,2067
2052,2056,2067,2099,2182,2044,2049,2065
2058,2059,2068,2089,2101,2030,2053,2051
2054,2063,2070,2094,2124,2023,2054,2034
2043,2057,2069,2088,2113,2012,2034,2022
2036,2052,2066,2078,2131,2031,2037,2024
2021,2048,2052,2069,2132,2042,2017,2027
2027,2059,2052,2033,1927,2024,2021,2020
2021,2054,2057,2004,1826,2027,2028,2013
2031,2057,2045,2005,1930,2051,2029,2017
2035,2056,2044,2003,1993,2069,2026,2013
2039,2053,2037,1990,1972,2053,2022,2005
2021,2046,2028,1964,1878,2024,2006,2000
2024,2046,2030,1957,1848,2006,2039,2012
2030,2050,2032,1970,1885,1997,2042,2010
2034,2049,2038,1992,1952,2011,2043,2011
2030,2045,2039,2018,2038,2021,2042,2020
2025,2037,2031,2033,2122,2023,2046,2021
2029,2036,2034,2056,2175,2038,2044,2030
2032,2038,2038,2070,2154,2038,2018,2039
2032,2041,2034,2056,2110,2031,2018,2031
2029,2034,2034,2043,2084,2032,2026,2037
2021,2037,2031,2037,2064,2030,2030,2035
2023,2033,2039,2035,2049,2029,2017,2041
2028,2038,2039,2039,2043,2036,2030,2050
2032,2037,2033,2044,2056,2039,2034,2056
2035,2035,2046,2042,2042,2048,2061,2064
2035,2034,2041,2032,2041,2033,2016,2054
2026,2019,2033,2026,2046,2038,2012,2045
2028,2013,2039,2033,2055,2033,2031,2047
2037,2025,2036,2041,2057,2014,2033,2041
2032,2030,2045,2046,2078,2018,2024,2048
2040,2034,2048,2052,2078,2034,2038,2048
2042,2039,2053,2051,2069,2048,2044,2045
2039,2045,2057,2056,2074,2059,2039,2040
2045,2048,2054,2056,2075,2045,2034,2034
2041,2042,2043,2045,2064,2031,2017,2032
2039,2038,2043,2047,2077,2033,2030,2025
2038,2029,2043,2050,2075,2051,2041,2021
2040,2037,2041,2052,2078,2069,2057,2020
2037,2036,2044,2052,2079,2097,2067,2018
2039,2044,2041,2050,2071,2113,2058,2013
2039,2043,2042,2047,2076,2099,2059,2014
2036,2041,2045,2048,2068,2094,2052,2008
2026,2030,2032,2044,2061,2078,2050,2003
2027,2027,2040,2047,2058,2071,2057,2013
2040,2040,2047,2053,2055,2063,2063,2008
2045,2043,2046,2059,2065,2068,2058,2017
2045,2046,2044,2055,2097,2076,2055,2025
2050,2043,2042,2052,2101,2079,2067,2027
2052,2040,2046,2055,2113,2073,2055,2035
2050,2042,2043,2049,2087,2057,2048,2038
2039,2039,2036,2037,2034,2040,2052,2037
2044,2033,2032,2043,2018,2047,2046,2037
2035,2035,2034,2038,2029,2053,2030,2034
2032,2026,2038,2038,2053,2049,2003,2039
2032,2032,2042,2038,2047,2033,2012,2039
2032,2032,2041,2039,2054,2012,2015,2038
2035,2028,2042,2040,2054,2005,2028,2040
2032,2035,2034,2042,2033,2004,2001,2048
2032,2013,2023,2039,2026,2007,1992,2049
2032,2025,2026,2036,2029,2017,2013,2053
2043,2036,2039,2049,2033,2018,2012,2055
2041,2040,2036,2043,2043,2017,2021,2053
2040,2040,2038,2048,2047,2020,2036,2054
2038,2043,2055,2055,2092,2047,2052,2053
2040,2055,2072,2062,2147,2070,2057,2046
2039,2053,2075,2066,2184,2082,2047,2046
2039,2053,2069,2066,2192,2081,2045,2034
2039,2052,2072,2069,2207,2080,2048,2030
2042,2051,2074,2072,2171,2076,2045,2029
2038,2050,2070,2051,2117,2073,2054,2025
2038,2046,2065,2046,2057,2061,2052,2021
2034,2051,2082,2046,1994,2058,2050,2019
2040,2052,2085,2040,1904,2074,2057,2026
2035,2050,2088,2039,1936,2104,2043,2021
2031,2042,2082,2045,1987,2123,2051,2013
2030,2045,2073,2052,2012,2148,2079,2020
2037,2055,2079,2054,2035,2176,2075,2017
2034,2050,2069,2054,2046,2147,2046,2023
2040,2049,2064,2053,2042,2051,2029,2024
2040,2049,2062,2053,2023,1940,2004,2021
2039,2045,2056,2046,2021,1932,2003,2030
2034,2041,2056,2040,2036,1950,1999,2038
2034,2035,2053,2038,2028,1967,2027,2043
2034,2040,2048,2042,2038,1985,2042,2045
2037,2038,2044,2044,2035,2003,2033,2048
2041,2036,2038,2049,2045,2013,2042,2054
2036,2033,2033,2054,2054,2027,2008,2058
2035,2027,2022,2056,2060,2032,2023,2057
2030,2023,2010,2065,2058,2038,2024,2056
2027,2016,1997,2061,2059,2036,2009,2050
2025,1999,1974,2057,2047,2030,2012,2044
2018,1995,1967,2058,2052,2046,2027,2048
2019,2005,1964,2060,2069,2050,2022,2047
2025,1997,1964,2051,2064,2049,2031,2052
2029,2002,1970,2047,2067,2054,2052,2059
2035,2009,1990,2054,2071,2056,2058,2064
2038,2017,2003,2063,2075,2060,2061,2058
2039,2023,1998,2055,2072,2053,2049,2056
2038,2030,2006,2044,2068,2050,2063,2048
2031,2022,2013,2032,2060,2047,2043,2039
2023,2017,2023,2020,2051,2037,2038,2033
2018,2012,2037,2007,2042,2029,2036,2025
2018,2027,2062,2024,2051,2025,2044,2018
2029,2038,2080,2025,2038,2026,2036,2015
2026,2043,2082,2021,2048,2021,2028,2015
2027,2057,2086,2028,2050,2019,2028,2016
2028,2058,2094,2029,2046,2028,2027,2021
2038,2070,2111,2036,2045,2040,2052,2021
2042,2076,2117,2050,2064,2039,2055,2032
2041,2074,2106,2054,2057,2040,2059,2032
2039,2072,2106,2051,2052,2027,2056,2040
2042,2065,2102,2051,2025,2016,2024,2041
2038,2067,2088,2043,2006,2011,2015,2044
2043,2062,2078,2043,2003,2011,2016,2053
2036,2053,2075,2036,2009,2027,2042,2058
2042,2060,2083,2047,2041,2046,2051,2065
2041,2064,2095,2061,2070,2050,2050,2065
2039,2063,2093,2074,2085,2067,2050,2065
2048,2073,2097,2076,2101,2086,2062,2068
2043,2072,2100,2091,2095,2094,2029,2067
2040,2064,2092,2091,2074,2085,2038,2070
2039,2058,2089,2088,2065,2061,2042,2067
2038,2040,2069,2080,2041,2039,2030,2056
2031,2040,2068,2081,2023,2032,2032,2062
2035,2054,2071,2095,2024,2050,2045,2069
2041,2052,2068,2081,1993,2048,2046,2066
2043,2047,2051,2074,2009,2041,2028,2064
2044,2044,2039,2080,2061,2044,2031,2049
2044,2039,2045,2089,2076,2044,2042,2048
2041,2051,2057,2082,2051,2044,2030,2049
2033,2047,2059,2063,2044,2041,2032,2038
2031,2040,2058,2045,2029,2047,2044,2025
2023,2038,2062,2039,2023,2063,2019,2016
2021,2041,2051,2028,2075,2086,2033,2019
2029,2044,2047,2040,2137,2105,2033,2024
2044,2050,2022,2031,2134,2084,2041,2020
2042,2048,1997,2023,2096,2022,2034,2022
2046,2046,1998,2031,2098,2016,2044,2017
2035,2029,1991,2029,2115,2026,2046,2019
2031,2030,2021,2048,2141,2013,2033,2022
2035,2051,2051,2063,2147,2024,2061,2032
2045,2056,2072,2059,2145,2031,2048,2033
2037,2055,2081,2060,2138,2034,2032,2029
2037,2050,2083,2049,2126,2033,2046,2028
2038,2044,2069,2050,2114,2041,2038,2039
2041,2042,2065,2044,2109,2053,2042,2042
2038,2045,2068,2038,2093,2059,2044,2044
2036,2041,2070,2014,1965,2053,2038,2047
2033,2049,2081,2018,1946,2067,2047,2060
2039,2056,2078,2039,1988,2091,2059,2055
2037,2055,2078,2056,2033,2089,2039,2054
2040,2054,2080,2068,2054,2081,2049,2064
2037,2051,2086,2080,2038,2080,2046,2068
2040,2056,2080,2087,2020,2075,2044,2068
2037,2044,2072,2076,1952,2045,2026,2061
2031,2037,2068,2062,1914,2014,2014,2065
2039,2051,2072,2064,1918,2009,2043,2065
2040,2050,2069,2056,1928,1999,2029,2063
2045,2052,2080,2058,1986,2016,2032,2064
2053,2055,2078,2076,2079,2031,2035,2069
2051,2053,2072,2088,2139,2039,2057,2070
2055,2055,2079,2099,2179,2053,2064,2065
2052,2048,2069,2085,2138,2058,2063,2061
2050,2044,2062,2067,2106,2056,2056,2050
2038,2035,2050,2055,2098,2060,2061,2041
2040,2033,2048,2049,2082,2050,2058,2040
2036,2037,2040,2040,2072,2053,2052,2030
2033,2025,2033,2030,2078,2066,2047,2023
2030,2030,2046,2032,2088,2078,2052,2023
2032,2041,2046,2037,2095,2080,2062,2027
2026,2028,2031,2025,2072,2066,2044,2019
2025,2025,2032,2024,2059,2058,2033,2014
2031,2038,2034,2020,2057,2045,2039,2022
2029,2037,2029,2010,2065,2045,2024,2033
2030,2036,2034,2034,2113,2065,2036,2028
2031,2039,2034,2034,2094,2058,2055,2034
2035,2038,2036,2040,2068,2051,2046,2041
2039,2045,2049,2045,2064,2065,2035,2045
2046,2052,2054,2053,2063,2079,2047,2049
2039,2044,2046,2049,2080,2099,2044,2055
2038,2034,2036,2042,2076,2095,2051,2059
2030,2029,2037,2037,2077,2075,2047,2056
2025,2026,2029,2045,2076,2067,2034,2060
2028,2026,2035,2047,2065,2063,2032,2058
2030,2025,2030,2046,2063,2053,2029,2064
2031,2026,2038,2045,2055,2039,2030,2070
2026,2025,2025,2038,2057,2040,2011,2069
2033,2021,2028,2044,2038,2038,2033,2067
2044,2035,2038,2046,2031,2038,2048,2077
2045,2042,2047,2044,2026,2026,2056,2075
2045,2049,2043,2047,2029,2027,2046,2070
2051,2048,2044,2048,2035,2031,2046,2067
2048,2045,2043,2046,2045,2042,2042,2058
2045,2044,2045,2047,2045,2057,2045,2058
2032,2041,2050,2057,2046,2068,2041,2050
2025,2036,2052,2062,2072,2071,2049,2042
2032,2039,2059,2067,2088,2075,2036,2040
2029,2043,2069,2064,2083,2067,2026,2034
2030,2046,2068,2060,2071,2062,2030,2033
2036,2043,2064,2055,2064,2056,2018,2032
2030,2041,2050,2049,2056,2026,2013,2022
2033,2037,2042,2041,2068,2013,2009,2020
2037,2033,2046,2042,2073,2015,2019,2009
2029,2026,2048,2045,2098,2021,2021,2008
2031,2038,2060,2057,2137,2044,2048,2023
2038,2044,2067,2076,2150,2062,2050,2031
2046,2041,2068,2083,2157,2082,2056,2030
2051,2036,2060,2083,2137,2095,2046,2032
2039,2036,2056,2071,2109,2111,2052,2032
2036,2034,2049,2062,2091,2118,2054,2036
2037,2036,2051,2042,1975,2091,2033,2056
2038,2032,2054,2024,1939,2066,2050,2064
2048,2046,2066,2042,1956,2064,2069,2069
2055,2053,2068,2056,2007,2064,2062,2075
2052,2059,2069,2054,2080,2062,2046,2080
2043,2053,2066,2058,2090,2056,2035,2072
2043,2047,2061,2057,2093,2052,2044,2070
2042,2033,2052,2061,2100,2051,2044,2071
2042,2038,2046,2053,2117,2036,2047,2077
2031,2026,2035,2038,2107,2009,2041,2072
2033,2018,2034,2026,2021,1981,2040,2076
2041,2032,2047,2029,1954,1976,2051,2078
2041,2037,2055,2027,1924,1975,2051,2072
2040,2033,2046,2033,1960,1991,2045,2071
2041,2028,2039,2034,1996,2005,2045,2058
2031,2033,2041,2043,2029,2010,2037,2058
2029,2030,2034,2044,2065,2012,2026,2054
2030,2031,2035,2044,2092,2007,2025,2051
2032,2037,2047,2055,2133,2012,2017,2054
2035,2041,2047,2066,2172,2023,2022,2050
2036,2037,2040,2073,2198,2052,2044,2046
2030,2035,2024,2067,2152,2076,2043,2046
2033,2026,2022,2061,2105,2104,2053,2038
2032,2026,2019,2044,2101,2101,2052,2031
2031,2023,2010,2030,2075,2084,2037,2035
2032,2021,2024,2027,2064,2055,2035,2023
2029,2025,2026,2026,2070,2048,2037,2036
2037,2036,2033,2036,2090,2058,2023,2041
2045,2047,2045,2047,2089,2069,2039,2047
2043,2046,2049,2053,2081,2060,2059,2042
2045,2034,2044,2047,2050,2058,2035,2037
2040,2029,2050,2039,1984,2038,2019,2036
2037,2029,2054,2025,1868,2017,2000,2043
2037,2031,2049,2017,1880,2028,2033,2051
2037,2031,2052,2030,1947,2064,2062,2068
2044,2041,2063,2054,2033,2106,2057,2071
2050,2052,2083,2066,2073,2121,2068,2083
2047,2056,2088,2060,2055,2104,2075,2081
2049,2044,2071,2057,2059,2106,2054,2073
2045,2036,2057,2038,2084,2102,2058,2072
2039,2028,2047,2044,2119,2101,2051,2063
2042,2032,2059,2063,2181,2106,2032,2068
2034,2011,2054,2060,2163,2069,2027,2066
2037,2010,2061,2068,2079,2022,2028,2075
2041,2033,2069,2076,2059,2034,2043,2071
2042,2031,2060,2084,2104,2053,2047,2073
2044,2030,2054,2079,2095,2064,2052,2076
2046,2025,2041,2074,2074,2054,2065,2075
2047,2035,2045,2072,2040,2040,2054,2075
2050,2036,2046,2061,1947,2009,2047,2062
2047,2031,2039,2048,1915,1997,2042,2056
2042,2026,2028,2030,1911,1978,2030,2046
2032,2018,2022,2022,1932,1991,2056,2041
2036,2019,2027,2037,2019,2023,2056,2038
2031,2014,2020,2031,2057,2024,2055,2028
2033,2018,2026,2023,2051,2023,2050,2031
2037,2021,2042,2031,2036,2028,2070,2031
2054,2031,2049,2027,2023,2033,2061,2031
2050,2034,2057,2019,2028,2044,2044,2029
2048,2030,2054,2030,2068,2048,2037,2031
2047,2040,2067,2048,2095,2054,2055,2033
2054,2060,2084,2059,2079,2065,2047,2039
2060,2062,2089,2061,2063,2072,2050,2043
2058,2056,2084,2069,2047,2064,2028,2045
2053,2045,2075,2071,2033,2067,2023,2047
2044,2044,2068,2068,2024,2071,2025,2040
2047,2040,2062,2063,2023,2074,2041,2050
2053,2037,2053,2060,2027,2080,2040,2061
2046,2030,2051,2061,2035,2074,2047,2064
2049,2027,2044,2059,2051,2076,2036,2068
2044,2034,2046,2055,2048,2046,2039,2065
2046,2034,2052,2054,2055,2013,2014,2065
2045,2037,2060,2041,2057,2016,2022,2062
2045,2039,2063,2038,2051,2031,2029,2068
2048,2041,2054,2035,2052,2050,2017,2072
2045,2029,2046,2028,2059,2058,2042,2073
2043,2030,2054,2034,2068,2063,2056,2076
2052,2043,2077,2051,2069,2074,2060,2081
2060,2052,2079,2049,2054,2064,2045,2082
2064,2058,2072,2042,2047,2050,2074,2082
2060,2055,2072,2038,2031,2043,2069,2079
2060,2054,2060,2027,2012,2027,2052,2069
2062,2044,2050,2033,2017,2029,2043,2072
2056,2040,2039,2031,2022,2026,2032,2067
2052,2035,2034,2032,2028,2034,2038,2064
2052,2033,2037,2043,2037,2053,2057,2059
2050,2029,2046,2057,2024,2067,2065,2052
2045,2034,2060,2065,2027,2067,2063,2043
2045,2020,2066,2068,2042,2067,2044,2031
2041,2019,2066,2077,2054,2057,2026,2032
2038,2015,2063,2080,2072,2034,2015,2026
2031,2014,2061,2086,2080,2005,2014,2023
2029,2017,2061,2078,2064,1986,2017,2027
2031,2011,2052,2073,2064,1981,1996,2024
2032,2024,2048,2065,2053,1995,2006,2027
2032,2021,2039,2056,2061,2003,2011,2021
2030,2018,2032,2050,2107,2023,2025,2032
2044,2024,2049,2066,2120,2051,2034,2042
2050,2036,2061,2099,2161,2078,2051,2058
2057,2043,2062,2099,2166,2101,2062,2073
2065,2038,2052,2076,2064,2088,2071,2072
2055,2031,2034,2050,1986,2077,2035,2074
2050,2029,2021,2049,2032,2080,2044,2071
2047,2034,2018,2048,2051,2076,2044,2074
2054,2042,2027,2044,2073,2061,2043,2081
2064,2050,2030,2050,2069,2050,2033,2077
2056,2049,2038,2057,2059,2042,2018,2082
2054,2042,2031,2054,2031,2038,2027,2084
2052,2046,2026,2053,2034,2044,2021,2083
2045,2027,2008,2049,2039,2042,2032,2079
2044,2026,2010,2050,2039,2047,2025,2086
2054,2030,2018,2036,2048,2052,2045,2078
2047,2028,2019,2012,2058,2055,2049,2080
2049,2033,2017,1980,2055,2054,2045,2082
2051,2039,2041,1975,2054,2055,2053,2090
2065,2060,2082,1990,2060,2062,2049,2086
2069,2070,2083,1989,2064,2060,2070,2077
2062,2064,2074,1983,2057,2062,2037,2076
2064,2059,2067,1988,2042,2056,2044,2077
2064,2058,2082,2004,2027,2034,2050,2065
2054,2048,2080,2009,2004,2011,2072,2060
2051,2045,2080,2018,2000,2012,2061,2047
2044,2041,2075,2025,2009,2038,2065,2046
2036,2036,2064,2036,2028,2058,2069,2043
2038,2038,2064,2050,2050,2071,2065,2042
2045,2036,2057,2049,2056,2062,2069,2038
2041,2031,2055,2043,2070,2064,2058,2037
2046,2040,2055,2052,2077,2060,2062,2039
2054,2042,2055,2049,2082,2060,2050,2036
2052,2043,2052,2046,2088,2060,2052,2036
2046,2037,2050,2048,2085,2053,2053,2037
2041,2034,2048,2043,2069,2056,2042,2039
2048,2038,2051,2041,2063,2049,2053,2051
2058,2047,2060,2042,2051,2044,2061,2059
2058,2046,2069,2041,2065,2049,2050,2073
2057,2046,2068,2046,2078,2049,2074,2081
2058,2052,2070,2043,2064,2049,2062,2087
2055,2048,2067,2047,2059,2052,2071,2088
2052,2042,2059,2046,2052,2064,2072,2085
2056,2042,2047,2054,2069,2060,2060,2085
2050,2033,2037,2046,2060,2048,2056,2083
2046,2036,2038,2048,2066,2053,2054,2081
2035,2023,2027,2042,2056,2047,2054,2071
2035,2022,2024,2037,2055,2044,2035,2076
2045,2030,2031,2044,2063,2046,2061,2076
2052,2038,2036,2046,2068,2044,2054,2081
2052,2047,2038,2057,2102,2056,2016,2084
2055,2048,2040,2058,2108,2062,2022,2078
2056,2048,2040,2045,2069,2041,2038,2076
2055,2050,2029,2034,2038,2042,2046,2075
2057,2045,2026,2035,2051,2046,2046,2073
2058,2039,2028,2037,2069,2056,2061,2071
2055,2046,2031,2043,2079,2065,2054,2066
2057,2051,2032,2054,2063,2061,2060,2053
2057,2056,2039,2061,2062,2058,2049,2045
2055,2051,2047,2070,2062,2060,2043,2043
2049,2051,2056,2069,2108,2065,2056,2037
2051,2052,2056,2070,2128,2060,2052,2037
2050,2043,2053,2060,2048,2034,2044,2039
2043,2028,2041,2055,1997,2041,2051,2026
2032,2028,2033,2055,2003,2089,2044,2026
2040,2033,2037,2062,2045,2122,2058,2040
2040,2030,2033,2077,2118,2133,2071,2045
2047,2041,2035,2073,2096,2109,2059,2048
2051,2044,2033,2059,2014,2043,2056,2058
2059,2046,2038,2046,1927,1969,2054,2075
2055,2052,2040,2031,1857,1962,2041,2068
2047,2046,2052,2033,1961,1999,2045,2063
2042,2046,2062,2047,2089,2036,2048,2068
2038,2042,2067,2065,2140,2058,2045,2075
2051,2041,2068,2048,1989,2027,2044,2072
2047,2038,2061,2016,1886,1990,2025,2072
2042,2039,2052,1998,1936,1983,2027,2069
2044,2044,2051,2012,2030,1996,2024,2077
2045,2045,2048,2029,2082,2012,2026,2075
2048,2043,2043,2055,2123,2019,2030,2069
2035,2033,2046,2067,2108,2024,2025,2071
2036,2028,2044,2057,2082,2035,2025,2077
2041,2042,2052,2049,2060,2045,2032,2076
2044,2037,2047,2040,2035,2049,2033,2070
2036,2038,2049,2034,1996,2044,2037,2071
2042,2044,2050,2025,1969,2039,2044,2069
2040,2041,2047,2038,1972,2022,2049,2071
2043,2046,2050,2052,2005,2006,2037,2067
2051,2049,2049,2063,2025,2008,2055,2078
2050,2049,2053,2069,2044,2019,2064,2068
2054,2056,2060,2072,2068,2038,2057,2066
2056,2060,2060,2072,2087,2044,2073,2060
2057,2055,2059,2067,2096,2041,2083,2054
2052,2059,2054,2064,2122,2045,2063,2039
2046,2056,2057,2062,2146,2051,2048,2034
2049,2054,2053,2065,2144,2056,2041,2036
2050,2047,2045,2061,2119,2062,2033,2029
2047,2039,2036,2056,2123,2070,2052,2027
2050,2041,2036,2061,2100,2080,2054,2035
2052,2046,2041,2051,2056,2055,2043,2032
2051,2047,2036,2042,2032,2038,2048,2032
2047,2036,2035,2042,2016,2032,2054,2039
2048,2040,2032,2036,1989,2032,2051,2038
2056,2039,2029,2036,1996,2035,2054,2048
2050,2036,2035,2039,2018,2040,2056,2049
2043,2032,2033,2046,2041,2041,2041,2056
2044,2032,2037,2043,2043,2048,2049,2059
2048,2038,2052,2051,2043,2048,2043,2062
2051,2040,2055,2052,2047,2047,2033,2068
2053,2036,2050,2053,2048,2044,2033,2068
2055,2030,2045,2052,2056,2052,2053,2076
2050,2040,2041,2050,2056,2055,2044,2079
2054,2035,2036,2046,2060,2051,2050,2076
2047,2019,2026,2035,2045,2046,2046,2074
2047,2016,2025,2040,2044,2047,2049,2070
2050,2032,2040,2050,2060,2058,2060,2074
2051,2038,2044,2048,2058,2056,2065,2068
2054,2031,2044,2049,2050,2052,2068,2069
2055,2033,2048,2050,2055,2061,2064,2069
2059,2039,2048,2054,2047,2059,2053,2066
2055,2038,2048,2059,2038,2053,2040,2060
2055,2040,2052,2057,2034,2050,2036,2060
2054,2043,2050,2058,2040,2060,2048,2057
2056,2042,2051,2055,2044,2060,2052,2058
2055,2046,2052,2053,2051,2059,2054,2055
2062,2050,2050,2049,2056,2057,2038,2058
2063,2050,2051,2044,2051,2051,2032,2046
2064,2044,2043,2036,2048,2058,2029,2036
2060,2040,2034,2036,2050,2053,2047,2038
2064,2041,2042,2036,2066,2042,2057,2034
2064,2031,2040,2039,2056,2044,2045,2028
2057,2031,2039,2047,2056,2035,2050,2041
2061,2039,2044,2054,2045,2031,2033,2044
2058,2041,2054,2058,2048,2029,2051,2053
2056,2042,2048,2066,2059,2033,2056,2050
2064,2034,2045,2071,2056,2031,2070,2054
2054,2032,2045,2073,2056,2026,2068,2049
2064,2035,2055,2076,2046,2028,2051,2049
2055,2038,2051,2084,2052,2042,2063,2055
2062,2047,2058,2084,2060,2045,2058,2060
2064,2051,2051,2093,2062,2050,2047,2067
2067,2048,2060,2089,2085,2049,2060,2074
2068,2044,2050,2091,2098,2047,2046,2078
2058,2046,2040,2087,2098,2054,2056,2081
2060,2047,2034,2093,2077,2051,2056,2081
2059,2049,2038,2088,2046,2050,2062,2082
2062,2044,2032,2072,2020,2037,2048,2071
2052,2038,2025,2054,2007,2029,2028,2069
2045,2035,2024,2039,1996,2036,2044,2075
2051,2038,2015,2024,1995,2033,2033,2067
2047,2037,2025,2017,1977,2035,2043,2068
2056,2047,2037,2016,1997,2040,2042,2069
2053,2049,2039,2014,2000,2046,2061,2071
2056,2051,2047,2016,2013,2061,2072,2069
2057,2045,2055,2020,2044,2063,2062,2071
2057,2053,2077,2041,2074,2059,2060,2066
2064,2058,2096,2056,2070,2058,2081,2061
2062,2063,2111,2061,2051,2057,2084,2060
2065,2074,2103,2071,2049,2057,2076,2055
2072,2074,2090,2067,2048,2060,2079,2043
2067,2073,2084,2068,2044,2059,2068,2044
2058,2064,2072,2064,2050,2084,2063,2039
2061,2060,2057,2061,2074,2122,2069,2032
2055,2044,2045,2055,2071,2128,2060,2027
2054,2041,2043,2035,2062,2095,2041,2025
2054,2054,2056,2032,2083,2008,2058,2029
2055,2046,2048,2015,2080,1964,2059,2032
2054,2048,2046,2005,2076,1993,2059,2035
2054,2047,2052,2004,2086,2019,2058,2039
2054,2053,2056,2012,2103,2038,2068,2049
2057,2053,2043,2006,2096,2050,2069,2061
2065,2052,2035,2010,2087,2051,2073,2070
2059,2045,2038,2027,2096,2049,2066,2062
2057,2036,2031,2021,2001,2034,2063,2057
2050,2039,2030,2011,1904,2041,2063,2060
2053,2035,2031,2021,1955,2062,2065,2064
2051,2038,2031,2030,1998,2081,2069,2064
2050,2036,2038,2035,2019,2108,2074,2060
2048,2036,2040,2039,2025,2108,2077,2064
2050,2036,2042,2045,2031,2088,2066,2062
2044,2026,2032,2036,2030,2035,2036,2070
2045,2026,2029,2036,2031,2015,2059,2079
2057,2041,2038,2045,2051,2026,2041,2077
2053,2042,2032,2047,2042,2041,2050,2076
2057,2038,2030,2046,2044,2048,2061,2076
2057,2035,2029,2050,2043,2047,2067,2073
2045,2040,2034,2051,2045,2057,2062,2070
2052,2040,2053,2065,2048,2058,2058,2062
2051,2050,2069,2067,2050,2041,2052,2060
2048,2058,2075,2065,2040,2039,2061,2057
2051,2060,2078,2059,2037,2044,2053,2046
2052,2065,2078,2049,2026,2046,2065,2040
2057,2064,2078,2046,2030,2052,2074,2039
2058,2063,2082,2049,2029,2047,2065,2041
2057,2064,2080,2049,2030,2058,2069,2033
2065,2059,2068,2052,2033,2062,2077,2032
2056,2055,2063,2045,2026,2058,2061,2021
2046,2042,2063,2050,2030,2051,2060,2021
2048,2052,2072,2057,2033,2060,2066,2031
2063,2072,2082,2064,2033,2050,2054,2035
2055,2062,2085,2065,2018,2033,2049,2035
2056,2061,2081,2051,2015,2025,2054,2036
2048,2055,2065,2047,2016,2031,2047,2040
2051,2052,2063,2043,2012,2040,2036,2046
2056,2055,2062,2051,2018,2038,2064,2062
2055,2059,2056,2046,2029,2044,2074,2058
2061,2058,2051,2043,2050,2043,2070,2062
2058,2061,2040,2044,2066,2060,2064,2066
2063,2060,2043,2049,2062,2073,2074,2062
2053,2062,2042,2050,2072,2076,2046,2067
2050,2055,2041,2037,2068,2075,2058,2069
2047,2054,2030,2030,2068,2072,2065,2076
2047,2052,2024,2025,2055,2064,2071,2077
2040,2034,2010,2013,2018,2052,2034,2073
2033,2031,2001,2000,2002,2056,2035,2079
2046,2046,2014,2013,2004,2053,2045,2084
2053,2053,2018,2019,1970,2035,2040,2078
2049,2052,2025,2016,1946,2024,2048,2076
2050,2056,2021,2024,1947,2026,2046,2074
2049,2056,2022,2032,1972,2041,2056,2072
2058,2056,2025,2050,1991,2051,2048,2068
2055,2059,2033,2057,2015,2052,2045,2064
2057,2056,2039,2064,2067,2057,2045,2059
2058,2053,2047,2073,2114,2057,2062,2053
2053,2049,2049,2077,2144,2062,2059,2048
2051,2051,2049,2079,2160,2065,2058,2038
2052,2047,2043,2074,2174,2065,2052,2033
2047,2047,2043,2059,2141,2053,2041,2028
2039,2042,2046,2036,2035,2031,2034,2028
2041,2048,2042,2032,1978,2027,2052,2022
2041,2037,2032,2033,2005,2037,2046,2024
2041,2039,2033,2041,2081,2060,2060,2035
2052,2050,2040,2052,2111,2072,2065,2038
2046,2054,2046,2060,2112,2076,2060,2041
2056,2052,2055,2061,2084,2073,2053,2047
2053,2052,2056,2056,2059,2067,2059,2053
2056,2055,2060,2058,2037,2068,2057,2057
2059,2053,2070,2064,2026,2067,2041,2059
2054,2051,2055,2043,1994,2040,2028,2056
2049,2044,2052,2026,1984,2016,2056,2061
2050,2041,2051,2034,1961,2002,2052,2068
2046,2044,2053,2033,1967,2010,2045,2069
2047,2046,2050,2035,1983,2014,2036,2070
2045,2046,2047,2031,1999,2014,2043,2070
2048,2044,2045,2031,2019,2034,2062,2077
2050,2053,2050,2046,2056,2061,2065,2078
2050,2052,2047,2041,2044,2048,2050,2073
2038,2035,2033,2034,2025,2037,2040,2069
2037,2029,2032,2043,2056,2037,2049,2077
2044,2050,2043,2041,2070,2032,2046,2069
2040,2047,2043,2040,2073,2023,2047,2069
2046,2049,2041,2042,2100,2032,2048,2068
2056,2046,2037,2053,2137,2048,2055,2072
2048,2053,2037,2059,2136,2057,2055,2066
2055,2055,2032,2062,2140,2063,2045,2058
2048,2049,2034,2065,2114,2064,2058,2055
2053,2048,2044,2068,2058,2051,2064,2057
2050,2058,2049,2061,1959,2037,2050,2048
2046,2049,2055,2059,1940,2017,2038,2037
2054,2049,2051,2059,1977,2015,2039,2033
2043,2046,2050,2057,1999,2012,2052,2028
2041,2043,2041,2044,1996,2007,2041,2022
2038,2034,2049,2038,1988,2017,2050,2019
2043,2033,2047,2041,2010,2038,2038,2019
2040,2028,2050,2058,2079,2064,2045,2024
2042,2042,2054,2079,2122,2097,2057,2038
2050,2047,2057,2079,2115,2127,2052,2050
2055,2048,2059,2067,2057,2121,2069,2053
2052,2050,2054,2041,1972,2112,2064,2052
2053,2052,2061,2042,1943,2108,2062,2059
2053,2054,2059,2047,1972,2092,2065,2057
2043,2050,2058,2050,1989,2067,2049,2055
2035,2045,2050,2043,1996,2044,2033,2058
2039,2047,2051,2053,2052,2074,2056,2069
2046,2056,2056,2059,2090,2095,2070,2075
2052,2061,2046,2046,2007,2088,2059,2068
2054,2059,2046,2035,2023,2070,2043,2071
2053,2056,2042,2028,2078,2050,2045,2069
2055,2051,2041,2028,2084,2022,2056,2072
2056,2054,2038,2036,2065,1995,2039,2062
2048,2042,2036,2036,2044,1972,2034,2070
2041,2050,2032,2035,2047,1984,2037,2072
2053,2061,2039,2041,2047,2007,2064,2073
2060,2059,2043,2040,2046,2025,2064,2075
2060,2060,2041,2036,2042,2044,2055,2070
2052,2056,2035,2033,2034,2044,2053,2072
2049,2046,2028,2041,2040,2042,2049,2074
2052,2057,2019,2038,2043,2038,2050,2071
2050,2052,2024,2042,2051,2044,2039,2061
2055,2041,2016,2047,2056,2048,2046,2052
2049,2045,2018,2054,2053,2044,2047,2050
2050,2046,2023,2062,2035,2035,2044,2045
2051,2049,2031,2065,2028,2036,2057,2042
2046,2053,2034,2067,2022,2036,2053,2035
2045,2048,2027,2051,2014,2050,2042,2025
2041,2040,2018,2039,2013,2063,2037,2018
2038,2034,2012,2043,2023,2065,2038,2014
2037,2033,2011,2047,2027,2067,2046,2006
2042,2041,2021,2055,2020,2055,2049,2020
2052,2062,2033,2060,2036,2034,2028,2031
2048,2068,2041,2065,2072,2032,2061,2048
2053,2072,2041,2069,2097,2039,2059,2057
2060,2078,2045,2076,2113,2055,2064,2060
2067,2068,2039,2064,2110,2066,2074,2064
2057,2059,2034,2046,2085,2060,2058,2062
2054,2056,2040,2031,2074,2062,2050,2062
2053,2063,2061,2034,2061,2084,2063,2065
2053,2068,2079,2032,2059,2086,2068,2061
2050,2068,2076,2028,2046,2072,2051,2059
2048,2064,2058,2022,2026,2062,2060,2069
2050,2062,2049,2029,2038,2044,2069,2074
2056,2062,2053,2042,2025,2014,2061,2082
2056,2072,2058,2055,2038,2026,2080,2082
2053,2062,2049,2051,2037,2027,2058,2070
2041,2047,2043,2053,2053,2040,2043,2065
2035,2047,2043,2061,2063,2053,2051,2065
2049,2057,2047,2066,2060,2065,2047,2070
2050,2062,2058,2069,2060,2051,2064,2069
2055,2066,2067,2069,2060,2031,2043,2069
2052,2068,2058,2050,2064,2029,2033,2069
2056,2073,2047,2046,2091,2033,2041,2063
2057,2067,2037,2039,2104,2032,2039,2060
2054,2066,2043,2060,2100,2040,2034,2057
2051,2063,2053,2074,2079,2035,2049,2047
2053,2063,2056,2073,2039,2026,2017,2038
2047,2057,2051,2067,2020,2013,2028,2028
2039,2051,2053,2072,2028,2019,2018,2024
2039,2044,2054,2071,2024,2020,2040,2022
2038,2040,2044,2070,2033,2020,2048,2015
2034,2042,2041,2067,2036,2024,2028,2006
2028,2026,2033,2053,2031,2013,2017,2005
2017,2019,2030,2049,2031,2029,2043,2011
2026,2037,2038,2050,2036,2042,2046,2016
2037,2043,2049,2059,2052,2060,2031,2029
2048,2044,2053,2062,2063,2058,2031,2038
2043,2046,2044,2052,2057,2056,2042,2035
2041,2047,2040,2038,2050,2047,2037,2039
2040,2038,2030,2024,2039,2046,2042,2044
2040,2037,2030,2013,2037,2052,2035,2054
2043,2043,2035,2008,2042,2056,2043,2056
2050,2046,2025,2012,2043,2059,2054,2066
2050,2052,2032,2021,2047,2061,2052,2071
2059,2064,2026,2024,2054,2060,2048,2074
2059,2066,2020,2028,2054,2058,2051,2081
2053,2062,2024,2039,2048,2063,2018,2082
2059,2055,2012,2034,2053,2070,2020,2075
2051,2045,2007,2031,2044,2062,2030,2074
2039,2026,2000,2023,2031,2056,2037,2069
2033,2024,2011,2026,2029,2054,2037,2075
