CH1,CH2,CH3,CH4,CH5,CH6,CH7,CH8
2038,2046,2065,2047,2065,2034,2058,1966
2027,2028,2046,2035,2066,2028,2041,1965
2030,2029,2042,2036,2073,2030,2060,1961
2039,2040,2051,2041,2088,2040,2056,1967
2042,2041,2049,2044,2077,2048,2053,1971
2046,2051,2058,2051,2076,2055,2050,1986
2050,2055,2065,2058,2082,2060,2050,1990
2048,2050,2060,2046,2080,2058,2048,2006
2048,2047,2055,2034,2070,2057,2044,2024
2055,2041,2052,2030,2073,2061,2060,2039
2050,2043,2049,2035,2082,2064,2059,2048
2047,2034,2047,2044,2091,2063,2058,2062
2050,2042,2053,2049,2101,2068,2042,2071
2055,2049,2061,2057,2110,2068,2056,2083
2051,2057,2063,2058,2092,2059,2055,2091
2048,2042,2060,2051,2070,2041,2044,2096
2047,2043,2042,2044,2056,2036,2023,2101
2034,2026,2029,2036,2034,2028,2037,2103
2031,2022,2029,2042,2034,2022,2055,2105
2031,2034,2030,2043,2017,2023,2043,2108
2035,2029,2030,2046,2033,2026,2060,2109
2041,2031,2036,2052,2068,2035,2056,2105
2040,2024,2027,2053,2070,2044,2054,2099
2042,2020,2032,2050,2070,2050,2055,2096
2043,2028,2035,2048,2058,2054,2070,2093
2048,2031,2036,2046,2051,2047,2052,2086
2048,2028,2029,2039,2072,2036,2066,2070
2049,2024,2025,2031,2055,2037,2070,2053
2047,2024,2016,2017,2000,2025,2044,2035
2044,2026,2011,2014,2045,2025,2062,2020
2046,2028,2011,2025,2080,2030,2071,2014
2052,2033,2026,2028,2082,2034,2067,1995
2050,2046,2042,2023,2077,2034,2050,1983
2048,2043,2041,2026,2067,2024,2062,1971
2050,2047,2038,2033,2068,2017,2070,1964
2047,2049,2032,2043,2067,2009,2050,1973
2056,2043,2027,2040,2056,1992,2052,1977
2048,2034,2028,2040,2051,2004,2056,1985
2047,2032,2022,2038,2049,2035,2058,1990
2042,2021,2020,2039,2085,2061,2041,2001
2038,2024,2021,2043,2089,2057,2027,2020
2043,2024,2027,2046,2089,2057,2045,2026
2049,2022,2039,2036,2077,2038,2042,2037
2043,2020,2050,2037,2066,2036,2044,2056
2050,2038,2071,2047,2068,2038,2046,2066
2054,2048,2085,2059,2064,2039,2041,2082
2061,2058,2100,2071,2052,2047,2070,2093
2058,2061,2122,2078,2015,2052,2057,2102
2054,2060,2119,2066,1905,2033,2055,2111
2047,2049,2112,2052,1893,2021,2041,2113
2044,2046,2099,2048,1978,2038,2042,2120
2045,2051,2098,2061,2022,2057,2059,2117
2055,2049,2087,2054,1997,2064,2077,2121
2060,2055,2085,2054,1999,2062,2073,2122
2058,2055,2079,2044,2008,2035,2059,2107
2059,2052,2076,2030,1971,2021,2041,2094
2054,2057,2075,2022,1915,2065,2029,2086
2049,2052,2063,2003,1966,2106,2026,2063
2041,2037,2058,2003,2034,2147,1994,2047
2034,2027,2043,2008,2078,2144,2015,2038
2037,2042,2052,2049,2153,2111,2062,2034
2042,2049,2066,2082,2195,2086,2053,2022
2048,2047,2070,2082,2193,2046,2057,2020
2051,2050,2068,2081,2183,2023,2046,2003
2050,2045,2061,2068,2127,2032,2037,1987
2043,2040,2056,2038,2047,2033,2036,1976
2042,2037,2051,2036,2036,2029,2031,1961
2043,2043,2050,2034,2047,2034,2040,1962
2046,2040,2053,2047,2049,2054,2037,1965
2047,2040,2043,2041,2049,2058,2051,1974
2038,2035,2044,2036,2042,2049,2054,1979
2032,2033,2053,2031,2046,2051,2047,1994
2043,2050,2065,2034,2070,2047,2043,2008
2044,2047,2073,2040,2074,2049,2047,2030
2038,2049,2066,2034,2058,2050,2052,2044
2045,2044,2055,2028,2034,2056,2056,2050
2044,2038,2049,2027,2033,2071,2057,2058
2045,2043,2049,2037,2040,2074,2068,2073
2051,2046,2051,2040,2042,2047,2070,2087
2045,2049,2055,2040,2045,2031,2064,2093
2048,2054,2058,2039,2040,2023,2028,2096
2050,2054,2053,2025,2024,2014,2021,2091
2032,2035,2044,2024,2026,2013,2017,2099
2035,2030,2044,2027,2029,2028,2041,2106
2039,2033,2051,2031,2031,2026,2026,2108
2039,2039,2047,2031,2039,2036,2039,2103
2039,2047,2046,2035,2042,2037,2025,2106
2044,2049,2049,2036,2047,2042,2058,2094
2047,2053,2057,2040,2056,2049,2044,2088
2052,2056,2053,2041,2065,2051,2042,2080
2057,2055,2054,2044,2060,2052,2064,2070
2059,2053,2057,2044,2062,2049,2075,2054
2058,2052,2061,2046,2062,2051,2049,2042
2046,2055,2061,2045,2069,2054,2072,2023
2049,2051,2052,2045,2067,2056,2062,2014
2048,2046,2047,2044,2070,2051,2065,2002
2054,2050,2040,2048,2071,2057,2071,1992
2056,2048,2044,2048,2070,2054,2046,1978
2045,2032,2038,2045,2068,2060,2062,1973
2046,2036,2043,2050,2073,2068,2058,1975
2057,2045,2041,2050,2071,2067,2062,1971
2051,2040,2040,2049,2064,2072,2043,1976
2048,2032,2037,2049,2065,2085,2057,1980
2047,2032,2036,2045,2069,2085,2066,1996
2046,2033,2040,2046,2072,2082,2065,2010
2045,2028,2033,2046,2059,2088,2064,2027
2049,2027,2039,2050,2053,2080,2076,2044
2044,2035,2045,2054,2040,2072,2058,2053
2042,2046,2045,2052,2047,2071,2071,2061
2045,2044,2041,2050,2058,2064,2062,2064
2046,2044,2046,2049,2063,2047,2065,2074
2044,2044,2042,2046,2057,2032,2042,2080
2047,2053,2038,2045,2056,2023,2056,2092
2049,2042,2034,2044,2047,2022,2055,2096
2040,2033,2029,2034,2046,2016,2047,2100
2038,2034,2029,2032,2043,2022,2066,2106
2041,2044,2036,2037,2050,2038,2048,2108
2044,2042,2036,2040,2048,2061,2058,2100
2043,2046,2035,2037,2036,2071,2047,2097
2046,2052,2032,2042,2039,2049,2051,2098
2042,2053,2044,2046,2047,2036,2058,2090
2045,2060,2041,2043,2049,2050,2057,2090
2043,2057,2031,2042,2049,2059,2047,2079
2041,2048,2022,2044,2045,2066,2055,2060
2038,2041,2018,2043,2018,2074,2057,2041
2041,2035,2013,2031,2001,2079,2060,2028
2038,2029,2014,2032,1999,2082,2042,2014
2039,2030,2015,2031,2003,2071,2042,1990
2031,2022,2023,2045,2014,2038,2061,1988
2033,2031,2032,2066,2063,2031,2068,1972
2038,2029,2038,2068,2085,2054,2057,1962
2031,2022,2034,2059,2088,2070,2058,1959
2035,2027,2050,2058,2076,2085,2070,1967
2043,2041,2056,2058,2055,2077,2071,1968
2046,2046,2056,2055,2038,2075,2064,1971
2045,2053,2065,2059,2049,2074,2055,1983
2053,2064,2076,2082,2077,2065,2062,1998
2059,2069,2066,2074,2062,2040,2052,2008
2049,2054,2060,2071,2059,2018,2043,2019
2051,2043,2053,2071,2052,2014,2046,2031
2046,2037,2038,2070,2025,2001,2041,2040
2045,2032,2033,2059,2006,1996,2037,2047
2039,2034,2033,2048,1991,1988,2021,2053
2034,2021,2021,2039,1993,1995,2016,2063
2034,2024,2018,2047,2022,2012,2033,2076
2035,2024,2023,2046,2050,2034,2015,2089
2041,2043,2025,2055,2079,2057,2030,2090
2038,2035,2027,2057,2097,2075,2041,2101
2037,2034,2035,2052,2097,2080,2053,2110
2047,2046,2031,2056,2074,2070,2037,2118
2049,2037,2009,2042,2062,2067,2057,2112
2039,2041,2008,2028,2053,2075,2065,2106
2047,2042,2012,2029,2064,2079,2054,2103
2039,2042,2017,2034,2061,2078,2054,2088
2033,2036,2007,2019,2062,2078,2059,2081
2040,2036,1999,2008,2062,2076,2057,2073
2045,2045,2003,2000,2063,2074,2031,2064
2057,2046,2022,2005,2064,2071,2047,2058
2049,2047,2029,2014,2064,2072,2053,2042
2050,2053,2036,2018,2066,2070,2055,2029
2053,2054,2035,2015,2059,2060,2064,2008
2046,2051,2037,2014,2055,2055,2054,1997
2039,2056,2038,2009,2053,2048,2062,1984
2036,2042,2025,2007,2045,2031,2055,1965
2035,2039,2034,2018,2045,2034,2037,1957
2041,2055,2068,2032,2045,2052,2047,1967
2043,2070,2082,2041,2051,2049,2047,1971
2053,2071,2085,2050,2055,2032,2044,1983
2060,2076,2077,2047,2050,2025,2043,1992
2058,2080,2076,2052,2054,2034,2055,2008
2065,2083,2078,2058,2052,2044,2069,2020
2061,2077,2078,2057,2057,2051,2063,2039
2052,2072,2090,2061,2059,2047,2058,2047
2052,2068,2083,2052,2052,2053,2038,2052
2052,2058,2077,2048,2049,2044,2048,2056
2046,2048,2066,2045,2042,2044,2044,2071
2036,2050,2061,2043,2049,2043,2045,2081
2044,2048,2054,2040,2053,2042,2053,2094
2045,2044,2049,2040,2051,2050,2049,2099
2043,2046,2049,2043,2052,2046,2045,2100
2038,2037,2035,2043,2054,2050,2052,2108
2037,2040,2034,2044,2052,2050,2055,2111
2048,2045,2028,2041,2053,2053,2052,2123
2047,2053,2029,2036,2055,2049,2058,2119
2046,2058,2035,2040,2061,2056,2061,2115
2055,2062,2047,2041,2062,2059,2068,2113
2055,2063,2047,2037,2064,2060,2066,2102
2054,2056,2041,2036,2065,2062,2054,2091
2057,2059,2037,2033,2064,2057,2065,2072
2042,2049,2033,2038,2058,2062,2069,2066
2046,2055,2036,2039,2067,2061,2069,2051
2049,2065,2052,2045,2070,2059,2060,2044
2050,2063,2053,2045,2062,2056,2056,2015
2050,2059,2049,2041,2063,2054,2022,2001
2055,2050,2035,2036,2058,2054,2023,1989
2047,2046,2034,2036,2058,2054,2023,1976
2039,2036,2024,2024,2056,2046,2026,1966
2036,2030,2021,2020,2045,2051,2016,1955
2037,2033,2031,2027,2050,2058,2032,1961
2041,2035,2035,2029,2053,2056,2044,1970
2040,2046,2046,2036,2054,2056,2042,1980
2044,2059,2056,2043,2052,2057,2054,1987
2056,2067,2053,2046,2053,2060,2053,2004
2053,2060,2046,2040,2054,2058,2044,2022
2051,2052,2041,2043,2054,2071,2049,2036
2052,2052,2034,2038,2048,2062,2045,2044
2048,2043,2023,2042,2049,2062,2032,2052
2043,2035,2029,2046,2049,2055,2033,2066
2040,2039,2040,2044,2049,2055,2030,2082
2052,2039,2051,2053,2052,2045,2024,2084
2049,2048,2056,2053,2054,2045,2047,2093
2045,2059,2061,2052,2059,2046,2047,2107
2054,2067,2066,2057,2053,2038,2040,2103
2046,2056,2056,2052,2048,2018,2035,2096
2037,2054,2054,2057,2049,2026,2034,2108
2048,2063,2061,2061,2052,2030,2037,2113
2050,2057,2059,2057,2054,2032,2044,2108
2048,2055,2057,2051,2054,2035,2042,2105
2047,2044,2050,2052,2045,2029,2045,2102
2044,2045,2053,2051,2055,2028,2040,2093
2046,2045,2048,2049,2051,2039,2057,2082
2043,2046,2046,2045,2048,2042,2064,2070
2037,2045,2044,2039,2050,2041,2060,2062
2037,2040,2044,2044,2044,2045,2069,2055
2049,2045,2049,2047,2049,2057,2060,2050
2051,2051,2056,2048,2051,2066,2065,2031
2060,2053,2056,2053,2059,2069,2054,2009
2066,2058,2057,2052,2060,2073,2063,2002
2056,2068,2063,2054,2063,2064,2065,1997
2058,2063,2064,2052,2049,2047,2039,1980
2046,2056,2052,2046,2045,2048,2066,1973
2045,2057,2051,2042,2051,2045,2068,1974
2044,2051,2045,2040,2052,2052,2071,1980
2043,2039,2041,2042,2052,2062,2070,1984
2039,2037,2035,2038,2053,2063,2064,1991
2035,2039,2037,2040,2055,2060,2058,2007
2031,2048,2036,2040,2052,2056,2054,2016
2043,2056,2044,2042,2052,2050,2053,2034
2048,2060,2050,2044,2053,2044,2057,2049
2048,2062,2054,2046,2054,2039,2066,2058
2046,2063,2056,2048,2047,2033,2059,2055
2038,2060,2064,2048,2057,2027,2057,2068
2049,2062,2060,2053,2053,2030,2045,2076
2053,2060,2055,2053,2053,2030,2055,2090
2047,2054,2042,2052,2053,2031,2056,2095
2042,2051,2030,2057,2058,2033,2053,2098
2041,2040,2019,2052,2049,2038,2035,2098
2040,2031,2016,2049,2052,2053,2058,2107
2037,2037,2031,2052,2059,2089,2057,2107
2044,2038,2038,2054,2055,2087,2058,2113
2039,2044,2048,2056,2057,2075,2056,2107
2044,2046,2044,2053,2055,2069,2062,2104
2047,2050,2036,2049,2053,2057,2063,2106
2053,2048,2028,2043,2051,2047,2056,2092
2047,2042,2026,2040,2046,2039,2049,2091
2055,2051,2026,2033,2054,2043,2064,2084
2058,2055,2025,2042,2052,2050,2066,2067
2055,2053,2016,2049,2056,2057,2056,2055
2059,2051,2018,2048,2065,2060,2050,2030
2053,2054,2019,2044,2051,2058,2055,2016
2050,2057,2022,2041,2044,2052,2061,2000
2048,2055,2041,2045,2046,2055,2059,1996
2063,2069,2069,2056,2047,2054,2068,1985
2055,2070,2080,2056,2049,2055,2054,1969
2065,2077,2092,2053,2052,2054,2054,1964
2065,2091,2098,2062,2058,2046,2057,1963
2059,2086,2093,2063,2050,2047,2042,1979
2060,2085,2082,2056,2050,2041,2038,1988
2055,2069,2071,2046,2029,2041,2039,1994
2049,2062,2054,2034,2028,2041,2056,2007
2047,2052,2041,2022,2028,2044,2061,2018
2050,2047,2043,2022,2046,2051,2059,2036
2050,2053,2045,2030,2049,2051,2045,2050
2050,2057,2053,2033,2043,2051,2045,2064
2051,2060,2064,2040,2039,2045,2071,2073
2046,2056,2059,2037,2028,2045,2062,2079
2042,2042,2049,2034,2020,2045,2058,2089
2042,2048,2057,2042,2036,2060,2055,2104
2050,2056,2058,2052,2056,2068,2064,2113
2053,2060,2062,2055,2052,2062,2040,2119
2046,2049,2059,2051,2048,2047,2034,2124
2055,2050,2064,2061,2055,2051,2060,2128
2067,2067,2076,2066,2061,2051,2056,2131
2067,2073,2081,2068,2065,2055,2055,2126
2060,2064,2084,2072,2070,2063,2058,2112
2056,2062,2072,2073,2067,2064,2058,2101
2055,2057,2063,2061,2059,2056,2063,2093
2052,2059,2056,2062,2059,2059,2054,2083
2049,2054,2049,2053,2065,2062,2049,2073
2047,2043,2049,2047,2061,2055,2056,2061
2048,2049,2054,2054,2062,2055,2071,2050
2043,2055,2056,2052,2064,2062,2078,2038
2043,2045,2046,2053,2058,2070,2064,2011
2040,2045,2041,2052,2054,2080,2054,2002
2042,2036,2039,2047,2057,2083,2072,1990
2037,2032,2040,2046,2064,2090,2072,1986
2036,2029,2030,2035,2056,2072,2065,1971
2030,2020,2028,2038,2056,2070,2056,1961
2037,2034,2037,2048,2054,2065,2073,1968
2035,2035,2030,2040,2052,2047,2066,1971
2033,2035,2030,2041,2052,2050,2063,1974
2034,2039,2038,2042,2044,2044,2052,1989
2034,2035,2032,2041,2039,2041,2033,1994
2043,2036,2030,2044,2033,2039,2030,2006
2044,2041,2036,2043,2042,2051,2054,2026
2044,2042,2029,2049,2044,2059,2043,2036
2042,2040,2043,2047,2041,2069,2052,2046
2040,2044,2039,2050,2048,2079,2053,2054
2043,2048,2043,2049,2054,2076,2052,2069
2047,2046,2036,2044,2050,2057,2053,2081
2051,2051,2033,2046,2053,2052,2024,2095
2047,2046,2032,2044,2056,2053,2025,2105
2044,2041,2029,2049,2059,2054,2048,2102
2047,2035,2026,2047,2051,2045,2055,2106
2039,2032,2035,2048,2055,2038,2053,2112
2042,2039,2042,2053,2061,2028,2062,2110
2046,2037,2046,2054,2059,2007,2061,2110
2043,2042,2058,2053,2052,1998,2062,2107
2049,2046,2058,2050,2055,1992,2072,2102
2042,2039,2047,2052,2056,1990,2058,2104
2047,2047,2047,2052,2059,2009,2064,2097
2049,2050,2051,2049,2049,2023,2053,2081
2043,2054,2046,2046,2037,2049,2047,2065
2046,2045,2044,2035,2031,2060,2056,2052
2041,2047,2042,2031,2034,2068,2048,2045
2045,2044,2035,2029,2034,2057,2061,2029
2050,2042,2038,2032,2032,2028,2063,2016
2042,2050,2042,2046,2053,2028,2065,2006
2046,2055,2043,2053,2069,2032,2074,2000
2052,2065,2060,2059,2064,2035,2058,1992
2051,2059,2053,2053,2073,2033,2056,1980
2048,2042,2048,2042,2062,2030,2061,1982
2048,2050,2050,2026,2059,2028,2056,1985
2044,2048,2051,2029,2065,2036,2058,1995
2053,2064,2058,2039,2065,2031,2071,2008
2056,2066,2066,2047,2070,2022,2072,2012
2054,2067,2060,2038,2062,2020,2068,2028
2051,2068,2052,2038,2057,2019,2058,2040
2055,2056,2051,2042,2055,2024,2056,2047
2054,2049,2041,2040,2061,2024,2053,2060
2058,2056,2048,2047,2059,2030,2054,2059
2054,2052,2052,2052,2059,2035,2037,2070
2043,2053,2056,2049,2056,2030,2035,2079
2048,2053,2051,2047,2060,2030,2058,2098
2052,2051,2046,2046,2059,2025,2057,2108
2060,2057,2049,2043,2056,2024,2055,2119
2059,2049,2054,2039,2044,2029,2035,2119
2054,2047,2051,2036,2042,2039,2043,2125
2059,2050,2060,2045,2051,2052,2052,2127
2060,2054,2066,2040,2054,2059,2051,2131
2058,2054,2065,2040,2057,2059,2064,2125
2064,2056,2059,2044,2067,2053,2058,2123
2056,2055,2055,2047,2071,2052,2060,2121
2058,2062,2048,2041,2070,2058,2040,2118
2062,2061,2052,2053,2072,2048,2049,2109
2062,2069,2060,2059,2076,2045,2065,2098
2066,2074,2058,2058,2073,2046,2064,2081
2065,2080,2051,2057,2067,2041,2058,2066
2056,2069,2041,2058,2064,2032,2055,2046
2055,2064,2039,2060,2066,2036,2070,2034
2052,2064,2046,2070,2047,2040,2046,2016
2054,2061,2053,2078,2057,2047,2062,2008
2049,2049,2043,2078,2062,2047,2036,1994
2042,2037,2026,2071,2062,2045,2023,1980
2041,2030,2029,2072,2058,2048,2026,1983
2048,2050,2042,2076,2057,2049,2043,1987
2055,2052,2052,2065,2050,2043,2048,1989
2055,2057,2055,2058,2050,2042,2044,2001
2048,2047,2061,2057,2055,2048,2039,1999
2047,2042,2064,2066,2060,2055,2025,2008
2046,2043,2077,2071,2055,2052,2029,2024
2051,2052,2091,2078,2058,2060,2023,2043
2055,2054,2088,2078,2057,2063,2035,2055
2052,2045,2077,2075,2045,2060,2027,2064
2051,2044,2074,2070,2046,2061,2039,2076
2057,2037,2081,2062,2049,2068,2053,2093
2066,2043,2075,2061,2054,2074,2046,2103
2066,2044,2059,2064,2050,2072,2047,2107
2056,2039,2051,2054,2060,2070,2035,2112
2052,2050,2049,2060,2054,2068,2037,2116
2052,2043,2045,2056,2058,2056,2041,2124
2053,2040,2043,2056,2064,2057,2044,2128
2056,2047,2054,2056,2064,2053,2049,2133
2054,2048,2050,2042,2056,2034,2032,2125
2043,2037,2041,2018,2042,2029,2018,2121
2051,2043,2030,2011,2042,2025,2028,2120
2053,2054,2044,2003,2055,2034,2030,2109
2049,2061,2050,2003,2051,2037,2025,2101
2060,2061,2060,2006,2053,2031,2021,2092
2057,2060,2068,1999,2047,2041,2042,2082
2050,2056,2065,2008,2046,2048,2033,2065
2059,2053,2048,2003,2033,2046,2041,2056
2059,2049,2041,2017,2045,2055,2038,2036
2059,2046,2037,2021,2050,2054,2051,2021
2051,2050,2039,2031,2056,2054,2036,2004
2055,2049,2054,2033,2056,2055,2040,1993
2056,2050,2052,2038,2048,2048,2034,1988
2049,2054,2051,2032,2038,2041,2052,1982
2048,2052,2051,2033,2040,2043,2043,1986
2054,2054,2054,2041,2032,2037,2033,1992
2054,2046,2057,2041,2023,2028,2028,1990
2049,2044,2050,2036,2010,2018,2030,2001
2048,2047,2051,2033,2010,2016,2040,2010
2058,2041,2044,2027,2019,2020,2029,2024
2052,2036,2040,2029,2023,2018,2031,2037
2059,2028,2033,2027,2015,2020,2026,2046
2045,2033,2035,2031,2018,2032,2022,2059
2047,2034,2039,2034,2019,2033,2035,2071
2044,2034,2037,2031,2017,2037,2041,2078
2047,2028,2029,2034,2018,2032,2054,2088
2049,2018,2021,2030,2026,2034,2040,2102
2046,2028,2026,2029,2021,2041,2046,2112
2040,2027,2018,2028,2013,2041,2016,2114
2035,2019,2011,2026,2008,2040,2012,2114
2038,2017,2021,2024,2005,2046,2020,2120
2044,2032,2020,2024,2010,2047,2031,2132
2046,2038,2024,2030,2042,2043,2021,2125
2049,2039,2024,2037,2093,2047,2023,2120
2050,2045,2037,2040,2143,2050,2041,2117
2059,2050,2044,2056,2181,2061,2039,2111
2058,2049,2051,2057,2185,2067,2033,2104
2053,2050,2048,2060,2175,2068,2044,2094
2053,2049,2045,2056,2154,2070,2034,2080
2054,2045,2056,2056,2139,2065,2021,2067
2051,2045,2057,2053,2093,2056,2037,2047
2047,2040,2055,2045,2062,2047,2063,2028
2052,2049,2060,2038,1946,2034,2049,2011
2053,2055,2070,2037,1917,2022,2042,2002
2046,2049,2063,2043,1990,2031,2049,1987
2042,2045,2059,2050,2036,2035,2033,1984
2043,2038,2063,2055,2069,2039,2032,1976
2047,2045,2062,2055,2071,2034,2038,1983
2052,2045,2068,2057,2049,2031,2004,1987
2042,2050,2072,2062,2038,2038,2025,1998
2046,2058,2076,2057,2038,2038,2013,2009
2047,2053,2071,2048,2037,2036,2026,2016
2046,2052,2065,2034,1993,2023,2036,2033
2045,2055,2059,2034,2004,2035,2028,2050
2050,2059,2064,2040,2017,2039,2019,2054
2052,2052,2058,2043,2028,2045,2012,2071
2054,2051,2054,2045,2029,2048,2042,2086
2048,2049,2049,2041,2037,2053,2031,2089
2047,2038,2051,2040,2045,2056,2042,2101
2049,2041,2047,2041,2042,2062,2058,2114
2050,2040,2048,2044,2045,2057,2045,2118
2050,2036,2039,2043,2046,2052,2039,2114
2039,2031,2040,2038,2044,2046,2045,2120
2044,2040,2044,2045,2046,2058,2029,2132
2052,2050,2048,2049,2047,2060,2072,2138
2060,2054,2050,2055,2056,2059,2048,2136
2062,2050,2046,2055,2057,2060,2038,2133
2061,2052,2052,2053,2063,2054,2044,2126
2057,2055,2051,2052,2063,2048,2053,2119
2060,2044,2054,2055,2058,2044,2056,2102
2057,2047,2058,2058,2065,2042,2051,2087
2043,2030,2052,2053,2052,2018,2053,2076
2044,2032,2050,2050,2048,2022,2038,2054
2046,2034,2050,2053,2052,2027,2039,2040
2033,2027,2050,2056,2041,2027,2039,2013
2037,2024,2051,2060,2039,2031,2027,1996
2040,2019,2050,2056,2035,2039,1997,1982
2033,2025,2042,2042,2039,2056,2026,1975
2032,2021,2044,2045,2045,2066,2043,1975
2042,2029,2048,2045,2047,2075,2035,1979
2048,2029,2048,2048,2048,2076,2038,1992
2046,2029,2041,2044,2045,2072,2041,1994
2046,2029,2037,2047,2040,2066,2023,2010
2044,2026,2034,2045,2039,2071,2056,2015
2044,2023,2021,2043,2044,2068,2046,2030
2041,2028,2024,2045,2041,2065,2056,2047
2047,2034,2035,2039,2041,2067,2056,2068
2053,2045,2044,2040,2051,2062,2049,2081
2056,2055,2047,2041,2043,2051,2052,2094
2062,2045,2046,2041,2045,2039,2048,2106
2056,2046,2048,2041,2036,2019,2041,2118
2044,2037,2037,2036,2039,2009,2038,2113
2040,2032,2032,2034,2038,2007,2041,2116
2038,2029,2037,2031,2030,1997,2021,2113
2032,2020,2026,2030,2030,1999,2041,2123
2035,2028,2030,2028,2033,2003,2038,2121
2032,2029,2035,2030,2037,1992,2033,2117
2038,2031,2040,2031,2043,2004,2033,2121
2039,2030,2041,2041,2045,2027,2054,2120
2043,2036,2041,2041,2058,2054,2063,2125
2046,2033,2041,2045,2061,2084,2084,2115
2050,2033,2043,2045,2061,2113,2081,2108
2045,2036,2036,2038,2057,2096,2073,2096
2043,2041,2047,2040,2049,2047,2071,2078
2042,2046,2058,2041,2036,2024,2061,2053
2045,2040,2055,2043,2026,2024,2058,2034
2044,2035,2047,2036,2026,2026,2058,2022
2040,2029,2035,2039,2032,2029,2050,2002
2033,2025,2029,2042,2035,2034,2062,1984
2040,2025,2023,2045,2046,2034,2047,1987
2039,2025,2020,2048,2047,2027,2048,1980
2045,2034,2029,2064,2060,2029,2047,1989
2046,2042,2047,2077,2058,2035,2051,1998
2054,2044,2062,2082,2054,2064,2060,1996
2052,2038,2062,2074,2056,2099,2038,2003
2043,2044,2063,2071,2059,2120,2061,2014
2050,2043,2055,2076,2060,2123,2036,2025
2046,2043,2051,2079,2057,2126,2055,2045
2047,2042,2045,2075,2062,2167,2072,2067
2050,2048,2038,2077,2078,2176,2059,2079
2050,2042,2033,2071,2064,2166,2053,2085
2048,2039,2024,2056,2052,2111,2051,2080
2040,2035,2018,2047,2028,2024,2015,2079
2027,2027,2012,2018,1999,1977,2036,2082
2030,2022,2022,2000,1984,1948,2027,2100
2038,2045,2058,2016,1980,1944,2027,2112
2043,2059,2098,2023,1988,1939,2030,2123
2047,2068,2105,2034,2019,1949,2026,2140
2055,2066,2089,2037,2065,1983,2052,2146
2051,2065,2085,2038,2078,2020,2054,2146
2051,2069,2101,2059,2093,2045,2075,2152
2061,2069,2107,2062,2085,2042,2039,2138
2059,2066,2103,2057,2072,2040,2057,2135
2057,2062,2092,2052,2064,2036,2041,2118
2059,2062,2082,2048,2052,2032,2021,2103
2053,2061,2070,2043,2046,2029,2047,2089
2058,2056,2067,2043,2048,2030,2042,2073
2047,2058,2066,2042,2055,2033,2058,2050
2036,2051,2059,2044,2059,2044,2042,2030
2036,2049,2058,2046,2062,2058,2062,2018
2039,2054,2066,2047,2069,2058,2073,2009
2045,2057,2063,2049,2065,2049,2069,1992
2041,2050,2057,2047,2075,2046,2050,1988
2036,2042,2058,2052,2072,2052,2058,1990
2047,2049,2058,2048,2066,2048,2059,1998
2044,2042,2054,2039,2048,2049,2049,2001
2048,2044,2050,2035,2040,2042,2064,2014
2039,2039,2044,2038,2030,2046,2061,2018
2048,2034,2050,2035,2029,2053,2049,2035
2042,2036,2053,2034,2032,2059,2056,2058
2046,2043,2054,2042,2038,2058,2060,2069
2049,2044,2055,2045,2045,2058,2071,2082
2054,2054,2057,2042,2042,2052,2055,2089
2054,2052,2053,2042,2043,2045,2058,2101
2048,2053,2056,2041,2041,2037,2070,2114
2051,2048,2062,2048,2047,2037,2063,2118
2048,2049,2054,2049,2053,2043,2056,2118
2041,2040,2048,2040,2044,2030,2061,2120
2033,2031,2039,2039,2023,2024,2057,2125
2031,2030,2042,2037,2029,2049,2064,2138
2042,2050,2053,2044,2038,2058,2073,2140
2041,2049,2051,2045,2039,2063,2070,2136
2043,2053,2051,2044,2046,2062,2056,2136
2057,2058,2054,2045,2039,2064,2060,2133
2054,2047,2050,2043,2038,2058,2054,2115
2049,2043,2046,2039,2041,2050,2058,2104
2040,2039,2040,2038,2040,2051,2060,2102
2041,2040,2041,2038,2038,2049,2057,2083
2044,2046,2043,2045,2047,2036,2049,2068
2041,2051,2050,2053,2050,2013,2046,2053
2052,2054,2054,2052,2052,2015,2043,2037
2044,2051,2052,2047,2053,2020,2037,2028
2045,2053,2052,2043,2048,2023,2027,2009
2047,2054,2056,2038,2042,2024,2012,2001
2043,2049,2052,2042,2040,2029,2019,1992
2039,2042,2057,2047,2048,2037,2018,2000
2046,2052,2057,2052,2056,2047,2038,2005
2047,2054,2061,2054,2052,2053,2040,2013
2052,2050,2053,2053,2046,2056,2041,2015
2047,2042,2048,2048,2044,2052,2054,2024
2043,2048,2048,2050,2035,2052,2042,2035
2044,2052,2060,2052,2039,2059,2053,2050
2039,2045,2057,2051,2043,2071,2048,2069
2043,2041,2057,2054,2041,2074,2049,2084
2042,2046,2052,2051,2052,2092,2045,2094
2040,2044,2052,2047,2052,2098,2046,2094
2035,2041,2050,2053,2054,2093,2036,2106
2044,2052,2050,2053,2048,2029,2022,2107
2044,2046,2048,2052,2035,1952,2022,2119
2046,2051,2057,2054,2030,1955,2028,2126
2044,2040,2046,2055,2029,1991,2025,2128
2038,2036,2046,2055,2025,2024,2022,2128
2038,2046,2044,2056,2027,2033,2020,2130
2032,2044,2047,2057,2033,2055,2030,2134
2044,2050,2059,2064,2045,2068,2049,2138
2053,2052,2049,2063,2042,2071,2050,2130
2053,2049,2050,2060,2043,2080,2049,2119
2043,2046,2055,2066,2054,2080,2056,2112
2049,2044,2050,2063,2058,2082,2049,2096
2047,2041,2045,2056,2053,2085,2023,2095
2049,2046,2043,2054,2064,2085,2053,2078
2051,2046,2042,2055,2060,2082,2043,2060
2043,2042,2039,2045,2055,2071,2036,2035
2036,2044,2039,2049,2052,2059,2043,2019
2041,2049,2035,2049,2048,2048,2034,2013
2039,2040,2031,2042,2039,2027,2034,2000
2029,2022,2024,2038,2040,2015,2030,1984
2027,2022,2027,2039,2033,2007,2009,1990
2036,2032,2040,2050,2033,2002,2028,1999
2035,2035,2037,2044,2033,2003,2001,2002
2035,2032,2039,2044,2028,2019,2031,2006
2031,2031,2036,2036,2025,2031,2021,2021
2040,2025,2032,2035,2013,2032,2017,2032
2037,2033,2039,2043,2018,2032,2017,2046
2047,2048,2052,2048,2017,2036,2028,2052
2040,2049,2053,2041,2024,2046,2021,2070
2046,2055,2053,2047,2025,2056,2030,2077
2043,2053,2051,2049,2028,2062,2034,2090
2047,2058,2046,2045,2029,2060,2036,2107
2045,2050,2049,2041,2028,2053,2045,2107
2052,2050,2052,2050,2027,2047,2040,2116
2042,2052,2056,2049,2026,2031,2022,2124
2042,2039,2047,2044,2019,2019,2015,2130
2037,2045,2054,2044,2023,2027,2032,2139
2056,2057,2058,2052,2028,2037,2030,2135
2048,2053,2050,2047,2032,2040,2039,2143
2050,2049,2054,2044,2030,2038,2041,2133
2057,2047,2046,2048,2030,2031,2034,2125
2044,2041,2043,2045,2024,2029,2029,2116
2038,2042,2040,2047,2037,2033,2033,2102
2049,2055,2050,2048,2045,2037,2055,2090
2044,2054,2052,2052,2040,2027,2061,2079
2045,2050,2046,2051,2046,2027,2061,2063
2044,2046,2044,2047,2045,2029,2061,2045
2040,2048,2044,2055,2052,2030,2062,2023
2042,2046,2048,2053,2056,2033,2054,2002
2037,2049,2050,2054,2065,2041,2051,1990
2030,2044,2048,2051,2062,2069,2044,1974
2024,2039,2041,2050,2056,2082,2044,1971
2030,2037,2043,2045,2058,2100,2045,1973
2040,2053,2051,2055,2061,2104,2054,1973
2038,2061,2048,2059,2056,2084,2042,1978
2036,2050,2046,2050,2046,2049,2031,1981
2039,2048,2038,2050,2042,2034,2035,1992
2034,2043,2035,2048,2037,2034,2035,2000
2040,2037,2035,2045,2027,2028,2025,2011
2037,2035,2039,2045,2029,2028,2013,2027
2037,2038,2041,2042,2033,2047,2026,2045
2040,2031,2035,2045,2035,2049,2040,2052
2033,2033,2039,2044,2039,2055,2042,2061
2039,2031,2038,2041,2039,2052,2040,2066
2034,2028,2034,2044,2040,2057,2047,2074
2033,2025,2032,2037,2033,2062,2047,2084
2034,2029,2034,2040,2031,2058,2056,2093
2034,2024,2027,2035,2036,2056,2050,2098
2038,2024,2024,2036,2026,2069,2046,2106
2032,2034,2034,2041,2039,2078,2058,2100
2031,2038,2035,2040,2042,2075,2056,2099
2025,2039,2034,2040,2038,2047,2033,2098
2029,2040,2033,2043,2028,2048,2023,2091
2026,2040,2029,2042,2036,2060,2055,2090
2032,2037,2038,2036,2040,2067,2066,2082
2031,2043,2043,2036,2041,2066,2066,2081
2032,2048,2046,2038,2048,2061,2060,2072
2037,2051,2040,2041,2041,2046,2054,2052
2038,2049,2043,2032,2041,2024,2052,2038
2034,2046,2039,2034,2043,2015,2034,2018
2032,2048,2037,2038,2043,2013,2017,1998
2034,2046,2034,2040,2046,2013,2017,1991
2032,2041,2043,2045,2052,2036,2040,1974
2028,2048,2052,2043,2051,2051,2028,1955
2024,2038,2037,2037,2046,2050,2043,1942
2023,2033,2032,2041,2044,1997,2033,1943
2017,2037,2030,2036,2047,1962,2032,1949
2018,2030,2027,2039,2035,1990,2034,1953
2022,2035,2024,2045,2039,2044,2034,1973
2032,2044,2033,2049,2048,2072,2047,1985
2035,2046,2034,2051,2059,2089,2047,1999
2029,2043,2027,2056,2058,2085,2048,2012
2033,2043,2028,2053,2064,2091,2059,2023
2032,2040,2026,2053,2055,2078,2035,2037
2026,2041,2030,2044,2051,2071,2037,2043
2030,2042,2043,2041,2039,2071,2036,2050
2023,2037,2040,2026,2033,2074,2045,2073
2041,2045,2052,2041,2040,2076,2055,2087
2042,2058,2062,2047,2046,2062,2042,2090
2046,2056,2077,2049,2043,2038,2039,2088
2035,2055,2078,2049,2044,2011,2034,2090
2034,2053,2072,2046,2047,2010,2043,2100
2042,2058,2078,2051,2050,2016,2059,2107
2047,2059,2080,2051,2044,2030,2047,2107
2053,2068,2081,2058,2047,2038,2042,2106
2046,2070,2077,2057,2044,2005,2024,2100
2040,2068,2075,2059,2048,1985,2018,2091
2049,2062,2078,2059,2061,1973,2038,2087
2047,2065,2075,2061,2063,1974,2049,2077
2048,2063,2069,2063,2078,1986,2052,2067
2050,2062,2065,2055,2078,2012,2061,2046
2049,2063,2069,2052,2072,2022,2055,2024
2040,2058,2057,2047,2057,2033,2046,2007
2040,2051,2048,2044,2048,2033,2056,1986
2039,2038,2040,2038,2042,2027,2041,1971
2036,2039,2046,2035,2030,2046,2055,1960
2040,2037,2038,2033,2031,2047,2058,1955
2038,2037,2038,2042,2027,2053,2048,1959
2052,2050,2044,2044,2040,2057,2055,1970
2050,2055,2045,2045,2043,2054,2052,1970
2048,2050,2039,2044,2047,2052,2049,1967
2040,2046,2040,2046,2050,2071,2053,1963
2020,2038,2036,2045,2048,2095,2060,1974
2015,2031,2028,2036,2039,2111,2069,1992
2014,2028,2028,2032,2035,2115,2059,2008
2022,2032,2028,2038,2035,2112,2053,2029
2026,2033,2023,2029,2021,2065,2043,2040
2030,2034,2023,2030,1995,2015,2034,2051
2036,2030,2020,2029,1985,1988,2037,2062
2026,2025,2019,2025,1964,1994,2042,2069
2024,2016,2008,2004,1961,2014,2030,2064
2019,2018,2012,2013,1988,2046,2043,2071
2023,2016,2013,2021,2024,2053,2047,2078
2018,2006,2008,2013,2051,2077,2027,2083
2018,2013,2015,2027,2092,2107,2055,2104
2043,2054,2054,2061,2112,2094,2056,2106
2052,2055,2059,2063,2098,2089,2075,2109
2054,2052,2054,2057,2076,2112,2070,2100
2051,2048,2052,2049,2072,2115,2067,2097
2057,2055,2063,2047,2069,2062,2049,2085
2052,2056,2058,2043,2062,1989,2053,2069
2046,2052,2066,2044,2048,1992,2052,2062
2039,2047,2063,2039,2055,2038,2071,2046
2039,2041,2067,2040,2062,2062,2069,2039
2034,2036,2072,2043,2072,2066,2074,2021
2024,2035,2073,2046,2066,2067,2066,1997
2024,2036,2065,2043,2061,2053,2057,1981
2023,2037,2062,2045,2063,2029,2050,1961
2021,2029,2061,2042,2066,2016,2048,1955
2018,2027,2051,2039,2054,2016,2048,1946
2028,2032,2051,2044,2062,2011,2052,1944
2032,2041,2057,2036,2054,2011,2052,1947
2030,2042,2060,2041,2053,2006,2027,1948
2032,2040,2057,2035,2041,2007,2047,1960
2039,2043,2054,2036,2033,2006,2029,1969
2033,2039,2053,2038,2032,2024,2045,1985
2035,2047,2055,2040,2040,2035,2054,1997
2042,2049,2054,2043,2045,2044,2056,2015
2045,2056,2058,2043,2045,2034,2044,2036
2046,2056,2058,2040,2038,2031,2041,2049
2049,2054,2055,2048,2040,2031,2024,2057
2049,2044,2056,2032,2034,2043,2027,2064
2045,2042,2052,2037,2038,2041,2037,2069
2048,2047,2052,2037,2041,2056,2040,2081
2044,2046,2057,2039,2040,2051,2018,2091
2046,2048,2046,2037,2038,2045,2038,2094
2041,2040,2047,2034,2048,2045,2028,2100
2042,2044,2051,2050,2051,2040,2038,2099
2046,2052,2050,2048,2050,2032,2045,2098
2050,2054,2059,2044,2042,2018,2034,2097
2057,2053,2054,2044,2037,2021,2042,2092
2041,2046,2045,2041,2020,2043,2046,2083
2037,2054,2056,2042,2008,2055,2047,2081
2039,2054,2054,2038,1998,2047,2043,2076
2045,2052,2048,2040,1993,2055,2041,2063
2042,2043,2046,2042,1997,2034,2045,2049
2040,2041,2050,2054,2023,2016,2041,2032
2036,2049,2057,2064,2060,2035,2062,2013
2039,2047,2058,2069,2072,2058,2055,1993
2037,2047,2052,2058,2074,2085,2045,1977
2036,2042,2048,2053,2056,2142,2057,1972
2039,2044,2044,2047,2026,2146,2062,1961
2023,2037,2032,2029,2000,2137,2035,1959
2025,2032,2029,2027,1980,2060,2043,1959
2025,2032,2020,2020,1975,1968,2017,1954
2022,2035,2018,2044,2015,1944,2029,1968
2028,2039,2032,2072,2066,1978,2045,1979
2032,2043,2038,2064,2079,2005,2046,1978
2028,2035,2036,2064,2090,2032,2053,1992
2030,2035,2043,2069,2091,2030,2040,2009
2025,2033,2030,2056,2092,2032,2041,2026
2026,2024,2018,2053,2098,2047,2045,2038
2026,2023,2008,2050,2114,2049,2045,2045
2032,2023,2015,2054,2163,2048,2038,2053
2028,2017,2016,2056,2196,2042,2040,2057
2031,2024,2025,2062,2207,2041,2031,2066
2027,2028,2041,2070,2206,2043,2042,2082
2033,2028,2051,2062,2193,2031,2033,2086
2035,2024,2049,2040,2151,2015,2023,2085
2024,2025,2054,2028,2118,2035,2033,2093
2028,2033,2066,2036,2108,2076,2049,2098
2035,2043,2069,2033,2093,2118,2058,2107
2041,2055,2076,2029,2064,2131,2043,2111
2046,2062,2077,2022,1945,2080,2036,2104
2046,2060,2079,2011,1902,2044,2038,2100
2047,2064,2084,2023,1926,2037,2045,2088
2050,2059,2069,2025,1930,2039,2048,2082
2048,2051,2075,2027,1959,2033,2066,2063
2044,2050,2072,2026,1989,2029,2042,2049
2047,2064,2076,2033,1997,2034,2060,2034
2047,2062,2076,2036,2002,2039,2059,2013
2043,2057,2071,2030,2016,2050,2063,1995
2039,2060,2063,2030,2018,2051,2052,1978
2034,2045,2055,2027,2030,2060,2045,1966
2031,2039,2046,2025,2045,2063,2048,1957
2027,2034,2042,2025,2058,2074,2052,1950
2025,2034,2051,2034,2063,2085,2043,1941
2027,2041,2058,2036,2076,2095,2050,1943
2042,2049,2060,2036,2069,2082,2047,1947
2033,2042,2055,2031,2039,2066,2045,1963
2041,2039,2048,2027,2010,2060,2051,1971
2041,2041,2055,2029,1991,2053,2052,1991
2048,2046,2061,2034,1991,2042,2047,2015
2055,2052,2059,2031,1976,2025,2054,2033
2054,2047,2057,2025,1970,2020,2047,2044
2050,2042,2058,2027,1977,2026,2056,2065
2044,2046,2057,2027,1979,2035,2061,2072
2049,2049,2057,2032,1984,2054,2053,2069
2046,2052,2052,2029,1991,2066,2060,2073
2044,2051,2047,2024,1977,2084,2061,2079
2057,2051,2049,2030,1981,2092,2069,2084
2044,2042,2049,2025,1982,2099,2056,2087
2033,2034,2041,2025,1995,2107,2040,2096
2033,2039,2033,2030,2034,2109,2018,2095
2037,2031,2036,2033,2061,2083,2027,2091
2032,2030,2040,2035,2045,2004,2014,2087
2028,2030,2040,2034,2048,1972,2001,2078
2026,2028,2034,2040,2044,1983,2026,2071
2033,2030,2034,2042,2045,2033,2045,2067
2033,2043,2047,2038,2050,2074,2052,2062
2037,2037,2046,2032,2042,2085,2050,2042
2036,2031,2039,2025,2046,2114,2035,2028
2041,2032,2034,2025,2037,2119,2048,2014
2037,2036,2035,2019,2024,2112,2033,1990
2035,2030,2032,2017,2014,2100,2034,1983
2031,2032,2033,2021,2021,2086,2042,1982
2040,2036,2044,2033,2046,2060,2058,1964
2042,2037,2043,2037,2064,2020,2038,1959
2030,2028,2033,2032,2063,2008,2021,1954
2034,2028,2024,2026,2055,1996,2024,1957
2032,2030,2032,2031,2043,1992,2026,1960
2026,2036,2044,2035,2039,2003,2031,1959
2029,2028,2050,2031,2042,2014,2023,1967
2028,2030,2042,2024,2035,2000,2021,1980
2030,2030,2039,2035,2033,1989,2006,1992
2035,2037,2044,2040,2035,1999,1991,2009
2034,2042,2058,2046,2039,2017,2015,2024
2039,2048,2059,2043,2039,2030,2021,2044
2051,2056,2058,2054,2065,2047,2031,2056
2053,2052,2054,2050,2076,2055,2002,2068
2056,2053,2055,2046,2084,2064,2027,2085
2061,2059,2057,2049,2070,2068,2031,2099
2063,2065,2060,2051,2068,2064,2052,2106
2057,2056,2059,2050,2067,2064,2036,2110
2055,2057,2057,2048,2059,2078,2046,2103
2056,2063,2064,2051,2050,2104,2051,2107
2058,2066,2055,2047,2008,2090,2054,2100
2054,2063,2049,2034,1989,2090,2043,2095
2051,2059,2045,2028,1983,2085,2043,2084
2048,2056,2041,2021,1987,2038,2047,2083
2047,2054,2041,2030,2015,2001,2064,2084
2050,2058,2028,2041,2061,1992,2074,2080
2053,2053,2025,2042,2073,2010,2078,2069
2054,2049,2019,2054,2103,2047,2073,2057
2052,2047,2017,2054,2122,2079,2072,2035
2047,2044,2014,2042,2069,2067,2064,2012
2042,2041,2010,2034,2041,2050,2054,1988
2039,2035,2012,2024,2027,2033,2055,1978
2036,2045,2017,2036,2066,2044,2060,1967
2037,2035,2011,2046,2107,2061,2053,1953
2033,2024,2005,2049,2129,2077,2034,1944
2030,2025,2006,2042,2127,2084,2054,1953
2045,2031,2019,2027,2105,2060,2045,1951
2044,2028,2025,2007,2040,2068,2039,1958
2034,2029,2025,2006,2052,2070,2022,1960
2019,2037,2038,2020,2084,2029,2010,1970
2016,2043,2052,2042,2066,1959,1993,1989
2032,2043,2060,2051,2117,1995,2026,2009
2036,2046,2061,2054,2138,2041,2029,2015
2038,2042,2058,2053,2149,2078,2024,2022
2032,2050,2070,2068,2141,2121,2044,2037
2038,2064,2087,2072,2111,2146,2044,2052
2050,2075,2099,2066,2021,2150,2054,2073
2056,2070,2096,2055,1945,2128,2045,2094
2065,2074,2086,2045,1966,2092,2048,2104
2072,2067,2073,2052,1998,2053,2016,2108
2060,2052,2059,2048,2027,2054,2031,2102
2047,2042,2052,2030,1999,2057,2028,2100
2047,2050,2058,2025,2003,2051,2047,2092
2047,2049,2050,2015,1983,2029,2025,2085
2046,2044,2045,2000,1933,2032,2019,2064
2034,2029,2039,2009,1916,2030,2015,2055
2030,2038,2048,2021,1942,2021,2031,2061
2039,2043,2052,2042,1989,2031,2030,2056
2036,2043,2054,2058,2048,2066,2048,2063
2036,2035,2057,2058,2064,2096,2062,2043
2039,2044,2055,2059,2073,2111,2064,2024
2040,2048,2050,2052,2096,2116,2047,2003
2038,2045,2046,2055,2099,2104,2044,1988
2043,2042,2041,2067,2114,2064,2034,1973
2040,2041,2044,2079,2133,1997,2014,1966
2034,2030,2035,2068,2129,1955,2024,1950
2027,2016,2021,2063,2107,1942,2012,1944
2032,2027,2028,2073,2083,1940,2021,1943
2035,2037,2033,2071,2054,1951,2007,1938
2036,2037,2029,2042,1970,1951,1988,1937
2030,2037,2027,2029,1956,1961,1977,1946
2028,2042,2030,2037,2025,1979,2013,1969
2041,2050,2030,2045,2047,1995,2025,1984
2046,2052,2030,2039,1986,2003,2034,1999
2036,2041,2030,2019,1844,1986,2024,2004
2024,2035,2024,2016,1818,1964,2026,2016
2020,2039,2022,2026,1837,1960,2031,2027
2026,2039,2026,2017,1811,1953,2043,2047
2029,2039,2002,1988,1847,1969,2044,2061
2034,2035,1989,1990,1935,1993,2052,2073
2044,2042,2009,2030,2014,2007,2051,2080
2047,2051,2031,2054,2080,2022,2039,2089
2053,2063,2049,2066,2127,2053,2050,2094
2050,2060,2062,2071,2148,2059,2054,2099
2058,2062,2068,2053,2109,2049,2049,2092
2055,2056,2056,2035,2105,2044,2042,2081
2053,2054,2053,2012,2070,2038,2050,2080
2050,2060,2054,2014,2087,2052,2045,2084
2053,2067,2061,2038,2162,2077,2054,2081
2056,2072,2066,2037,2168,2098,2051,2066
2043,2057,2050,2032,2098,2115,2054,2055
2044,2061,2059,2028,2016,2122,2039,2041
2051,2063,2064,2032,1987,2100,2025,2024
2041,2057,2070,2033,1983,2069,2057,2008
2042,2052,2055,2015,1931,2027,2049,1990
2036,2041,2039,1998,1902,2011,2035,1974
2041,2035,2040,2026,1990,2017,2043,1960
2047,2037,2042,2048,2056,2016,2034,1948
2053,2022,2035,2049,2066,2007,2020,1939
2052,2021,2037,2050,2070,2028,2027,1940
2049,2036,2044,2054,2082,2022,2019,1939
2043,2040,2035,2040,2089,2014,2018,1931
2026,2028,2032,2035,2076,2027,2012,1930
2022,2022,2024,2035,2098,2052,2000,1954
2032,2018,2034,2039,2130,2071,2023,1974
2032,2031,2032,2038,2149,2082,2032,1986
2032,2036,2035,2044,2153,2087,2035,2003
2025,2036,2035,2046,2151,2093,2042,2008
2022,2036,2037,2040,2080,2092,2047,2021
2028,2039,2035,2041,2030,2105,2051,2028
2040,2035,2043,2043,1958,2074,2029,2033
2035,2036,2033,2032,1898,1981,2016,2046
2027,2033,2030,2030,1940,1961,2042,2062
2035,2042,2037,2034,1988,2014,2039,2064
2022,2026,2027,2036,1992,2029,2040,2066
2031,2034,2026,2039,1989,2028,2060,2082
2045,2044,2033,2051,1997,2034,2086,2088
2041,2040,2034,2052,1986,2019,2063,2092
2040,2027,2025,2041,1969,2007,2044,2077
2031,2012,2015,2035,1983,2005,2038,2055
2028,2013,2026,2057,2021,1998,2048,2065
2051,2032,2045,2082,2043,2019,2057,2068
2062,2041,2050,2079,2034,2039,2075,2065
2063,2040,2046,2065,2030,2062,2063,2041
2052,2026,2040,2066,2029,2069,2068,2026
2041,2016,2039,2063,2052,2092,2067,1996
2011,2010,2035,2057,2063,2120,2064,1972
2002,2009,2024,2048,2055,2137,2071,1965
2018,2022,2026,2047,2067,2152,2087,1947
2019,2035,2032,2049,2077,2170,2082,1937
2028,2044,2047,2047,2072,2172,2082,1928
2034,2047,2057,2036,2071,2165,2088,1942
2057,2054,2078,2045,2075,2158,2091,1968
2054,2057,2085,2035,2054,2121,2064,1984
2062,2057,2071,2029,1988,2021,2044,1973
2048,2052,2056,2032,1941,1960,2027,1964
2049,2048,2046,2034,1934,1934,2041,1975
2042,2036,2036,2040,1970,1909,2026,1974
2030,2043,2048,2059,1994,1927,2021,1982
2030,2050,2058,2065,2001,1957,2034,2010
2031,2046,2051,2062,1998,1978,2032,2022
2034,2064,2063,2051,1990,2000,2027,2034
2053,2074,2071,2043,1986,2004,2013,2045
2048,2079,2065,2043,2033,2028,2029,2044
2053,2066,2053,2043,2081,2046,2006,2047
2038,2062,2050,2041,2097,2061,2030,2062
2047,2056,2039,2033,2095,2048,2030,2078
2032,2036,2026,2018,2066,2043,2031,2080
2033,2041,2030,2008,2035,2054,2036,2082
2050,2049,2031,2005,1991,2064,2043,2088
2070,2053,2028,2009,1989,2084,2045,2089
2070,2048,2035,2036,2029,2113,2080,2091
2076,2050,2046,2052,2078,2126,2098,2105
2094,2051,2030,2049,2112,2129,2081,2088
2090,2047,2028,2039,2074,2118,2073,2078
2090,2068,2047,2038,2056,2121,2049,2066
2091,2068,2048,2034,2052,2106,2026,2031
2065,2059,2037,2041,2058,2101,2016,1987
2048,2054,2037,2036,2052,2099,2042,1970
2043,2053,2039,2047,2083,2080,2035,1966
2035,2054,2037,2064,2130,2034,2061,1955
2015,2061,2046,2063,2103,2006,2060,1957
2005,2058,2044,2063,2080,2009,2058,1941
2013,2052,2034,2066,2101,2041,2043,1929
2025,2055,2034,2052,2048,2067,2044,1933
2035,2072,2043,2055,2018,2072,2047,1940
2052,2078,2047,2059,1999,2061,2040,1940
2044,2067,2037,2054,2007,2028,2036,1943
2034,2050,2020,2043,2001,1982,2018,1957
2038,2048,2011,2034,1969,1987,2020,1972
2032,2032,2006,2013,1975,2008,2023,1986
2024,2026,1999,2020,2019,2025,2047,1992
2026,2035,2009,2031,2030,2033,2032,2012
2032,2038,2022,2036,2064,2010,2019,2015
2037,2033,2010,2041,2060,1983,2041,2034
2038,2035,2011,2045,2079,1997,2059,2055
2055,2039,2008,2052,2081,2022,2068,2073
2059,2038,2007,2060,2098,2034,2074,2076
2043,2023,2009,2064,2105,2050,2059,2079
2047,2015,2007,2059,2104,2063,2056,2075
2046,2018,2012,2062,2104,2067,2049,2068
2045,2034,2029,2076,2113,2079,2038,2080
2059,2042,2042,2076,2130,2087,2054,2087
2060,2038,2040,2078,2126,2100,2071,2100
2073,2038,2040,2077,2151,2104,2046,2090
2078,2030,2014,2060,2142,2112,2027,2048
2050,2026,2005,2042,2091,2140,2053,2006
2039,2033,2023,2042,2023,2149,2041,2009
2056,2025,2039,2013,1960,2119,2041,2010
2054,2000,2042,1996,1974,2072,2026,2011
2054,1999,2054,1996,1990,2022,2052,2011
2069,2037,2071,2021,2021,2002,2028,2002
2042,2057,2074,2042,2037,2010,2035,1978
2018,2068,2080,2050,2043,2012,2034,1942
1999,2070,2080,2055,1967,2010,2044,1936
2002,2057,2053,2039,1922,2018,2046,1941
2021,2051,2051,2044,2011,2041,2052,1942
2032,2050,2042,2051,2072,2040,2047,1940
2035,2055,2036,2060,2083,2021,2037,1939
2043,2071,2042,2068,2058,2017,2030,1945
2049,2083,2053,2070,2020,2015,2035,1955
2045,2068,2049,2052,2026,2030,2027,1966
2042,2064,2060,2045,2018,2029,2027,1991
2045,2064,2065,2049,2037,2022,2024,2004
2041,2058,2065,2050,2032,2043,2037,2012
2036,2052,2071,2059,2049,2081,2041,2024
2036,2058,2081,2070,2046,2109,2043,2037
2041,2063,2080,2068,2047,2138,2041,2058
2050,2060,2079,2071,2055,2142,2056,2065
2053,2054,2080,2074,2051,2082,2032,2061
2044,2045,2077,2068,2038,1994,1984,2061
2040,2030,2067,2060,2027,1993,2014,2064
2023,2026,2060,2061,2029,2027,2026,2070
2037,2035,2061,2068,2039,2046,2013,2081
2045,2042,2064,2070,2046,2044,2025,2070
2033,2042,2072,2078,2047,2058,2026,2065
2031,2036,2068,2080,2056,2079,2022,2060
2031,2041,2068,2091,2072,2099,2040,2061
2052,2066,2083,2101,2077,2113,2060,2044
2049,2070,2086,2108,2083,2119,2072,2053
2059,2080,2088,2112,2083,2116,2070,2046
2055,2072,2068,2096,2085,2127,2063,2042
2060,2058,2054,2082,2077,2107,2066,2020
2058,2068,2050,2071,2058,2082,2075,2003
2056,2067,2051,2067,2043,2047,2055,1977
2051,2048,2036,2054,2040,2050,2051,1956
2033,2041,2028,2042,2053,2070,2049,1947
2038,2045,2023,2042,2061,2092,2056,1941
2049,2043,2022,2039,2065,2126,2056,1939
2053,2055,2035,2038,2072,2150,2054,1938
2050,2056,2044,2036,2070,2097,2045,1937
2057,2058,2044,2039,2056,2031,2034,1935
2047,2046,2041,2028,2008,1986,2020,1943
2041,2027,2034,2018,1980,1985,2022,1961
2034,2011,2023,2010,1987,1985,2010,1967
2023,2008,2025,2024,2012,2003,2032,1981
2031,2024,2036,2032,2006,2010,2051,2009
2053,2038,2046,2041,1993,2010,2048,2032
2065,2047,2048,2034,1990,2006,2052,2041
2068,2044,2031,2021,1986,2008,2039,2040
2069,2045,2041,2030,2014,2027,2029,2044
2064,2047,2055,2057,2054,2041,2038,2038
2053,2055,2071,2070,2067,2038,2050,2052
2048,2068,2080,2070,2064,2042,2045,2060
2033,2057,2075,2080,2071,2047,2049,2066
2026,2060,2076,2071,2067,2049,2047,2070
2031,2058,2069,2075,2069,2053,2040,2068
2032,2047,2060,2068,2060,2054,2041,2069
2034,2037,2036,2058,2051,2056,2056,2062
2033,2025,2033,2053,2059,2068,2070,2065
2041,2030,2037,2055,2056,2067,2066,2061
2043,2043,2036,2050,2042,2070,2071,2045
2051,2045,2031,2048,2037,2074,2083,2042
2064,2035,2018,2040,2035,2065,2083,2023
2072,2023,1997,2047,2031,2068,2072,2012
2072,2011,1985,2044,2034,2071,2066,1991
2071,2016,1992,2052,2046,2034,2048,1979
2079,2024,1996,2065,2042,1999,2025,1966
2067,2017,1992,2050,2037,2018,2030,1955
2058,2020,1992,2036,2021,2027,2042,1930
2022,2012,1996,2031,2015,2045,2049,1911
2005,2043,2025,2041,2040,2082,2062,1922
2041,2068,2039,2038,2061,2092,2052,1941
2050,2065,2030,2024,2069,2081,2027,1941
2040,2056,2041,2036,2083,2073,2018,1947
2029,2062,2061,2050,2070,2058,2029,1959
2032,2068,2073,2061,2046,2049,2036,1978
2036,2077,2073,2062,2024,2043,2036,1993
2045,2065,2073,2057,2018,2036,2036,2009
2043,2056,2075,2048,2014,2032,2034,2015
2043,2062,2080,2053,2012,2039,2028,2026
2046,2058,2094,2057,2028,2040,2041,2033
2048,2067,2103,2062,2038,2047,2040,2048
2051,2066,2106,2052,2035,2045,2040,2052
2043,2066,2102,2063,2035,2046,2038,2068
2053,2072,2102,2066,2037,2050,2042,2069
2042,2050,2082,2059,2040,2046,2025,2064
2039,2045,2063,2058,2044,2038,2037,2070
2040,2052,2059,2064,2039,2035,2040,2089
2052,2046,2058,2060,2045,2033,2038,2094
2062,2052,2064,2055,2045,2037,2045,2082
2057,2056,2073,2056,2038,2042,2027,2068
2052,2052,2068,2046,2033,2049,2041,2056
2052,2049,2070,2043,2025,2054,2038,2042
2046,2050,2058,2033,1990,2051,2052,2038
2043,2055,2053,2036,2000,2061,2053,2033
2048,2066,2066,2047,2007,2065,2049,2015
2035,2072,2075,2052,2009,2055,2044,1999
2038,2075,2076,2060,2023,2060,2063,1987
2051,2075,2076,2065,2071,2070,2036,1979
2056,2078,2077,2069,2078,2062,2055,1971
2062,2075,2076,2068,2080,2054,2066,1954
2064,2075,2068,2052,2102,2045,2045,1934
2050,2063,2064,2053,2119,2048,2041,1931
2050,2070,2065,2068,2127,2060,2051,1936
2052,2071,2063,2064,2119,2057,2049,1937
2045,2060,2055,2058,2113,2072,2042,1933
2040,2046,2043,2050,2091,2107,2043,1935
2031,2040,2042,2046,2082,2124,2041,1956
2045,2046,2042,2042,2056,2120,2046,1977
2051,2056,2046,2034,2026,2102,2043,1997
2055,2051,2046,2029,2018,2065,2045,2016
2060,2050,2049,2051,2044,2064,2059,2030
2060,2055,2055,2060,2060,2082,2054,2039
2059,2053,2054,2059,2056,2086,2054,2041
2059,2058,2047,2056,2053,2080,2046,2053
2054,2040,2025,2048,2032,2025,2041,2062
2047,2017,2006,2049,2005,1966,2040,2066
2050,2007,1997,2053,1997,1948,2029,2069
2034,1996,1991,2036,1991,1970,2036,2065
2032,1998,1985,2033,2016,2012,2025,2070
2045,2020,2012,2058,2030,2047,2045,2081
2048,2022,2013,2061,1999,2034,2050,2090
2052,2023,2013,2056,1989,2023,2072,2098
2058,2045,2018,2048,1977,2029,2061,2078
2052,2052,2021,2040,1984,2025,2060,2072
2055,2056,2041,2060,2048,2042,2061,2064
2060,2068,2060,2084,2142,2083,2061,2044
2040,2053,2052,2081,2180,2096,2035,2019
2026,2039,2056,2071,2161,2105,2031,2000
2027,2045,2066,2082,2157,2102,2035,1994
2029,2034,2073,2072,2120,2048,2031,1980
2034,2026,2054,2058,2080,2021,2039,1967
2040,2043,2065,2057,2081,2032,2043,1964
2052,2068,2110,2077,2088,2047,2049,1948
2050,2076,2120,2063,2106,2044,2061,1928
2040,2077,2110,2049,2070,2037,2058,1920
2037,2065,2094,2011,1848,2025,2042,1919
2029,2040,2069,1999,1812,2012,2031,1921
2021,2037,2061,2015,1906,2032,2037,1931
2044,2058,2066,2042,1973,2040,2035,1946
2053,2068,2062,2061,1993,2025,2032,1963
2049,2067,2059,2063,1988,1987,2010,1975
2043,2066,2060,2060,2009,2000,2027,1986
2034,2056,2052,2047,2042,2037,2032,1995
2027,2045,2033,2041,2107,2078,2051,2013
2029,2046,2039,2049,2138,2095,2048,2032
2035,2043,2042,2044,2147,2082,2027,2049
2051,2050,2051,2041,2133,2062,2040,2056
2054,2058,2059,2055,2122,2054,2032,2064
2053,2068,2059,2057,2123,2048,2034,2076
2052,2068,2060,2068,2132,2054,2042,2068
2033,2047,2044,2067,2133,2047,2027,2069
2025,2041,2043,2063,2103,2027,2044,2070
2030,2043,2039,2054,2060,2004,2038,2073
2033,2044,2042,2045,2032,1999,2029,2074
2037,2052,2050,2053,2032,2003,2057,2076
2052,2054,2047,2058,2050,2023,2051,2076
2049,2055,2046,2062,2071,2036,2071,2077
2045,2046,2037,2066,2076,2037,2062,2057
2046,2043,2033,2068,2083,2045,2054,2040
2048,2041,2022,2075,2094,2049,2048,2027
2045,2037,2023,2077,2096,2049,2057,2017
2045,2038,2033,2081,2088,2058,2076,2006
2048,2040,2040,2082,2078,2076,2052,1988
2046,2045,2035,2073,2067,2104,2043,1969
2036,2042,2021,2058,2065,2118,2037,1946
2043,2039,2025,2066,2067,2131,2025,1938
2046,2045,2024,2066,2066,2120,2020,1924
2049,2036,2018,2068,2067,2130,2005,1921
2041,2046,2013,2075,2066,2131,2041,1928
2048,2041,2014,2081,2062,2123,2041,1925
2035,2032,2010,2084,2054,2078,2023,1928
2030,2033,2012,2079,2039,1981,2030,1937
2029,2036,2022,2077,2042,1976,2020,1954
2034,2052,2058,2091,2042,2026,2039,1969
2047,2066,2088,2112,2053,2052,2046,1995
2052,2059,2095,2109,2054,2058,2049,2011
2047,2047,2092,2096,2043,2053,2047,2016
2041,2044,2107,2091,2044,2053,2032,2024
2043,2062,2126,2088,2054,2054,2024,2041
2041,2063,2121,2094,2063,2059,2043,2047
2047,2067,2113,2096,2069,2066,2060,2059
2043,2057,2089,2095,2067,2068,2055,2063
2050,2065,2077,2093,2068,2063,2051,2068
2049,2058,2056,2079,2062,2059,2048,2071
2045,2043,2048,2060,2064,2058,2044,2085
2062,2058,2054,2054,2070,2064,2049,2093
2062,2061,2045,2048,2066,2062,2039,2094
2072,2063,2054,2036,2065,2061,2032,2096
2076,2056,2056,2034,2061,2064,2058,2097
2071,2050,2050,2032,2060,2060,2074,2082
2063,2057,2060,2036,2056,2064,2065,2061
2046,2058,2068,2034,2059,2054,2050,2041
2036,2064,2071,2034,2040,2061,2052,2013
2021,2059,2074,2027,2012,2076,2064,2009
2030,2071,2083,2030,2006,2082,2061,2000
2056,2076,2091,2031,2006,2084,2053,1983
2057,2066,2077,2020,2019,2075,2063,1969
2049,2062,2081,2042,2065,2053,2063,1962
2050,2063,2085,2062,2110,2049,2077,1955
2033,2054,2076,2054,2108,2065,2047,1945
2045,2055,2074,2052,2113,2078,2047,1945
2049,2058,2068,2055,2093,2068,2037,1944
2045,2050,2057,2058,2078,2052,2021,1946
2041,2042,2043,2063,2067,2039,2017,1942
2034,2042,2040,2058,2057,2034,2047,1957
2056,2052,2046,2063,2053,2041,2051,1988
2058,2052,2056,2076,2051,2040,2033,1999
2060,2056,2065,2091,2062,2043,2038,2010
2055,2059,2061,2100,2069,2012,2038,2015
2055,2055,2048,2099,2070,1996,2034,2028
2057,2053,2039,2099,2070,2016,2050,2038
2054,2049,2040,2094,2074,2037,2048,2042
2053,2062,2046,2106,2075,2050,2051,2055
2050,2053,2041,2094,2072,2058,2047,2060
2047,2046,2035,2068,2062,2050,2045,2067
2047,2043,2021,2056,2053,2052,2018,2068
2040,2027,2008,2048,2052,2049,2026,2077
2045,2030,2019,2061,2059,2068,2038,2086
2052,2052,2047,2072,2068,2071,2049,2086
2062,2054,2046,2060,2064,2052,2041,2085
2061,2051,2038,2041,2052,2043,2024,2081
2052,2045,2043,2031,2049,2038,2030,2086
2053,2061,2043,2029,2045,2041,2042,2076
2060,2068,2046,2024,2045,2047,2052,2062
2057,2057,2035,2011,2040,2044,2049,2049
2053,2053,2032,1997,2038,2048,2054,2042
2053,2050,2027,2002,2043,2054,2061,2031
2050,2050,2032,2016,2048,2056,2051,2014
2044,2040,2029,2022,2049,2046,2053,2001
2035,2033,2027,2030,2044,2047,2060,1983
2040,2035,2039,2041,2051,2044,2051,1972
2043,2039,2070,2051,2050,2041,2061,1965
2050,2047,2081,2060,2055,2048,2044,1959
2044,2048,2083,2067,2058,2054,2025,1959
2047,2045,2079,2081,2074,2053,2047,1966
2057,2063,2093,2087,2079,2050,2054,1974
2065,2061,2110,2093,2069,2045,2039,1967
2066,2062,2119,2091,2068,2037,2035,1977
2065,2052,2117,2097,2061,2034,2034,1975
2052,2032,2098,2084,2047,2032,2030,1991
2057,2033,2078,2077,2046,2031,2033,2005
2053,2032,2058,2080,2054,2021,2027,2015
2048,2025,2040,2081,2040,2016,2021,2039
2049,2012,2036,2069,2043,2022,2045,2046
2052,2007,2034,2066,2040,2022,2048,2047
2053,2012,2040,2066,2043,2032,2053,2062
2039,2013,2044,2069,2049,2048,2057,2072
2041,2029,2043,2069,2056,2057,2067,2084
2057,2041,2021,2073,2062,2064,2064,2082
2049,2019,1989,2060,2054,2067,2047,2089
2039,2009,1990,2053,2062,2076,2038,2096
2049,2009,1988,2048,2065,2088,2063,2093
2053,2015,1982,2047,2068,2120,2078,2104
2057,2033,1997,2059,2081,2156,2097,2106
2054,2038,2012,2075,2088,2191,2098,2091
2056,2044,2029,2090,2096,2197,2087,2098
2069,2048,2044,2099,2092,2144,2081,2087
2073,2052,2049,2101,2090,2026,2076,2061
2062,2048,2046,2105,2083,1980,2055,2052
2053,2039,2037,2096,2084,1998,2049,2032
2051,2043,2032,2086,2081,1993,2025,2010
2052,2043,2029,2080,2078,1983,2007,1994
2054,2053,2034,2065,2065,1975,2004,1981
2052,2047,2025,2042,2056,1976,1998,1968
2051,2044,2047,2048,2037,1989,2036,1965
2065,2061,2087,2051,2035,2034,2035,1962
2059,2074,2108,2050,2050,2066,2045,1963
2062,2080,2123,2039,2049,2062,2047,1965
2061,2087,2126,2038,2041,2049,2043,1975
2065,2090,2135,2042,2041,2050,2051,1980
2063,2079,2124,2039,2039,2054,2041,1985
2066,2066,2120,2052,2040,2047,2049,1991
2063,2060,2115,2071,2039,2056,2047,2005
2069,2065,2116,2083,2043,2058,2052,2018
2068,2062,2120,2094,2048,2056,2047,2035
2062,2057,2138,2109,2050,2045,2029,2035
2061,2052,2141,2110,2039,2041,2044,2048
2059,2049,2140,2111,2032,2035,2046,2052
2057,2048,2141,2100,2029,2028,2037,2070
2057,2041,2143,2099,2035,2032,2045,2085
2056,2047,2122,2095,2038,2038,2034,2089
2061,2067,2129,2101,2048,2045,2040,2088
2062,2070,2132,2099,2047,2043,2043,2092
2066,2074,2134,2102,2044,2044,2040,2106
2074,2080,2137,2092,2044,2045,2056,2115
2065,2076,2122,2080,2045,2050,2055,2116
2067,2085,2120,2077,2051,2055,2052,2118
2075,2099,2111,2043,2041,2052,2065,2120
2078,2084,2069,2012,2033,2049,2056,2116
2075,2064,2060,2002,2042,2052,2053,2109
2074,2078,2083,2017,2056,2068,2058,2091
2077,2082,2086,2017,2068,2074,2062,2069
2070,2072,2074,2034,2077,2072,2063,2065
2065,2060,2074,2045,2074,2069,2044,2054
2060,2056,2085,2057,2076,2071,2067,2035
2059,2054,2082,2065,2085,2076,2064,2019
2057,2047,2083,2071,2073,2076,2060,2001
2058,2049,2069,2083,2077,2072,2062,1989
2055,2037,2052,2086,2072,2071,2047,1974
2038,2028,2024,2084,2079,2072,2033,1966
2039,2026,2003,2078,2081,2078,2056,1966
2043,2034,2005,2078,2087,2081,2060,1962
2036,2035,1998,2068,2085,2082,2053,1971
2044,2044,1990,2066,2087,2090,2059,1984
2055,2041,1977,2056,2082,2087,2058,1998
2050,2028,1957,2043,2064,2071,2039,2014
2054,2025,1967,2035,2059,2069,2035,2027
2060,2028,1980,2047,2054,2070,2043,2039
2070,2033,1995,2050,2058,2060,2035,2049
2060,2037,2006,2054,2060,2026,2037,2062
2062,2037,2007,2048,2048,2008,2042,2062
2056,2033,2000,2044,2041,2011,2035,2072
2053,2027,2005,2045,2034,2012,2027,2079
2052,2027,2000,2034,2045,2023,2032,2089
2050,2026,2011,2028,2032,2027,2029,2092
2050,2026,2024,2031,2037,2032,2035,2100
2049,2023,2030,2027,2046,2042,2047,2109
2055,2038,2042,2029,2049,2044,2062,2109
2061,2047,2058,2025,2043,2047,2055,2108
2060,2051,2075,2023,2037,2040,2053,2103
2055,2044,2076,2022,2039,2036,2043,2102
2054,2057,2098,2040,2036,2043,2052,2101
2067,2059,2111,2054,2053,2049,2067,2097
2073,2070,2122,2068,2060,2056,2068,2093
2078,2078,2121,2068,2067,2062,2079,2077
2076,2073,2108,2075,2069,2070,2082,2069
2070,2073,2095,2085,2079,2073,2079,2048
2068,2072,2086,2083,2077,2068,2067,2025
2061,2069,2082,2080,2080,2071,2066,2011
2070,2067,2084,2077,2072,2061,2060,2004
2074,2064,2085,2073,2067,2060,2064,2000
2071,2064,2087,2070,2062,2054,2052,1989
2056,2052,2093,2060,2058,2055,2066,1983
2063,2070,2100,2060,2060,2062,2070,1993
2069,2076,2097,2060,2064,2060,2060,1997
2072,2068,2086,2062,2061,2052,2052,1998
2075,2063,2074,2060,2058,2046,2064,2008
2074,2060,2077,2062,2050,2062,2063,2015
2071,2062,2079,2058,2049,2078,2057,2029
2073,2052,2069,2065,2062,2086,2060,2041
2064,2063,2080,2073,2064,2088,2039,2061
2072,2066,2085,2073,2064,2082,2041,2078
2079,2067,2079,2078,2059,2080,2072,2083
2081,2070,2083,2072,2059,2075,2067,2099
2078,2068,2074,2070,2059,2067,2065,2109
2070,2068,2084,2078,2054,2058,2069,2114
2069,2064,2086,2081,2052,2039,2042,2120
2068,2058,2090,2074,2053,2020,2059,2117
2063,2048,2089,2076,2044,2004,2054,2122
2055,2045,2083,2077,2044,2007,2064,2129
2064,2047,2073,2070,2035,2006,2055,2128
2068,2046,2065,2071,2029,2021,2057,2125
2059,2050,2060,2076,2032,2042,2063,2118
2054,2046,2055,2090,2027,2065,2058,2112
2066,2046,2056,2095,2034,2068,2045,2102
2066,2041,2061,2101,2047,2074,2068,2093
2057,2043,2050,2098,2060,2070,2064,2076
2052,2037,2034,2087,2056,2070,2074,2066
2053,2029,2013,2072,2051,2066,2066,2046
2046,2026,1994,2055,2050,2067,2069,2035
2043,2023,1973,2045,2052,2064,2060,2016
2044,2015,1955,2054,2054,2073,2046,2006
2040,2005,1938,2056,2054,2062,2036,1993
2041,1993,1923,2048,2044,2051,2048,1974
2035,1987,1927,2045,2046,2053,2052,1973
2051,2005,1950,2050,2054,2058,2059,1977
2059,2024,1959,2039,2048,2057,2053,1977
2061,2015,1949,2017,2037,2054,2048,1990
2071,2025,1970,2019,2036,2054,2055,1992
2064,2033,1991,2018,2038,2051,2045,2003
2063,2034,1996,2022,2047,2047,2032,2005
2057,2043,2020,2016,2038,2042,2036,2022
2056,2050,2036,2010,2039,2044,2020,2040
2057,2036,2032,1997,2020,2031,2023,2049
2042,2024,2029,1988,2015,2028,2046,2066
2047,2030,2036,1990,2013,2032,2046,2075
2050,2047,2082,1995,2020,2041,2041,2083
2056,2065,2108,2009,2028,2043,2048,2101
2064,2070,2101,2019,2041,2054,2069,2122
2074,2075,2104,2032,2060,2065,2056,2136
2082,2077,2114,2050,2064,2059,2067,2143
2088,2070,2116,2059,2061,2052,2044,2144
2080,2068,2122,2062,2061,2052,2072,2156
2090,2087,2119,2067,2056,2042,2065,2148
2093,2084,2116,2066,2059,2037,2055,2148
2089,2078,2116,2075,2067,2038,2053,2138
2080,2066,2117,2068,2061,2049,2070,2132
2075,2060,2119,2075,2061,2063,2077,2126
2074,2059,2107,2070,2067,2073,2059,2114
2069,2059,2097,2083,2060,2078,2074,2102
2067,2062,2096,2091,2072,2084,2074,2086
2066,2060,2085,2094,2080,2094,2072,2074
2066,2047,2081,2086,2074,2108,2085,2052
2067,2043,2075,2085,2069,2106,2078,2042
2064,2057,2083,2097,2058,2106,2082,2022
2064,2052,2077,2096,2047,2103,2071,2012
2064,2044,2083,2105,2048,2079,2061,2000
2068,2050,2081,2104,2049,2022,2054,1990
2068,2051,2079,2100,2045,2018,2075,1997
2064,2050,2071,2104,2039,2022,2057,1999
2060,2044,2063,2095,2036,2013,2055,2008
2059,2032,2054,2077,2027,2005,2049,2011
2065,2037,2058,2079,2041,2002,2042,2020
2069,2054,2069,2093,2052,2006,2051,2033
2084,2073,2087,2092,2053,2009,2059,2052
2077,2078,2085,2086,2050,2018,2070,2058
2084,2071,2070,2064,2049,2024,2066,2070
2085,2060,2061,2040,2048,2028,2070,2080
2073,2058,2060,2030,2044,2011,2061,2086
2066,2062,2054,2019,2041,1998,2048,2100
2072,2062,2051,2010,2044,1998,2039,2110
2074,2053,2045,2002,2046,2006,2049,2120
2069,2047,2040,2003,2042,2009,2054,2129
2067,2046,2047,2008,2038,2001,2021,2126
2061,2040,2037,2016,2038,1995,2027,2132
2060,2035,2045,2032,2047,2012,2046,2141
2073,2056,2057,2040,2062,2031,2051,2143
2086,2069,2068,2051,2071,2045,2060,2154
2087,2062,2059,2060,2073,2064,2046,2142
2076,2053,2039,2063,2075,2083,2069,2126
2076,2046,2023,2062,2071,2106,2055,2116
2066,2042,2025,2060,2075,2118,2064,2094
2053,2030,2027,2056,2074,2128,2068,2079
2053,2028,2028,2068,2081,2133,2082,2072
2049,2031,2033,2073,2076,2122,2076,2051
2051,2024,2024,2071,2078,2102,2075,2042
2054,2019,2016,2071,2077,2088,2069,2032
2052,2022,2016,2070,2072,2074,2059,2016
2045,2019,2008,2066,2062,2051,2044,1999
2053,2014,2005,2055,2054,2052,2041,1989
2042,2007,1987,2037,2046,2048,2034,1978
2035,1994,1976,2012,2026,2034,2036,1978
2045,2005,1995,2004,2022,2029,2040,1987
2057,2032,2039,2022,2024,2038,2047,1996
2065,2059,2083,2026,2027,2044,2055,2008
2068,2058,2077,2035,2026,2039,2044,2007
2059,2048,2061,2027,2025,2037,2049,2019
2058,2041,2049,2026,2028,2048,2036,2045
2074,2048,2047,2034,2039,2060,2040,2063
2073,2057,2065,2046,2053,2066,2044,2078
2080,2067,2066,2051,2057,2069,2053,2100
2079,2066,2066,2051,2056,2068,2044,2108
2081,2067,2056,2035,2046,2057,2057,2120
2082,2071,2046,2028,2035,2063,2052,2130
2084,2078,2060,2032,2041,2066,2056,2148
2096,2088,2074,2041,2049,2063,2063,2152
2091,2081,2087,2051,2046,2057,2063,2154
2081,2072,2090,2060,2048,2058,2062,2155
2086,2071,2093,2067,2059,2063,2064,2165
2090,2066,2083,2061,2053,2061,2070,2167
2085,2069,2082,2063,2061,2074,2052,2163
2088,2073,2090,2063,2060,2079,2069,2165
2086,2080,2091,2066,2068,2110,2073,2149
2083,2082,2084,2052,2066,2134,2068,2143
2085,2071,2068,2039,2049,2130,2076,2138
2091,2074,2070,2033,2042,2133,2076,2123
2088,2068,2066,2046,2048,2115,2074,2102
2081,2066,2070,2062,2058,2060,2073,2095
2089,2069,2071,2073,2057,2025,2081,2082
2087,2066,2071,2065,2049,2015,2084,2058
2076,2058,2067,2063,2032,2009,2085,2039
2071,2054,2058,2043,2009,1976,2051,2018
2065,2046,2049,2028,1994,1956,2057,2007
2058,2041,2047,2045,2005,1930,2042,2008
2059,2041,2043,2050,2005,1926,2032,2003
2063,2046,2047,2045,2012,1980,2033,1997
2068,2052,2052,2062,2046,2046,2041,2002
2071,2059,2062,2072,2066,2054,2059,2013
2080,2062,2065,2076,2075,2058,2058,2022
2074,2070,2058,2072,2081,2066,2071,2036
2072,2060,2053,2065,2069,2048,2045,2050
2065,2045,2046,2065,2067,2062,2046,2065
2062,2045,2038,2064,2064,2084,2057,2090
2069,2046,2040,2072,2064,2085,2071,2096
2062,2045,2045,2074,2055,2082,2069,2106
2065,2042,2037,2077,2053,2069,2068,2117
2057,2042,2034,2069,2050,2063,2068,2126
2057,2039,2030,2067,2041,2063,2052,2131
2051,2033,2022,2064,2048,2061,2057,2133
2047,2028,2018,2066,2041,2062,2059,2137
2052,2028,2012,2063,2045,2062,2061,2145
2064,2040,2017,2072,2051,2068,2056,2145
2066,2036,2023,2084,2054,2065,2073,2150
2068,2039,2021,2084,2058,2070,2073,2149
2068,2050,2026,2076,2063,2065,2086,2146
2070,2051,2018,2060,2063,2069,2083,2140
2076,2046,2012,2045,2066,2068,2072,2130
2074,2047,2010,2042,2070,2062,2069,2116
2066,2036,2020,2039,2062,2062,2054,2104
2055,2038,2019,2043,2068,2051,2057,2088
2065,2044,2038,2053,2063,2045,2069,2071
2058,2044,2040,2052,2063,2045,2068,2055
2065,2043,2036,2049,2056,2037,2054,2042
2056,2046,2045,2046,2057,2036,2065,2032
2068,2062,2058,2050,2063,2038,2066,2024
2066,2066,2068,2040,2051,2039,2050,2013
2065,2053,2057,2029,2034,2039,2063,2012
2054,2055,2049,2027,2017,2042,2055,2020
2060,2056,2053,2030,2026,2044,2066,2027
2073,2067,2075,2044,2035,2050,2058,2030
2075,2069,2080,2053,2042,2055,2056,2041
2077,2074,2091,2072,2046,2060,2055,2048
2079,2073,2088,2076,2048,2065,2042,2068
2070,2068,2074,2081,2045,2062,2061,2095
2075,2071,2070,2081,2053,2066,2059,2102
2080,2068,2074,2085,2046,2066,2068,2112
2075,2073,2065,2080,2043,2066,2066,2124
2072,2063,2056,2066,2028,2066,2063,2126
2073,2066,2052,2054,2029,2070,2050,2140
2081,2080,2059,2047,2017,2067,2078,2152
2083,2079,2056,2044,2011,2064,2066,2155
2085,2071,2040,2027,2018,2056,2049,2148
2066,2046,2008,2012,2021,2035,2033,2140
2043,2041,2004,2028,2030,2015,2050,2150
2053,2051,2016,2043,2049,2013,2033,2162
2068,2057,2029,2059,2049,2026,2062,2163
2071,2066,2049,2065,2056,2024,2048,2171
2065,2054,2035,2063,2052,2024,2060,2163
2069,2048,2016,2066,2051,2039,2075,2161
2078,2058,2024,2084,2056,2047,2073,2152
2078,2059,2009,2088,2051,2047,2062,2146
2080,2052,1988,2087,2065,2055,2067,2125
2070,2041,1975,2088,2089,2080,2082,2105
2060,2033,1968,2090,2100,2104,2080,2078
2054,2025,1972,2089,2094,2133,2073,2064
2059,2021,1964,2079,2072,2148,2082,2061
2065,2027,1971,2056,2061,2126,2093,2050
2056,2033,1987,2054,2055,2044,2071,2034
2050,2029,1993,2038,2041,1986,2049,2026
2050,2021,1989,2017,2037,2007,2055,2017
2051,2025,1993,1997,2035,2038,2054,2012
2048,2026,1984,1987,2037,2041,2056,2022
2058,2033,1989,1985,2047,2026,2051,2033
2060,2041,2019,1997,2070,2012,2039,2041
2071,2036,2029,2018,2086,2027,2060,2057
2073,2043,2022,2030,2079,2033,2059,2075
2073,2046,2028,2048,2066,2041,2050,2094
2076,2050,2044,2058,2059,2044,2059,2097
2081,2057,2069,2065,2049,2048,2050,2104
2082,2057,2064,2057,2044,2053,2054,2119
2079,2058,2078,2064,2052,2059,2081,2127
2067,2063,2089,2060,2031,2056,2048,2134
2072,2072,2103,2050,2011,2048,2060,2157
2072,2070,2088,2036,1991,2040,2059,2168
2083,2075,2079,2037,1986,2040,2063,2172
2083,2062,2056,2033,1982,2026,2048,2164
2070,2049,2049,2034,1986,2030,2060,2180
2085,2066,2070,2046,2008,2039,2065,2187
2085,2089,2097,2059,2020,2043,2065,2186
2083,2093,2102,2063,2043,2048,2074,2176
2085,2091,2091,2051,2062,2051,2058,2173
2074,2071,2066,2054,2063,2054,2065,2166
2074,2056,2062,2060,2074,2051,2068,2151
2067,2052,2059,2072,2069,2052,2061,2142
2064,2052,2061,2060,2064,2061,2059,2124
2062,2050,2052,2058,2066,2077,2062,2109
2063,2052,2054,2058,2058,2085,2064,2098
2068,2052,2053,2053,2049,2081,2056,2075
2062,2049,2054,2041,2020,2065,2056,2061
2065,2045,2053,2039,2009,2042,2060,2056
2069,2051,2058,2044,2024,2019,2072,2051
2075,2061,2070,2057,2056,2024,2063,2047
2069,2056,2055,2059,2056,2041,2060,2038
2067,2051,2055,2063,2055,2060,2069,2033
2064,2054,2050,2075,2053,2058,2064,2031
2060,2051,2049,2071,2036,2050,2045,2039
2062,2051,2051,2065,2019,2050,2056,2051
2072,2058,2046,2053,2008,2045,2043,2061
2071,2065,2053,2047,1989,2044,2059,2080
2072,2068,2049,2039,1969,2042,2057,2095
2075,2062,2041,2035,1968,2045,2068,2108
2074,2062,2033,2032,1979,2043,2052,2115
2079,2062,2038,2033,1992,2042,2058,2124
2086,2069,2040,2035,2013,2044,2049,2138
2074,2064,2033,2027,2027,2050,2071,2142
2067,2061,2031,2034,2037,2059,2062,2147
2068,2054,2024,2028,2061,2053,2056,2153
2065,2040,2008,2021,2081,2049,2048,2154
2063,2028,1995,2020,2054,2040,2063,2157
2057,2012,1978,2016,2051,2038,2051,2160
2048,2005,1963,2027,2092,2062,2058,2168
2050,2008,1963,2028,2112,2079,2069,2159
2047,2007,1952,2028,2118,2081,2059,2153
2047,2004,1940,2017,2108,2075,2048,2148
2046,2005,1937,2007,2082,2078,2056,2145
2043,2000,1940,2010,2062,2077,2061,2143
2045,1999,1949,2006,2036,2074,2060,2132
2042,2005,1952,2006,1983,2070,2067,2123
2052,2022,1981,2002,1917,2068,2076,2111
2057,2034,1993,1997,1917,2051,2068,2097
2061,2040,2012,2013,1962,2036,2056,2091
2065,2064,2054,2027,2005,2024,2052,2076
2080,2080,2092,2033,2017,2007,2039,2059
2074,2079,2120,2060,2038,2000,2048,2056
2077,2084,2165,2088,2063,2012,2061,2048
2081,2082,2165,2090,2069,2018,2070,2035
2067,2065,2137,2068,2052,2019,2058,2022
2065,2072,2129,2073,2047,2045,2058,2026
2067,2075,2110,2073,2044,2052,2059,2023
2065,2070,2102,2071,2038,2047,2070,2031
2069,2071,2090,2084,2052,2042,2073,2047
2077,2074,2089,2098,2060,2044,2064,2069
2082,2076,2086,2101,2076,2050,2060,2081
2078,2072,2074,2096,2079,2062,2060,2077
2071,2064,2072,2089,2073,2056,2058,2096
2076,2059,2073,2081,2057,2058,2045,2104
2069,2056,2072,2073,2059,2058,2055,2111
2070,2059,2066,2074,2063,2058,2057,2123
2070,2061,2066,2069,2065,2056,2061,2140
2069,2062,2070,2067,2067,2051,2060,2148
2075,2055,2064,2061,2071,2048,2061,2160
2070,2048,2059,2060,2072,2052,2058,2157
2055,2041,2051,2055,2073,2055,2073,2166
2059,2044,2046,2058,2088,2064,2074,2169
2057,2043,2042,2059,2091,2060,2078,2166
2061,2042,2029,2073,2091,2059,2085,2162
2057,2044,2014,2085,2087,2057,2094,2154
2062,2038,2019,2095,2070,2057,2081,2157
2068,2030,2017,2084,1999,2047,2084,2160
2065,2030,2020,2078,1974,2048,2090,2156
2072,2042,2023,2089,2019,2047,2088,2136
2065,2039,2036,2100,2053,2049,2080,2118
2072,2043,2045,2099,2054,2048,2082,2109
2075,2048,2050,2097,2039,2042,2082,2100
2073,2046,2039,2092,2037,2036,2080,2074
2069,2043,2027,2076,2015,2039,2076,2052
2065,2039,2014,2057,2012,2045,2064,2034
2052,2028,2006,2053,2002,2037,2060,2016
2044,2025,2019,2043,1986,2024,2050,1999
2028,2013,2022,2019,1970,2017,2032,1986
2033,2018,2034,2015,1990,2008,2048,2004
2046,2046,2060,2029,1982,1992,2052,2026
2053,2044,2047,2000,1884,2001,2058,2027
2057,2050,2046,1999,1890,2036,2061,2043
2069,2069,2064,2024,1942,2037,2082,2060
2081,2081,2075,2038,1981,2010,2072,2074
2094,2076,2059,2041,2011,2027,2090,2098
2088,2063,2043,2042,2026,2043,2085,2107
2075,2061,2049,2046,2014,2045,2057,2112
2075,2060,2064,2050,2009,2064,2067,2114
2072,2063,2074,2038,1990,2063,2068,2118
2074,2065,2071,2025,1980,2062,2077,2139
2078,2064,2068,2011,1971,2053,2078,2150
2081,2068,2064,1999,1960,2049,2072,2152
2080,2066,2061,2002,1978,2047,2067,2147
2063,2056,2047,2002,1980,2039,2073,2147
2062,2050,2042,2013,2005,2045,2059,2167
2069,2049,2047,2022,2039,2049,2069,2168
2065,2049,2040,2037,2077,2062,2070,2166
2060,2053,2048,2050,2088,2052,2064,2159
2063,2057,2045,2043,2065,2056,2040,2150
2061,2057,2045,2035,2046,2039,2058,2142
2063,2060,2042,2049,2050,2028,2057,2144
2064,2060,2045,2060,2062,1995,2063,2135
2077,2072,2058,2072,2085,1976,2076,2132
2080,2068,2061,2081,2152,1971,2070,2122
2075,2068,2059,2085,2200,1990,2090,2105
2072,2061,2051,2084,2202,2028,2085,2099
2068,2057,2059,2085,2197,2052,2096,2075
2079,2067,2062,2081,2159,2055,2099,2060
2075,2068,2057,2068,2106,2049,2087,2049
2072,2069,2057,2066,2052,2040,2077,2033
2070,2054,2037,2060,2014,2040,2053,2018
2067,2049,2034,2065,2032,2056,2049,2023
2069,2062,2036,2076,2032,2072,2050,2028
2076,2063,2044,2073,1986,2073,2058,2021
2071,2062,2046,2062,1964,2070,2054,2026
2078,2064,2035,2070,1982,2076,2055,2035
2078,2054,2040,2076,1999,2079,2051,2045
2072,2057,2034,2077,2015,2076,2079,2065
2074,2051,2030,2086,2039,2081,2083,2072
2062,2047,2025,2084,2046,2080,2083,2083
2059,2055,2028,2092,2078,2083,2074,2095
2053,2040,2022,2075,2105,2063,2069,2095
2052,2031,2018,2060,2062,2022,2051,2108
2047,2031,2018,2040,2012,1988,2041,2117
2050,2031,2024,2032,2060,1993,2031,2125
2055,2032,2032,2035,2117,2010,2027,2140
2049,2030,2037,2025,2114,2012,2038,2140
2045,2028,2040,2016,2104,2019,2039,2146
2053,2038,2054,2021,2098,2029,2053,2159
2067,2058,2062,2024,2078,2035,2047,2161
2073,2066,2064,2028,2054,2039,2052,2153
2077,2065,2056,2018,1989,2031,2045,2162
2065,2059,2056,2019,1932,2032,2052,2150
2068,2065,2071,2028,1948,2053,2056,2147
2061,2061,2078,2037,1967,2070,2066,2136
2065,2058,2070,2034,1972,2074,2076,2115
2066,2055,2067,2032,1967,2083,2076,2108
2069,2061,2067,2033,1977,2078,2071,2095
2062,2060,2061,2034,1989,2074,2073,2080
2069,2056,2058,2037,2017,2076,2071,2068
2069,2045,2051,2054,2065,2095,2060,2053
2064,2053,2054,2072,2095,2103,2081,2039
2066,2057,2060,2093,2142,2060,2094,2026
2057,2051,2053,2085,2155,2061,2067,2012
2054,2045,2046,2074,2137,2098,2070,2004
2054,2046,2040,2066,2134,2153,2058,2006
2056,2043,2034,2061,2127,2164,2075,2021
2059,2045,2029,2068,2107,2144,2088,2030
2062,2046,2014,2064,2103,2095,2076,2044
2064,2045,2014,2061,2098,2045,2068,2051
2069,2057,2020,2052,2052,2022,2066,2063
2063,2056,2018,2023,1947,2004,2063,2066
2060,2041,2002,1981,1833,1978,2059,2069
2050,2026,1995,1956,1764,1960,2051,2076
2044,2028,1997,1948,1786,1968,2045,2094
2048,2029,2000,1981,1912,1993,2056,2096
2042,2027,1994,2017,2032,2015,2050,2104
2050,2020,1990,2041,2105,2040,2071,2120
2054,2028,1988,2059,2137,2058,2069,2134
2063,2040,1993,2054,2100,2056,2058,2142
2058,2039,2003,2041,2060,2055,2059,2144
2062,2042,2018,2045,2051,2065,2072,2149
2065,2048,2025,2045,2054,2066,2075,2159
2069,2037,2008,2039,2050,2063,2068,2153
2064,2032,1996,2030,2049,2048,2042,2144
2061,2030,2000,2029,2033,2042,2063,2139
2065,2036,2007,2028,2015,2037,2063,2133
2074,2048,2012,2036,2002,2023,2056,2127
2072,2036,2011,2043,2004,2017,2056,2110
2060,2030,2017,2045,1990,2020,2061,2096
2053,2027,2026,2037,1973,2021,2059,2078
2042,2020,2026,2026,1961,2018,2067,2065
2039,2019,2045,2023,1970,2024,2056,2052
2041,2023,2072,2028,1983,2039,2042,2036
2050,2037,2096,2049,1998,2049,2042,2024
2055,2047,2119,2062,2009,2049,2065,2022
2062,2067,2128,2069,2033,2054,2040,2010
2060,2063,2098,2074,2050,2057,2044,2002
2055,2055,2072,2087,2091,2078,2055,2004
2064,2069,2077,2120,2097,2084,2063,2008
2071,2068,2076,2128,2061,2077,2062,2021
2072,2061,2065,2119,2034,2069,2046,2028
2071,2052,2042,2114,2036,2054,2056,2034
2068,2052,2028,2120,2020,2026,2050,2052
2057,2043,2022,2116,2002,2017,2036,2065
2059,2043,2019,2112,1973,2023,2046,2072
2060,2050,2030,2118,1952,2033,2048,2078
2058,2049,2025,2118,1959,2045,2056,2091
2056,2040,2011,2102,1978,2056,2063,2092
2054,2036,1977,2065,1957,2057,2066,2107
2045,2020,1962,2014,1936,2053,2051,2121
2045,2030,2003,1984,1938,2045,2066,2120
2054,2059,2077,1997,1957,2041,2059,2134
2058,2073,2104,1982,1882,2021,2048,2141
2056,2068,2074,1955,1845,2012,2050,2144
2060,2066,2065,1997,2051,2046,2045,2155
2070,2072,2074,2062,2193,2085,2063,2161
2068,2073,2084,2089,2250,2115,2074,2162
2067,2073,2086,2087,2303,2146,2093,2159
2068,2077,2093,2085,2375,2160,2093,2163
2070,2081,2099,2076,2379,2174,2107,2154
2079,2076,2104,2073,2364,2188,2101,2146
2078,2076,2097,2079,2367,2198,2100,2132
2078,2076,2095,2079,2372,2198,2103,2109
2077,2078,2100,2086,2330,2180,2099,2099
2077,2073,2107,2080,2256,2127,2099,2083
2069,2073,2097,2056,2156,2066,2078,2056
2056,2055,2074,2012,1990,1985,2053,2021
2048,2043,2052,1965,1806,1904,2021,1988
2034,2020,2025,1943,1692,1860,1994,1965
2019,2013,2019,1956,1734,1861,1995,1966
2031,2023,2038,1996,1867,1909,2025,1969
2041,2043,2056,2030,1965,1954,2047,1980
2045,2050,2052,2029,1999,1990,2043,1982
2051,2047,2051,2029,2037,2037,2053,1995
2043,2045,2057,2039,2061,2043,2060,2011
2048,2051,2062,2049,2059,2048,2065,2020
2046,2047,2054,2046,2053,2046,2056,2034
2049,2050,2052,2042,2054,2051,2054,2053
2054,2038,2049,2032,2048,2063,2050,2062
2054,2038,2039,2028,2028,2083,2051,2071
2046,2038,2027,2029,2002,2094,2050,2080
2049,2042,2034,2048,2001,2086,2038,2084
2049,2037,2040,2045,2002,2058,2034,2103
2052,2041,2039,2045,2004,1998,2032,2116
2051,2040,2043,2048,2030,1959,2037,2138
2059,2038,2050,2060,2071,1969,2038,2138
2053,2023,2038,2060,2089,2016,2056,2143
2054,2029,2038,2060,2094,2076,2049,2151
2059,2043,2046,2069,2093,2106,2052,2138
2061,2047,2049,2067,2066,2110,2055,2137
2062,2040,2042,2062,2057,2097,2060,2142
2064,2036,2033,2072,2051,2073,2059,2140
2058,2035,2038,2076,2062,2034,2038,2130
2056,2039,2030,2075,2077,2039,2071,2123
2053,2043,2033,2072,2088,2062,2076,2102
2052,2047,2032,2057,2070,2078,2076,2096
2058,2033,2020,2044,2072,2086,2077,2077
2060,2034,2012,2036,2062,2081,2077,2075
2064,2046,2032,2059,2088,2051,2071,2059
2066,2042,2034,2073,2105,2054,2056,2045
2054,2040,2021,2076,2088,2062,2064,2026
2047,2034,2011,2058,2092,2066,2070,2014
2047,2023,1998,2027,2083,2070,2054,1994
2039,2007,1991,2010,2075,2070,2064,1982
2042,2019,2016,1990,2053,2083,2050,1984
2039,2030,2036,1968,2052,2100,2046,1981
2040,2036,2060,1991,2056,2114,2048,1994
2051,2054,2101,2019,2080,2138,2050,2002
2054,2067,2105,2020,2058,2106,2054,2013
2060,2064,2081,2002,2021,2041,2055,2041
2061,2057,2067,2015,2043,2008,2068,2061
2061,2061,2059,2037,2061,2052,2055,2076
2069,2069,2075,2058,2070,2073,2056,2087
2085,2086,2088,2083,2095,2047,2047,2100
2085,2083,2090,2070,2049,2013,2040,2102
2080,2080,2079,2056,1998,2006,2036,2106
2067,2064,2063,2044,1985,2009,2044,2108
2061,2047,2061,2044,2009,2033,2039,2120
2063,2047,2055,2050,2041,2041,2041,2124
2062,2039,2059,2043,2040,2035,2035,2125
2056,2037,2061,2037,2031,2034,2035,2133
2065,2048,2061,2041,2032,2038,2032,2131
2061,2049,2064,2037,2027,2033,2046,2128
2059,2046,2065,2038,2037,2007,2031,2126
2060,2043,2060,2041,2046,1976,2021,2119
2059,2042,2057,2037,2046,1975,2010,2109
2054,2040,2057,2043,2054,1991,2033,2111
2051,2041,2053,2042,2057,2013,2050,2103
2052,2037,2051,2048,2051,2030,2041,2083
2051,2035,2055,2041,2043,2035,2055,2070
2054,2049,2058,2049,2061,2051,2060,2053
2058,2052,2061,2050,2080,2061,2073,2038
2056,2046,2052,2051,2098,2058,2068,2020
2055,2042,2050,2052,2087,2061,2054,2011
2058,2042,2043,2050,2085,2064,2029,1995
2060,2040,2038,2056,2085,2073,2046,1977
2046,2030,2025,2049,2089,2102,2056,1974
2041,2023,2013,2063,2104,2131,2055,1974
2047,2025,2017,2074,2130,2140,2041,1979
2050,2031,2018,2078,2141,2121,2044,1980
2056,2036,2019,2074,2068,2033,2033,1995
2053,2046,2021,2065,1928,1989,2044,2000
2065,2050,2019,2065,1916,2010,2052,2023
2064,2056,2024,2069,1946,2025,2047,2040
2068,2053,2021,2064,1951,2042,2058,2055
2056,2047,2021,2058,1959,2062,2022,2062
2057,2043,2022,2058,1993,2083,2029,2077
2067,2054,2039,2059,2009,2098,2064,2085
2071,2059,2037,2042,1973,2103,2066,2096
2067,2064,2051,2033,2011,2089,2065,2102
2066,2055,2046,2020,2084,2075,2055,2102
2061,2050,2042,2023,2134,2088,2069,2109
2066,2053,2037,2020,2152,2098,2051,2112
2059,2041,2022,2017,2166,2104,2052,2118
2060,2041,2028,2028,2182,2115,2061,2126
2067,2052,2052,2036,2153,2113,2043,2121
2065,2052,2059,2021,2060,2092,2047,2114
2066,2050,2051,2006,2008,2075,2049,2108
2058,2049,2040,2008,2039,2049,2056,2104
2060,2046,2047,2027,2069,2044,2048,2093
2058,2054,2057,2034,2074,2038,2056,2083
2057,2054,2062,2041,2101,2022,2026,2081
2056,2043,2046,2035,2108,2005,2031,2074
2055,2042,2046,2039,2115,2000,2028,2062
2058,2055,2057,2062,2125,2028,2060,2052
2065,2064,2079,2075,2143,2052,2070,2035
2069,2075,2088,2085,2152,2064,2063,2022
2076,2075,2089,2077,2147,2073,2054,2004
2067,2064,2082,2068,2122,2075,2068,1985
2055,2048,2078,2043,2088,2057,2038,1960
2043,2041,2068,2025,2045,2036,2057,1960
2045,2046,2068,2034,2063,2057,2057,1961
2049,2049,2067,2051,2101,2077,2057,1967
2047,2050,2066,2051,2069,2072,2053,1984
2047,2053,2061,2045,2001,2056,2058,1994
2054,2062,2059,2027,1918,2035,2047,2014
2060,2056,2048,2009,1817,1998,2044,2030
2063,2045,2039,1994,1786,1980,2043,2039
2068,2056,2039,2015,1891,2000,2051,2052
2072,2060,2038,2023,1972,2029,2050,2059
2069,2054,2034,2035,2038,2056,2060,2062
2072,2054,2029,2049,2095,2065,2037,2058
2058,2047,2027,2023,2056,2049,2039,2064
2050,2040,2024,2006,2046,2067,2056,2080
2050,2035,2028,2012,2091,2075,2041,2093
2053,2051,2032,2030,2143,2080,2051,2096
2046,2044,2032,2052,2151,2083,2044,2109
2053,2044,2023,2062,2118,2082,2041,2106
2056,2053,2024,2063,2058,2088,2045,2106
2057,2048,2021,2068,2033,2086,2046,2113
2063,2046,2019,2056,1954,2076,2065,2111
2063,2050,2024,2044,1889,2040,2041,2100
2059,2048,2022,2042,1935,2015,2012,2087
2055,2049,2020,2065,2058,2032,2010,2068
2047,2046,2018,2083,2130,2052,2035,2065
2047,2044,2017,2092,2154,2069,2042,2062
2053,2049,2018,2089,2150,2090,2079,2045
2053,2042,2017,2093,2189,2107,2073,2030
2052,2040,2013,2085,2210,2109,2068,2017
2054,2040,2005,2064,2211,2107,2038,1996
2042,2032,2007,2046,2236,2083,2030,1983
2039,2024,1998,2031,2251,2062,2025,1966
2036,2013,1987,2004,2189,2020,2011,1946
2020,1996,1977,1956,1981,1981,2016,1934
2023,2001,1998,1955,1910,1983,2011,1943
2040,2038,2050,2009,1963,2002,2036,1961
2054,2061,2096,2043,2023,2014,2048,1979
2062,2072,2110,2048,2071,2035,2046,1986
2059,2072,2108,2047,2080,2055,2052,2002
2064,2072,2103,2049,2049,2050,2050,2015
2058,2068,2092,2049,2004,2035,2047,2030
2057,2060,2071,2025,1931,2042,2040,2031
2050,2045,2045,2006,1899,2057,2047,2044
2051,2037,2038,2014,1935,2063,2053,2060
2043,2038,2036,2029,2003,2072,2053,2065
2037,2041,2036,2042,2045,2068,2064,2076
2052,2045,2048,2054,2052,2034,2059,2098
2056,2054,2052,2064,2039,2021,2060,2103
2060,2047,2051,2060,2027,2031,2076,2111
2051,2042,2041,2040,1987,2023,2062,2113
2053,2040,2040,2036,1977,2031,2061,2114
2053,2049,2043,2042,1977,2040,2078,2119
2047,2054,2045,2029,1954,2026,2066,2111
2054,2049,2045,2013,1908,2021,2055,2107
2053,2057,2046,2000,1891,2026,2070,2101
2050,2051,2041,1986,1934,2023,2060,2093
2056,2047,2043,2000,2001,2033,2072,2091
2065,2056,2053,2034,2059,2049,2058,2090
2066,2065,2061,2064,2126,2069,2033,2077
2057,2068,2056,2077,2201,2085,2027,2063
2052,2058,2046,2049,2164,2056,2007,2033
2043,2035,2034,2009,2052,2024,2021,2017
2038,2028,2025,2007,2009,2029,2035,1999
2042,2036,2031,2017,2039,2047,2020,1982
2045,2043,2033,2026,2063,2029,2029,1980
2043,2047,2039,2044,2086,2030,2032,1974
2050,2054,2048,2055,2105,2057,2053,1986
2061,2062,2059,2084,2081,2106,2087,1992
2065,2077,2066,2088,2041,2123,2106,1986
2062,2071,2061,2078,2033,2150,2108,1975
2064,2065,2054,2072,1984,2112,2091,1986
2059,2069,2059,2044,1843,2051,2050,1992
2060,2064,2052,2033,1784,2031,2059,1995
2055,2061,2052,2042,1844,2027,2040,2009
2055,2059,2047,2045,1876,2000,2042,2019
2052,2057,2047,2033,1888,1996,2056,2034
2046,2053,2045,2030,1926,2001,2053,2046
2053,2053,2039,2020,2007,2016,2067,2048
2050,2049,2027,2010,2085,2010,2060,2051
2038,2034,2018,2004,2201,2022,2045,2053
2037,2032,2021,2032,2269,2057,2058,2071
2043,2039,2033,2046,2204,2069,2062,2085
2040,2030,2024,2045,2110,2085,2065,2093
2043,2022,2008,2043,2107,2105,2068,2096
2043,2019,1992,2053,2113,2151,2081,2108
2048,2026,2003,2066,2133,2194,2085,2111
2049,2021,2000,2080,2154,2213,2084,2105
2044,2029,2008,2082,2140,2200,2081,2104
2050,2028,2008,2074,2056,2139,2073,2103
2050,2037,2011,2055,1936,2017,2050,2096
2055,2037,2015,2040,1876,1961,2060,2081
2050,2036,2008,2008,1863,1928,2042,2049
2029,2008,1988,1977,1932,1933,2022,2025
2021,2002,1987,1962,1966,1948,2003,2002
2013,2000,1983,1951,1974,1979,2028,1988
2019,2002,1984,1980,2034,2021,2040,1969
2015,2009,1997,2010,1999,2040,2051,1961
2028,2021,2023,2039,2014,2024,2055,1958
2038,2045,2063,2044,2016,2012,2056,1957
2050,2060,2082,2033,2010,2005,2046,1955
2041,2054,2061,2039,2016,2015,2041,1945
2046,2048,2044,2036,2047,2037,2051,1953
2053,2056,2050,2037,2090,2061,2062,1964
2063,2058,2056,2045,2115,2068,2069,1969
2055,2054,2063,2047,2129,2074,2049,1973
2045,2044,2061,2044,2138,2096,2057,1977
2049,2043,2062,2057,2218,2102,2064,1999
2051,2047,2068,2074,2232,2098,2063,2017
2048,2049,2079,2086,2180,2062,2053,2035
2052,2057,2095,2088,2140,2053,2065,2043
2050,2055,2101,2080,2093,2057,2058,2044
2058,2051,2091,2064,2020,2058,2057,2060
2068,2054,2068,2060,2013,2067,2042,2082
2076,2057,2054,2074,2038,2055,2058,2091
2067,2051,2052,2054,1915,2019,2064,2102
2070,2048,2039,2024,1831,1980,2056,2099
2051,2032,2033,2025,1897,1969,2047,2092
2049,2026,2021,2017,1923,1946,2026,2093
2051,2032,2016,2010,1943,1941,2044,2097
2049,2034,2001,2028,2024,1985,2032,2093
2041,2030,2003,2050,2103,2031,2050,2092
2044,2030,2024,2069,2103,2051,2055,2095
2049,2035,2041,2056,2068,2050,2052,2106
2051,2045,2048,2048,2042,2048,2042,2090
2058,2040,2037,2032,2005,2053,2047,2078
2046,2041,2029,2036,2052,2067,2039,2069
2049,2040,2028,2039,2020,2054,2055,2051
2050,2036,2036,2032,1938,2043,2066,2033
2047,2037,2056,2038,1939,2025,2055,2017
2049,2052,2087,2065,1981,2004,2060,1996
2055,2058,2092,2081,2017,1988,2063,1981
2053,2068,2091,2083,2055,2005,2042,1972
2059,2074,2079,2083,2069,2014,2037,1969
2053,2061,2057,2065,2127,2011,2047,1950
2046,2039,2032,2064,2205,2025,2023,1951
2046,2045,2036,2077,2255,2044,2037,1953
2040,2037,2030,2071,2274,2061,2040,1956
2043,2032,2020,2036,2213,2057,2031,1968
2046,2038,2020,1998,2120,2059,2038,1976
2051,2043,2035,1986,2053,2072,2039,1990
2052,2054,2062,2014,2107,2107,2052,2010
2060,2055,2069,2031,2106,2116,2059,2022
2047,2046,2054,2022,2023,2098,2046,2030
2048,2043,2056,2005,1953,2084,2028,2028
2042,2041,2048,2002,1954,2047,2026,2029
2038,2034,2045,2006,1969,2005,2018,2044
2034,2029,2027,2009,1993,2033,2020,2052
2036,2025,2025,2013,2013,2062,2045,2064
2036,2033,2030,2016,2021,2077,2019,2078
2034,2032,2042,2025,2020,2021,2002,2075
2035,2034,2050,2028,2017,1945,2019,2086
2036,2033,2051,2034,2020,1959,2031,2096
2050,2042,2050,2036,2029,1994,2021,2095
2048,2045,2049,2032,2029,2010,2038,2095
2045,2041,2040,2035,2030,2013,2035,2089
2040,2030,2036,2024,2029,2016,2032,2079
2043,2033,2038,2031,2034,2024,2032,2071
2043,2040,2044,2029,2039,2026,2046,2068
2045,2053,2046,2037,2034,2021,2041,2051
2050,2046,2050,2032,2020,2015,2051,2049
2049,2052,2047,2028,2020,2016,2054,2035
2052,2047,2051,2027,2014,2023,2042,2014
2045,2040,2050,2022,2065,2032,2044,1989
2043,2050,2058,2049,2124,2055,2046,1989
2057,2072,2074,2069,2156,2059,2039,1983
2060,2067,2073,2076,2163,2066,2064,1974
2059,2058,2056,2065,2163,2090,2050,1961
2058,2055,2053,2076,2168,2124,2056,1964
2060,2060,2055,2085,2139,2152,2067,1965
2058,2062,2058,2079,2109,2183,2061,1962
2059,2060,2054,2062,2093,2191,2058,1971
2054,2060,2056,2066,2103,2205,2061,1974
2066,2069,2078,2101,2122,2214,2065,1994
2073,2081,2091,2117,2135,2173,2071,2028
2073,2082,2101,2125,2153,2140,2067,2038
2069,2076,2085,2069,1964,2066,2053,2038
2054,2047,2057,1988,1746,1968,2016,2031
2045,2038,2041,1964,1753,1936,2022,2033
2046,2043,2051,2006,1886,1966,2030,2050
2046,2051,2050,2018,1939,1976,2018,2052
2050,2042,2039,2002,1922,1962,2012,2056
2041,2030,2035,1996,1942,1947,2026,2062
2046,2036,2034,1994,1956,1934,2005,2069
2040,2030,2028,1999,1970,1937,2012,2074
2039,2030,2029,2006,2010,1972,2016,2085
2047,2040,2040,2024,2063,1997,2018,2082
2039,2031,2032,2027,2061,1997,2032,2074
2037,2031,2032,2030,2043,2001,2024,2068
2040,2036,2037,2027,2044,2010,2013,2076
2055,2037,2038,2028,2048,2012,2033,2076
2052,2047,2037,2032,2073,2004,2012,2067
2049,2045,2040,2039,2100,1988,2014,2052
2049,2045,2039,2046,2104,1998,2020,2035
2047,2040,2041,2034,2065,1993,2022,2020
2048,2036,2047,2026,2039,1987,2020,2010
2044,2038,2047,2020,2028,1978,2022,1992
2038,2038,2047,2023,2024,1983,2013,1976
2037,2037,2044,2021,2015,2004,2015,1954
2038,2042,2043,2018,2011,2026,2013,1944
2033,2040,2035,2008,1998,2039,2024,1929
2023,2030,2028,2017,2016,2075,2023,1919
2024,2029,2033,2030,2034,2082,2016,1921
2030,2030,2028,2018,2012,2045,2027,1930
2033,2030,2027,2021,2020,2019,2050,1945
2041,2041,2036,2028,2050,2027,2036,1961
2050,2048,2043,2040,2062,2047,2040,1969
2041,2044,2040,2041,2074,2065,2049,1984
2043,2052,2047,2038,2064,2083,2038,2006
2045,2045,2049,2034,2052,2072,2041,2012
2041,2042,2044,2026,2031,2047,2048,2021
2045,2040,2039,2024,2015,2027,2044,2028
2045,2040,2036,2020,1983,2010,2035,2043
2040,2038,2037,2022,1968,1990,2027,2056
2043,2042,2037,2034,1982,1979,2046,2073
2050,2047,2039,2049,1990,1992,2043,2080
2052,2048,2034,2041,1976,1993,2039,2085
2041,2036,2030,2016,1948,1995,2035,2086
2041,2034,2026,2017,1962,2012,2025,2096
2040,2040,2036,2020,1959,2025,2032,2096
2041,2036,2036,2022,1989,2049,2044,2093
2048,2047,2039,2027,2086,2092,2047,2090
2046,2051,2039,2029,2084,2111,2043,2093
2050,2058,2047,2022,2035,2101,2050,2096
2061,2065,2059,2032,1991,2090,2050,2086
2059,2064,2060,2025,1997,2052,2038,2066
2052,2056,2061,2024,1989,1983,2030,2058
2049,2061,2062,2036,2105,1963,2031,2049
2049,2065,2060,2045,2127,1988,2030,2029
2049,2064,2059,2053,2139,2023,2047,2007
2051,2066,2060,2044,2059,2011,2045,1985
2047,2065,2056,2039,2049,1988,2043,1969
2047,2063,2058,2043,2088,1986,2049,1967
2047,2073,2056,2037,2012,1969,2026,1946
2039,2057,2048,2016,1947,1968,2023,1942
2036,2049,2039,2021,1982,1996,2012,1939
2039,2056,2048,2059,2114,2023,2062,1950
2039,2050,2046,2072,2160,2022,2050,1948
2042,2051,2048,2064,2146,2032,2056,1952
2038,2051,2047,2053,2121,2052,2057,1967
2041,2048,2043,2043,2099,2077,2050,1976
2039,2048,2044,2031,2064,2094,2060,1993
2039,2052,2043,2026,2052,2090,2060,2011
2041,2051,2044,2035,2055,2083,2073,2026
2038,2048,2036,2030,2046,2074,2052,2033
2036,2045,2025,2022,2044,2059,2034,2033
2038,2047,2027,2022,2044,2052,2020,2042
2035,2050,2028,2026,2050,2059,2026,2048
2032,2052,2036,2031,2055,2070,2041,2059
2042,2047,2031,2031,2054,2062,2031,2062
2030,2037,2026,2026,2053,2047,2019,2061
2022,2020,2021,2024,2047,2032,2018,2066
2023,2029,2034,2035,2060,2046,2038,2071
2031,2043,2044,2041,2057,2050,2028,2079
2032,2055,2048,2041,2056,2039,2042,2071
2029,2053,2050,2043,2055,2020,2017,2078
2029,2051,2045,2044,2056,2005,2022,2076
2030,2048,2041,2045,2054,1980,1988,2062
2024,2051,2043,2041,2058,1997,2008,2054
2032,2060,2039,2042,2057,2009,2011,2049
2032,2050,2035,2033,2063,2026,2024,2031
2040,2056,2037,2033,2070,2034,2043,2020
2034,2059,2035,2034,2064,2029,2033,2008
2039,2058,2038,2031,2064,2022,2013,1985
2043,2070,2038,2033,2061,2019,1988,1983
2051,2070,2040,2032,2064,2041,1989,1978
2050,2069,2041,2030,2061,2042,1990,1969
2040,2050,2030,2025,2055,2031,1970,1960
2043,2052,2036,2026,2061,2038,1984,1950
2051,2066,2044,2039,2067,2060,1993,1957
2053,2065,2041,2038,2061,2085,1998,1955
2052,2057,2031,2036,2070,2101,2001,1972
2053,2060,2032,2048,2106,2118,2021,1986
2055,2075,2060,2075,2171,2077,2008,2007
2064,2088,2074,2088,2166,2007,1993,2034
2073,2088,2078,2102,2186,2021,2012,2050
2073,2073,2063,2098,2202,2041,2028,2064
2070,2073,2056,2104,2206,2047,2044,2078
2066,2069,2055,2092,2182,2037,2073,2083
2062,2067,2056,2080,2129,2031,2105,2080
2061,2066,2050,2054,1984,2003,2095,2087
2056,2055,2039,2019,1888,1973,2111,2095
2049,2038,2020,1971,1785,1979,2124,2093
2041,2030,2018,1955,1737,2003,2151,2093
2029,2026,2023,1993,1920,2060,2146,2086
2036,2031,2026,2022,2076,2107,2164,2093
2050,2044,2034,2041,2149,2126,2173,2100
2051,2043,2041,2054,2121,2128,2141,2105
2044,2040,2044,2048,2067,2128,2107,2101
2053,2047,2060,2049,2043,2139,2071,2094
2052,2067,2075,2061,2043,2160,2043,2079
2047,2072,2072,2060,2039,2132,1986,2051
2036,2058,2056,2042,2004,2034,1898,2031
2030,2055,2043,2017,1853,1968,1929,2023
2032,2052,2038,2022,1746,1982,1991,2007
2030,2054,2034,2058,1870,2016,2030,1995
2028,2047,2032,2067,1999,2040,2050,1975
2030,2045,2019,2046,2006,2042,2045,1966
2034,2042,2020,2025,1972,2042,2041,1962
2034,2049,2019,1989,1917,2022,2032,1949
2037,2045,2025,1970,1885,1980,2007,1940
2030,2045,2027,1970,1906,1914,2000,1928
2029,2055,2046,1996,2010,1923,2013,1934
2041,2069,2050,2030,2144,1964,2024,1946
2040,2065,2040,2031,2185,1983,2016,1949
2034,2057,2057,2045,2162,2007,2041,1961
2037,2059,2074,2062,2174,2043,2032,1978
2041,2057,2079,2057,2161,2048,2032,1981
2032,2047,2071,2039,2129,2048,2020,1996
2029,2041,2068,2039,2144,2058,2020,2014
2025,2041,2057,2031,2088,2056,2046,2031
2024,2036,2046,2012,2055,2059,2036,2032
2030,2049,2051,2018,2036,2070,2042,2041
2033,2055,2056,2015,2020,2093,2035,2053
2036,2066,2069,2019,2032,2128,2050,2069
2040,2067,2078,2031,2046,2174,2062,2085
2058,2076,2081,2031,2045,2193,2064,2097
2049,2070,2069,2032,2055,2170,2056,2095
2051,2061,2068,2032,2041,2036,2009,2106
2050,2066,2071,2037,2026,1902,1993,2108
2050,2065,2066,2031,2030,1879,1991,2102
2041,2063,2061,2037,2057,1933,1985,2098
2040,2064,2065,2041,2080,1995,1985,2089
2037,2058,2061,2038,2083,2039,1998,2080
2039,2052,2049,2039,2074,2057,2015,2075
2041,2045,2049,2041,2070,2043,2005,2057
2036,2045,2046,2037,2063,2032,2030,2048
2034,2048,2051,2036,2055,2033,2032,2037
2036,2055,2047,2030,2043,2033,2014,2021
2037,2048,2055,2036,2052,2026,2016,2006
2043,2057,2063,2041,2059,2055,2053,1998
2042,2060,2059,2040,2064,2082,2045,1976
2053,2058,2055,2044,2068,2095,2037,1977
2050,2062,2058,2049,2068,2101,2036,1960
2042,2053,2049,2041,2059,2100,2040,1944
2036,2045,2044,2040,2054,2089,2047,1943
2033,2052,2054,2044,2048,2082,2045,1945
2041,2062,2056,2037,2034,2066,2047,1946
2034,2058,2051,2034,2023,2053,2040,1960
2034,2052,2045,2030,2001,2032,2035,1967
2038,2049,2039,2025,1996,2023,2035,1972
2033,2045,2043,2024,2007,2014,2031,1991
2032,2052,2046,2031,2025,1999,2007,2002
2029,2046,2034,2036,2044,1996,2009,2013
2031,2037,2038,2051,2072,1992,2047,2031
2031,2040,2028,2060,2098,2004,2038,2040
2042,2039,2025,2066,2122,2034,2026,2050
2039,2042,2021,2062,2118,2048,2034,2059
2027,2033,2006,2057,2087,2060,2024,2056
2022,2025,2005,2057,2070,2054,2028,2068
2024,2021,2001,2055,2056,2045,2026,2072
2008,2013,1985,2051,2052,2042,2034,2075
2014,2013,1985,2054,2061,2051,2046,2087
2033,2037,1997,2058,2066,2057,2055,2090
2038,2048,1998,2061,2075,2063,2050,2097
2038,2051,2008,2063,2066,2059,2058,2091
2044,2048,2011,2053,2067,2058,2047,2093
2046,2049,2009,2055,2066,2052,2056,2081
2045,2050,2015,2042,2063,2050,2060,2070
2039,2043,2017,2036,2058,2034,2049,2051
2036,2045,2023,2020,2049,2027,2048,2035
2035,2047,2057,2018,2044,2029,2033,2023
2040,2070,2108,2033,2044,2037,2053,2020
2039,2080,2127,2037,2054,2055,2046,2001
2039,2080,2119,2039,2058,2060,2046,1980
2041,2074,2103,2034,2054,2062,2039,1972
2037,2065,2095,2031,2043,2072,2052,1964
2037,2060,2080,2028,2044,2083,2035,1945
2029,2051,2073,2027,2046,2082,2039,1942
2029,2051,2071,2035,2045,2084,2039,1946
2033,2062,2069,2036,2043,2078,2044,1947
2033,2058,2068,2037,2040,2069,2038,1948
2035,2064,2069,2040,2043,2070,2044,1959
2037,2063,2068,2049,2045,2060,2051,1970
2034,2065,2065,2043,2051,2043,2039,1988
2042,2069,2070,2046,2054,2040,2046,2005
2037,2070,2083,2052,2055,2037,2031,2017
2050,2068,2075,2052,2058,2032,2050,2034
2042,2067,2071,2047,2060,2024,2057,2040
2042,2066,2064,2045,2060,2031,2063,2041
2039,2063,2060,2047,2055,2036,2054,2057
2031,2058,2060,2052,2049,2041,2050,2069
2034,2057,2064,2051,2045,2027,2040,2073
2037,2056,2060,2047,2033,1998,2034,2073
2027,2045,2047,2038,2036,1997,2036,2080
2025,2043,2047,2034,2030,1994,2036,2086
2023,2045,2053,2038,2018,1999,2036,2084
2024,2047,2050,2035,2026,2013,2022,2077
2020,2046,2040,2027,2018,2031,2021,2080
2031,2048,2040,2028,2033,2046,2028,2081
2027,2042,2035,2032,2040,2066,2026,2067
2027,2046,2030,2032,2050,2073,2025,2059
2031,2044,2029,2042,2081,2055,2008,2055
2036,2057,2052,2063,2101,2050,2052,2052
2035,2054,2051,2069,2107,2058,2039,2043
2039,2058,2056,2075,2103,2074,2066,2031
2047,2061,2057,2061,2002,2060,2065,2006
2037,2061,2051,2052,1960,2035,2040,1983
2034,2062,2050,2054,2006,2030,2044,1973
2029,2061,2042,2068,2030,2027,2049,1958
2028,2064,2045,2068,2013,2017,2060,1939
2025,2055,2033,2064,1994,2021,2030,1936
2026,2046,2033,2053,1958,2056,2043,1934
2028,2055,2028,2047,1941,2100,2055,1938
2034,2044,2019,2040,1963,2103,2040,1949
2030,2050,2029,2031,1988,2101,2061,1963
2032,2064,2047,2033,2039,2043,2036,1972
2033,2072,2068,2031,2049,2002,2048,1989
2041,2080,2080,2026,2005,2010,2050,2014
2053,2088,2086,2026,1979,2035,2044,2018
2043,2075,2076,2034,2002,2056,2034,2022
2032,2069,2074,2045,2053,2067,2036,2024
2030,2067,2069,2036,2069,2042,2039,2030
2027,2056,2059,2041,2104,2004,2026,2053
2032,2060,2057,2069,2192,2012,2051,2061
2039,2052,2056,2095,2272,2050,2059,2070
2037,2053,2058,2100,2278,2083,2061,2074
2037,2053,2051,2080,2191,2070,2057,2073
2034,2048,2045,2047,2073,2059,2044,2081
2027,2042,2042,2018,1918,2028,2041,2081
2041,2044,2048,2009,1891,2019,2040,2087
2034,2045,2052,2015,1904,2027,2038,2082
2032,2039,2046,2019,1924,2031,2037,2074
2029,2037,2037,2019,1971,2042,2055,2063
2033,2034,2036,2035,1996,2052,2049,2066
2036,2037,2043,2046,2015,2053,2059,2062
2043,2041,2039,2055,2006,2046,2048,2066
2050,2049,2042,2056,1992,2048,2070,2043
2045,2048,2040,2067,2008,2044,2071,2025
2033,2048,2037,2066,2035,2036,2077,2001
2027,2031,2025,2064,2081,2024,2069,1972
2020,2022,2025,2065,2103,2012,2057,1965
2029,2024,2023,2071,2102,2005,2055,1953
2031,2021,2027,2087,2094,2015,2061,1936
2019,2009,2018,2089,2092,2035,2052,1927
2018,1998,2006,2089,2083,2052,2043,1921
2017,2002,1994,2077,2075,2062,2048,1927
2020,2004,1986,2058,2043,2054,2055,1925
2004,1991,1977,2048,2019,2041,2028,1932
2000,1997,1977,2050,2028,2045,2041,1942
2007,2020,1991,2056,2035,2058,2043,1961
2021,2031,1990,2047,2040,2048,2043,1981
2025,2026,1971,2040,2029,2036,2054,1988
2022,2016,1966,2029,2029,2044,2051,2009
2019,2011,1976,2018,2021,2045,2046,2014
2020,2017,1980,2005,2016,2036,2049,2038
2021,2025,1975,1995,2025,2040,2056,2045
2025,2034,1985,1994,2016,2036,2037,2056
2026,2043,2019,1995,2017,2047,2045,2062
2033,2056,2052,2008,2016,2045,2052,2083
2051,2084,2092,2020,2011,2034,2023,2089
2049,2089,2111,2022,1997,2016,2030,2097
2053,2092,2105,2016,2002,2026,2042,2112
2060,2104,2109,2025,2036,2036,2033,2100
2061,2097,2089,2013,2042,2036,2040,2097
2057,2091,2080,2017,2018,2027,2034,2097
2049,2074,2093,2019,1999,2033,2054,2089
2044,2074,2115,2039,2012,2044,2058,2084
2041,2074,2129,2049,2008,2057,2061,2082
2045,2078,2122,2050,2028,2072,2067,2069
2043,2074,2113,2051,2062,2091,2071,2055
2037,2065,2107,2054,2058,2099,2064,2030
2030,2067,2102,2058,2037,2065,2059,2022
2038,2066,2104,2056,2042,2058,2054,2003
2036,2067,2099,2067,2054,2071,2052,1994
2038,2068,2088,2056,2027,2056,2053,1977
2031,2058,2082,2044,1998,2008,2037,1963
2029,2053,2068,2035,1989,2022,2036,1948
2019,2044,2062,2029,1990,2054,2034,1938
2019,2042,2066,2038,1994,2049,2042,1947
2032,2053,2073,2041,1990,2020,2042,1948
2031,2047,2063,2026,1998,2016,2035,1955
2030,2042,2064,2032,2011,2030,2054,1967
2030,2050,2065,2041,2037,2075,2051,1981
2036,2045,2066,2058,2114,2124,2066,1994
2031,2052,2064,2071,2162,2166,2070,2010
2033,2047,2061,2063,2137,2146,2066,2014
2032,2043,2060,2058,2087,2118,2054,2028
2027,2042,2057,2059,2070,2091,2042,2038
2029,2046,2058,2062,2067,2088,2048,2058
2025,2048,2051,2051,2063,2064,2058,2069
2032,2051,2058,2045,2045,2022,2057,2077
2035,2057,2060,2052,2072,2021,2057,2089
2042,2060,2062,2057,2070,2010,2033,2086
2030,2040,2042,2028,2046,2002,2017,2084
2024,2029,2024,2035,2060,2011,2033,2080
2027,2043,2040,2055,2071,2022,2050,2097
2030,2045,2035,2063,2059,2060,2047,2102
2034,2050,2045,2078,2076,2130,2083,2102
2043,2049,2051,2080,2097,2192,2076,2100
2038,2054,2057,2083,2087,2212,2062,2093
2045,2051,2056,2075,2075,2171,2074,2077
2035,2046,2053,2075,2093,2091,2055,2063
2031,2042,2049,2083,2108,2084,2062,2054
2031,2047,2054,2083,2089,2056,2069,2051
2032,2046,2055,2075,2065,2020,2066,2031
2033,2044,2047,2072,2041,1983,2068,2021
2034,2042,2043,2059,2026,1972,2056,2008
2036,2047,2053,2061,2049,1998,2048,1983
2029,2053,2054,2065,2052,2031,2053,1966
2034,2053,2065,2053,2056,2073,2023,1952
2026,2034,2061,2033,2053,2084,2015,1935
2024,2034,2055,2022,2053,2098,2031,1933
2033,2052,2059,2016,2054,2100,2044,1946
2035,2050,2038,2020,2069,2082,2050,1953
2035,2049,2030,2026,2098,2028,2052,1964
2037,2047,2033,2040,2122,2035,2042,1979
2042,2056,2054,2067,2128,2064,2069,1995
2045,2062,2073,2080,2102,2023,2054,2008
2043,2064,2082,2077,2040,1978,2035,2022
2044,2061,2072,2056,1973,1957,2035,2023
2034,2059,2066,2047,1977,1993,2047,2036
2037,2053,2059,2052,1992,2032,2048,2037
2032,2039,2053,2051,2015,2057,2062,2039
2035,2045,2054,2063,2053,2063,2034,2060
2030,2048,2066,2058,2053,2045,2047,2070
2026,2053,2065,2056,2042,2043,2050,2080
2032,2049,2062,2050,2042,2041,2049,2082
2028,2037,2057,2047,2031,2033,2034,2086
2028,2036,2057,2046,2035,2029,2042,2087
2041,2049,2067,2040,2034,2021,2061,2091
2038,2050,2064,2042,2037,2020,2045,2093
2040,2058,2066,2038,2049,2019,2049,2092
2044,2063,2064,2038,2046,2021,2059,2095
2043,2060,2055,2042,2045,2031,2057,2085
2050,2061,2057,2043,2055,2046,2061,2074
2042,2060,2049,2041,2049,2054,2065,2061
2042,2055,2039,2044,2057,2061,2069,2051
2047,2051,2029,2047,2060,2067,2060,2033
2038,2048,2020,2047,2060,2068,2063,2023
2031,2039,2022,2049,2066,2064,2059,2004
2032,2046,2025,2052,2059,2063,2064,1981
2032,2040,2027,2044,2031,2072,2063,1966
2027,2034,2014,2047,2025,2095,2056,1957
2023,2026,2010,2041,2043,2103,2052,1951
2020,2025,2006,2042,2086,2095,2044,1940
2024,2026,2006,2047,2095,2088,2037,1941
2020,2026,2009,2048,2084,2047,2052,1942
2022,2028,2024,2056,2128,2045,2043,1957
2024,2032,2028,2057,2147,2074,2053,1966
2021,2036,2030,2048,2121,2082,2046,1983
2020,2031,2028,2030,2039,2046,2032,1996
2013,2031,2033,2019,1989,2010,2034,2005
2019,2030,2044,2009,1950,1986,2027,2018
2013,2037,2060,2006,1864,1965,2021,2038
2023,2041,2070,2020,1929,1956,2024,2051
2041,2048,2077,2049,2051,1987,2039,2062
2041,2052,2071,2063,2094,2014,2035,2074
2041,2056,2078,2064,2070,2021,2032,2087
2045,2053,2077,2055,2044,2019,2026,2095
2037,2054,2069,2056,2042,2027,2039,2096
2030,2044,2054,2054,2044,2030,2023,2106
2028,2039,2056,2051,2039,2035,2037,2116
2031,2045,2057,2047,2009,2038,2023,2111
2035,2050,2056,2030,1900,2035,2042,2107
2035,2046,2060,2019,1894,2029,2050,2093
2031,2042,2055,2012,1953,2022,2031,2092
2028,2041,2052,2016,1984,2022,2046,2088
2028,2042,2054,2033,2006,2036,2056,2076
2032,2042,2051,2058,2064,2054,2052,2069
2024,2039,2045,2076,2097,2068,2064,2058
2031,2036,2049,2075,2099,2069,2062,2045
2030,2038,2044,2076,2102,2067,2058,2035
2032,2035,2040,2079,2128,2075,2064,2009
2022,2029,2034,2083,2163,2080,2066,1992
2025,2027,2028,2085,2163,2082,2053,1978
2026,2030,2032,2080,2129,2073,2065,1970
2027,2032,2034,2069,2052,2036,2035,1949
2017,2023,2030,2062,2012,2017,2036,1942
2017,2026,2033,2069,2034,2032,2051,1941
2022,2032,2031,2062,2052,2060,2047,1954
2033,2032,2024,2069,2057,2068,2055,1960
2032,2035,2019,2055,1997,2064,2047,1964
2038,2041,2011,2036,1950,2050,2053,1979
2037,2037,2020,2052,1995,2016,2022,1992
2034,2036,2023,2075,2112,1980,2027,2010
2037,2037,2041,2099,2179,1997,2050,2020
2039,2041,2047,2117,2151,2027,2050,2042
2040,2039,2041,2122,2122,2050,2042,2055
2041,2039,2034,2103,2033,2053,2030,2064
2041,2041,2037,2084,1942,2041,2031,2072
2045,2051,2068,2078,1943,2050,2055,2084
2057,2083,2107,2090,1984,2067,2059,2100
2060,2089,2116,2089,2012,2071,2058,2111
2061,2074,2092,2065,2037,2057,2053,2108
2045,2055,2073,2043,2040,2062,2049,2113
2047,2052,2070,2025,2018,2060,2056,2113
2051,2046,2081,2012,1974,2040,2049,2116
2047,2049,2083,2000,2003,2038,2043,2104
2048,2052,2080,2025,2050,2041,2047,2113
2050,2058,2060,2030,2064,2035,2052,2100
2060,2057,2054,2026,2067,2033,2051,2097
2055,2058,2047,2026,2054,2024,2047,2083
2049,2050,2047,2028,2039,2020,2046,2072
2041,2049,2045,2028,2028,2014,2037,2052
2037,2035,2041,2026,2033,2010,2045,2041
2040,2040,2041,2032,2038,1996,2044,2031
2039,2046,2046,2039,2050,1998,2046,2012
2045,2042,2049,2028,2049,2004,2047,1985
2036,2041,2046,2032,2049,2009,2037,1979
2035,2045,2052,2038,2046,2015,2044,1972
2032,2037,2045,2040,2052,2014,2039,1966
2036,2036,2046,2043,2058,2017,2053,1964
2040,2056,2060,2059,2071,2029,2059,1973
2050,2058,2064,2060,2074,2029,2053,1969
2052,2058,2058,2051,2076,2042,2040,1973
2048,2054,2058,2047,2063,2068,2042,1983
2043,2055,2056,2041,2053,2101,2035,1991
2041,2048,2044,2040,2051,2093,2038,2006
2045,2043,2046,2047,2086,2088,2049,2026
2054,2052,2044,2065,2105,2076,2033,2037
2056,2054,2051,2057,2061,2056,2044,2054
2050,2050,2046,2041,2039,2039,2044,2057
2046,2048,2046,2048,2037,2022,2035,2066
2042,2037,2039,2045,2053,2021,2036,2085
2042,2035,2027,2050,2056,2040,2034,2090
2048,2035,2017,2052,2047,2044,2058,2101
2050,2040,2033,2060,2046,2051,2049,2101
2042,2035,2030,2050,2046,2051,2020,2101
2036,2034,2026,2048,2034,2058,2023,2102
2042,2046,2037,2054,2029,2059,2028,2099
2042,2050,2040,2050,1989,2048,2024,2098
2036,2033,2031,2019,1873,2022,2017,2090
2029,2029,2030,2019,1856,2027,2032,2095
2030,2033,2036,2042,1938,2046,2006,2087
2027,2035,2032,2052,2018,2036,2012,2068
2032,2032,2041,2057,2054,2048,2025,2060
2039,2032,2050,2061,2059,2054,2042,2056
2043,2041,2047,2057,2028,2054,2031,2046
2045,2041,2048,2035,1975,2049,2020,2023
2036,2035,2032,2016,1964,2047,2028,2003
2039,2032,2028,2015,1986,2068,2025,1989
2038,2032,2028,2023,2023,2082,2029,1982
2044,2029,2016,2025,2044,2075,2046,1984
2042,2027,2016,2019,2043,2086,2043,1965
2032,2025,2013,2020,2028,2090,2042,1959
2025,2033,2020,2031,2025,2091,2035,1960
2040,2054,2036,2040,2045,2082,2040,1976
2045,2059,2046,2042,2110,2089,2051,1973
2041,2058,2050,2053,2127,2091,2042,1985
2039,2058,2046,2062,2126,2084,2031,1996
2042,2055,2040,2067,2091,2083,2028,2009
2039,2054,2031,2058,2062,2087,2033,2021
2035,2053,2026,2046,2015,2060,2029,2032
2034,2045,2020,2042,1995,2011,2016,2053
2039,2047,2022,2048,2011,1995,2040,2062
2040,2039,2015,2047,2045,2004,2020,2063
2034,2027,2005,2038,2041,2022,2019,2069
2034,2025,2010,2049,2105,2043,2025,2079
2030,2029,2016,2071,2144,2062,2031,2089
2039,2034,2013,2064,2130,2060,2033,2102
2036,2026,2015,2053,2112,2048,2025,2112
2047,2032,2040,2061,2097,2046,2022,2116
2047,2045,2060,2070,2061,2047,2024,2118
2049,2047,2073,2069,2050,2044,2014,2116
2052,2052,2076,2064,2033,2035,2011,2123
2051,2056,2086,2052,2000,2027,2047,2114
2050,2054,2078,2045,1982,2015,2026,2095
2040,2048,2074,2052,1985,2016,2022,2087
2040,2049,2072,2064,1992,2027,2042,2078
2044,2054,2076,2079,2028,2051,2045,2063
2042,2044,2072,2079,2074,2062,2054,2060
2043,2039,2065,2081,2086,2065,2048,2033
2041,2043,2055,2078,2082,2057,2030,2016
2036,2037,2062,2076,2063,2055,2021,1998
2036,2040,2058,2064,2060,2055,2027,1989
2040,2050,2060,2068,2060,2063,2033,1988
2033,2045,2056,2058,2056,2071,2018,1964
2030,2035,2042,2055,2056,2081,2035,1968
2032,2033,2041,2053,2057,2083,2038,1970
2032,2043,2043,2049,2053,2074,2016,1971
2025,2040,2040,2043,2057,2043,2023,1977
2032,2037,2033,2039,2021,2013,2014,1973
2027,2034,2038,2034,2041,2030,2021,1992
2033,2049,2049,2036,2055,2059,2028,2013
2041,2060,2058,2043,2061,2082,2041,2028
2054,2066,2064,2058,2081,2098,2040,2037
2044,2063,2067,2061,2075,2107,2054,2055
2045,2059,2054,2064,2076,2117,2055,2070
2047,2057,2046,2057,2054,2122,2046,2076
2044,2045,2044,2024,1962,2100,2037,2086
2042,2044,2037,2016,1972,2089,2038,2091
2045,2054,2052,2043,2114,2099,2047,2092
2047,2052,2048,2055,2172,2059,2042,2104
2038,2037,2044,2057,2145,1987,2034,2112
2034,2030,2038,2036,2090,1956,2026,2104
2039,2028,2041,2016,2010,1936,2021,2104
2033,2023,2026,2001,1956,1936,2039,2098
2024,2011,2013,1985,1971,1950,2029,2086
2031,2022,2026,2008,2043,1981,2043,2089
2042,2048,2043,2043,2114,2025,2064,2095
2054,2055,2046,2048,2064,2057,2066,2091
2053,2046,2039,2025,1967,2080,2057,2082
2045,2039,2030,2030,1993,2085,2052,2077
2049,2042,2037,2044,2025,2026,2035,2070
2056,2050,2036,2045,2023,2008,2034,2061
2057,2052,2035,2052,2029,2014,2045,2043
2053,2051,2038,2055,2036,2030,2048,2026
2060,2053,2048,2059,2049,2083,2059,2004
2059,2050,2045,2060,2065,2106,2054,1997
2055,2047,2048,2062,2071,2088,2042,1982
2051,2029,2043,2053,2065,2067,2043,1977
2051,2035,2046,2057,2063,2056,2052,1977
2056,2037,2047,2062,2054,2054,2034,1973
2045,2036,2054,2055,2053,2047,2038,1980
2048,2035,2065,2046,2042,2032,2033,1999
2051,2035,2070,2034,2024,2019,2036,2010
2051,2040,2064,2046,2046,2013,2013,2021
2046,2038,2067,2042,2041,2013,2026,2032
2042,2037,2062,2033,1995,2010,2044,2042
2041,2036,2055,2037,1998,2014,2032,2057
2047,2034,2046,2039,2032,2043,2039,2061
2041,2025,2038,2044,2035,2101,2035,2060
2035,2023,2029,2041,2035,2172,2031,2076
2039,2029,2038,2049,2050,2226,2045,2090
2039,2040,2036,2046,2044,2196,2030,2102
2049,2041,2029,2045,2073,2032,2030,2104
2039,2031,2019,2040,2072,1920,2011,2105
2034,2022,2023,2038,2078,1945,2011,2109
2039,2040,2036,2050,2100,1971,2031,2114
2045,2047,2045,2057,2114,2001,2025,2114
2044,2046,2044,2057,2109,2008,2034,2110
2045,2048,2036,2045,2076,2008,2040,2113
2043,2049,2031,2036,2027,2003,2041,2108
2039,2042,2028,2030,1947,2003,2048,2092
2041,2034,2016,2011,1855,2004,2032,2084
2038,2039,2023,2027,1963,2049,2057,2080
2046,2042,2036,2049,2028,2072,2068,2069
2042,2042,2044,2049,2040,2064,2052,2056
2039,2047,2042,2047,2043,2060,2064,2037
2043,2046,2038,2041,2052,2052,2064,2020
2046,2056,2053,2043,2057,2035,2056,2011
2053,2052,2066,2045,2071,2028,2049,1992
2045,2050,2075,2043,2079,2024,2029,1980
2033,2039,2067,2048,2084,2041,2012,1966
2029,2038,2059,2062,2119,2061,2031,1966
2039,2049,2056,2070,2133,2066,2041,1974
2047,2056,2056,2066,2106,2056,2031,1982
2046,2055,2056,2054,2046,2022,2029,1990
2048,2055,2061,2053,2007,2020,2036,2007
2048,2057,2070,2061,2018,2036,2052,2020
2051,2064,2079,2066,2044,2054,2053,2039
2049,2059,2073,2073,2066,2056,2052,2049
2047,2052,2067,2066,2076,2062,2064,2062
2047,2043,2061,2059,2068,2061,2060,2072
2050,2047,2058,2063,2068,2054,2062,2084
2050,2048,2052,2055,2068,2045,2052,2093
2048,2045,2039,2059,2057,2050,2055,2102
2039,2042,2027,2046,2028,2066,2069,2105
2041,2044,2032,2045,1998,2062,2065,2104
2040,2042,2036,2039,1977,2064,2058,2105
2035,2037,2042,2025,1961,2077,2054,2111
2038,2048,2043,2022,1977,2048,2056,2122
2053,2056,2040,2029,2011,2015,2061,2126
2052,2058,2046,2037,2057,2008,2047,2122
2053,2059,2060,2042,2093,2008,2042,2117
2052,2062,2061,2048,2117,2015,2044,2106
2046,2054,2055,2026,2029,2028,2048,2097
2043,2047,2043,2028,2009,2046,2050,2087
2041,2046,2045,2042,2061,2064,2061,2070
2037,2049,2037,2048,2102,2063,2063,2058
2038,2048,2032,2046,2103,2056,2063,2047
2044,2047,2032,2042,2081,2041,2060,2030
2043,2043,2037,2040,2057,2036,2069,2010
2040,2054,2042,2046,2050,2023,2066,1996
2038,2053,2043,2044,2050,2021,2065,1991
2039,2055,2051,2042,2047,2027,2054,1978
2032,2043,2038,2043,2049,2033,2048,1967
2035,2044,2040,2046,2043,2044,2056,1967
2032,2051,2043,2048,2049,2047,2062,1978
2040,2051,2040,2046,2046,2052,2070,1973
2037,2049,2046,2049,2047,2046,2063,1986
2035,2046,2043,2048,2051,2051,2035,1998
2041,2050,2049,2050,2047,2050,2065,2011
2043,2056,2049,2052,2044,2055,2060,2033
2045,2056,2057,2052,2043,2053,2059,2042
2046,2057,2059,2045,2033,2044,2062,2047
2042,2051,2064,2048,2036,2041,2059,2059
2047,2050,2059,2049,2043,2039,2050,2068
2047,2051,2055,2055,2042,2040,2055,2086
2049,2052,2045,2048,2038,2035,2066,2093
2039,2037,2043,2048,2043,2036,2058,2100
2034,2038,2041,2055,2049,2043,2053,2105
2032,2031,2035,2061,2046,2042,2049,2103
2024,2026,2044,2062,2057,2051,2048,2110
2033,2036,2048,2069,2056,2048,2056,2116
2037,2038,2050,2068,2060,2042,2048,2113
2043,2044,2048,2063,2048,2036,2038,2115
2051,2049,2048,2070,2034,2029,2026,2114
2043,2050,2056,2065,2000,2016,2034,2108
2045,2051,2050,2057,1972,2015,2046,2097
2043,2053,2048,2048,1964,2017,2033,2088
2045,2053,2051,2059,1981,2033,2042,2069
2049,2055,2058,2064,2023,2038,2038,2057
2048,2053,2063,2076,2054,2038,2040,2045
2047,2056,2056,2078,2081,2056,2062,2035
2053,2046,2045,2070,2097,2086,2063,2007
2045,2045,2040,2069,2076,2096,2056,1994
2042,2040,2035,2061,2056,2086,2056,1983
2037,2041,2026,2052,2075,2076,2046,1970
2035,2029,2017,2041,2038,2067,2038,1971
2033,2032,2009,2040,2022,2072,2030,1966
2034,2026,2003,2035,2031,2071,2040,1972
2025,2018,1993,2030,2025,2068,2048,1976
2022,2016,2002,2020,1989,2040,2027,1978
2029,2026,2000,2004,2005,2023,2011,1986
2035,2031,2009,2004,2045,2024,2017,2005
2045,2046,2017,2017,2064,2031,2029,2027
2046,2055,2042,2036,2065,2034,2043,2038
2056,2057,2055,2051,2082,2035,2034,2053
2046,2051,2068,2046,2100,2047,2046,2061
2043,2045,2058,2026,2077,2033,2034,2070
2035,2039,2045,2010,2067,2028,2025,2079
2034,2034,2034,2016,2062,2034,2028,2091
2044,2042,2034,2018,2043,2034,2020,2101
2043,2048,2034,2019,2032,2026,2008,2109
2036,2047,2038,2030,2071,2023,2029,2118
2045,2040,2034,2050,2127,2041,2039,2127
2048,2057,2034,2059,2132,2039,2054,2123
2046,2049,2036,2061,2127,2044,2054,2121
2053,2045,2037,2057,2095,2040,2071,2119
2048,2042,2030,2042,2006,2029,2055,2119
2048,2040,2033,2029,1998,2026,2039,2111
2045,2048,2043,2047,2073,2024,2045,2099
2051,2052,2054,2054,2097,2034,2043,2094
2048,2056,2055,2059,2085,2044,2057,2072
2051,2047,2053,2060,2086,2049,2044,2052
2043,2040,2044,2058,2068,2047,2043,2036
2044,2035,2050,2060,2073,2054,2044,2017
2046,2046,2045,2055,2067,2060,2050,2011
2046,2047,2039,2052,2068,2057,2050,1999
2049,2051,2038,2051,2059,2052,2053,1984
2036,2035,2026,2042,2056,2042,2038,1979
2031,2030,2028,2053,2063,2047,2056,1977
2040,2043,2040,2063,2066,2053,2051,1972
2043,2047,2035,2068,2062,2045,2060,1986
2039,2048,2031,2065,2059,2035,2044,2000
2047,2044,2031,2054,2056,2027,2028,2010
2046,2052,2032,2054,2049,2033,2037,2013
2052,2051,2038,2057,2056,2037,2058,2030
2050,2059,2038,2054,2049,2043,2043,2037
2055,2058,2038,2051,2051,2047,2041,2045
2044,2045,2037,2052,2041,2034,2025,2046
2039,2048,2044,2055,2043,2053,2045,2055
2039,2038,2038,2052,2039,2091,2048,2071
2035,2037,2031,2043,2048,2123,2049,2080
2033,2036,2033,2042,2032,2125,2030,2092
2036,2034,2029,2039,2026,2105,2023,2099
2037,2037,2030,2032,2030,2083,2038,2105
2036,2033,2030,2026,2026,2071,2053,2118
2046,2047,2043,2031,2031,2081,2073,2128
2052,2056,2044,2029,2034,2078,2037,2125
2061,2060,2041,2022,2034,2074,2029,2123
2053,2053,2038,2020,2030,2065,2040,2121
2054,2051,2035,2034,2037,2066,2057,2112
2047,2048,2048,2064,2058,2067,2057,2099
2046,2048,2062,2077,2088,2070,2053,2098
2051,2052,2060,2085,2082,2073,2061,2082
2052,2056,2070,2087,2069,2082,2053,2062
2048,2054,2058,2085,2058,2063,2067,2052
2046,2051,2063,2084,2054,2038,2064,2038
2051,2049,2070,2091,2072,2028,2067,2029
2049,2052,2067,2094,2090,2028,2064,2013
2039,2054,2069,2091,2093,2033,2067,1998
2043,2051,2059,2081,2099,2048,2053,1977
2041,2036,2029,2066,2121,2068,2034,1966
2028,2027,2016,2052,2118,2089,2044,1953
2027,2027,2004,2042,2085,2091,2051,1954
2018,2028,2002,2020,2049,2073,2042,1954
2025,2029,2001,2023,2045,2056,2049,1982
2038,2037,2004,2016,2027,2057,2059,1997
2045,2044,2004,1998,2003,2037,2064,2014
2043,2048,2000,2001,2044,2029,2045,2037
2039,2044,1997,2014,2111,2041,2049,2041
2036,2038,1995,1992,1996,2036,2036,2046
2031,2028,1999,1995,1941,2047,2046,2052
2032,2026,2017,2013,1981,2069,2029,2066
2035,2029,2022,2023,2008,2082,2026,2062
2022,2022,2013,2020,2015,2092,2035,2068
2020,2026,2012,2022,2010,2057,2026,2091
2026,2033,2019,2028,2035,2032,2022,2098
2034,2046,2035,2028,2059,2011,2011,2107
2032,2045,2044,2034,2092,2003,2030,2125
2041,2062,2074,2062,2131,2000,2042,2129
2047,2072,2094,2077,2132,2008,2051,2124
2050,2068,2087,2070,2104,2024,2030,2114
2036,2056,2074,2057,2091,2035,2042,2109
2045,2057,2062,2052,2075,2033,2050,2109
2050,2046,2053,2051,2058,2046,2024,2106
2059,2048,2045,2047,1987,2046,2047,2099
2053,2044,2046,2040,1959,2038,2039,2083
2052,2042,2049,2040,1993,2034,2049,2067
2042,2044,2056,2048,2011,2042,2045,2048
2043,2049,2054,2044,2031,2047,2055,2034
2041,2046,2044,2050,2045,2046,2047,2018
2042,2044,2040,2040,2017,2060,2045,2002
2046,2052,2052,2046,2028,2074,2045,1997
2046,2057,2050,2052,2044,2083,2050,1980
2045,2043,2029,2044,2055,2078,2051,1974
2045,2045,2021,2043,2057,2077,2050,1974
2050,2055,2030,2050,2053,2075,2051,1973
2051,2056,2024,2046,2058,2069,2048,1978
2047,2056,2030,2047,2054,2050,2047,1989
2043,2053,2029,2040,2036,2034,2043,1990
2045,2048,2028,2041,2033,2018,2034,2004
2039,2051,2036,2041,2032,1999,2036,2024
2048,2050,2044,2045,2036,1995,2027,2039
2047,2049,2047,2044,2039,1999,2040,2051
2041,2048,2052,2041,2024,2005,2036,2062
2039,2044,2053,2043,2024,2030,2039,2073
2040,2043,2062,2051,2023,2053,2049,2080
2047,2046,2073,2048,2026,2066,2042,2093
2051,2043,2076,2052,2041,2069,2056,2102
2043,2035,2068,2058,2077,2064,2046,2104
2040,2031,2074,2062,2068,2049,2040,2113
2036,2031,2066,2054,2036,2040,2045,2113
2042,2036,2064,2048,2025,2038,2050,2110
2036,2032,2052,2038,2028,2036,2041,2116
2038,2029,2050,2036,2023,2026,2058,2110
2038,2032,2044,2030,2022,2024,2053,2109
2032,2035,2042,2041,2037,2016,2037,2101
2045,2048,2050,2049,2053,2024,2050,2093
2054,2058,2055,2057,2048,2038,2049,2090
2062,2062,2058,2068,2051,2051,2056,2078
2057,2058,2057,2074,2067,2061,2054,2056
2051,2056,2051,2066,2081,2072,2068,2044
2055,2056,2049,2069,2091,2097,2056,2015
2050,2055,2048,2079,2115,2114,2070,2009
2047,2051,2047,2072,2132,2117,2073,2000
2053,2046,2047,2077,2133,2114,2053,1986
2051,2033,2038,2066,2130,2109,2072,1976
2047,2033,2034,2066,2107,2099,2079,1972
2050,2041,2039,2067,2081,2087,2077,1975
2043,2037,2034,2055,2045,2068,2062,1977
2037,2029,2024,2045,2004,2055,2053,1978
2035,2033,2026,2036,1967,2035,2046,1987
2028,2028,2021,2010,1918,2004,2045,2001
2026,2042,2032,2022,1934,1978,2053,2020
2030,2044,2043,2044,1960,1981,2047,2040
2040,2055,2052,2060,1987,1976,2055,2047
2039,2048,2044,2055,2015,1982,2042,2061
2042,2047,2036,2043,2070,2005,2040,2070
2042,2057,2042,2042,2080,2012,2044,2086
2052,2064,2049,2035,2016,1995,2049,2097
2053,2069,2049,2032,1982,2010,2037,2103
2051,2072,2056,2047,2012,2036,2050,2112
2047,2061,2055,2054,2009,2040,2050,2113
2051,2062,2055,2051,2005,2038,2047,2119
2055,2075,2068,2049,2022,2036,2067,2126
2053,2070,2061,2049,2043,2022,2039,2124
2054,2066,2065,2064,2098,2026,2031,2125
2049,2072,2070,2076,2103,2051,2050,2119
2051,2078,2075,2072,2100,2074,2054,2111
2056,2077,2071,2070,2082,2079,2057,2098
2057,2072,2061,2063,2076,2073,2049,2089
2048,2066,2063,2060,2078,2072,2045,2071
2052,2067,2066,2064,2078,2073,2057,2068
2050,2064,2062,2060,2079,2075,2067,2057
2050,2064,2058,2064,2072,2072,2069,2037
2054,2061,2054,2056,2065,2062,2057,2021
2051,2054,2051,2053,2055,2055,2040,2000
2040,2053,2049,2048,2038,2047,2045,1991
2043,2047,2042,2045,2024,2037,2042,1981
2040,2045,2046,2048,2033,2038,2042,1972
2039,2051,2053,2056,2036,2042,2052,1981
2038,2059,2055,2052,2033,2049,2049,1978
2039,2056,2060,2047,2026,2050,2061,1990
2041,2053,2052,2047,2028,2057,2030,1998
2042,2053,2056,2063,2030,2060,2026,2011
2043,2058,2061,2068,2034,2056,2045,2017
2044,2053,2064,2071,2051,2050,2044,2035
2043,2053,2068,2075,2050,2058,2052,2052
2049,2052,2066,2076,2056,2073,2039,2064
2050,2052,2056,2078,2054,2086,2040,2067
2051,2047,2054,2077,2052,2101,2053,2084
2042,2046,2051,2076,2052,2103,2044,2089
2042,2047,2050,2064,2044,2107,2043,2104
2042,2051,2044,2065,2043,2048,2035,2106
2046,2053,2047,2060,2038,1971,2022,2109
2038,2045,2037,2052,2031,1972,2016,2110
2037,2044,2042,2051,2041,2010,2043,2119
2042,2052,2048,2043,2044,2036,2043,2123
2043,2056,2047,2043,2052,2047,2053,2122
2048,2056,2050,2039,2053,2062,2054,2125
2036,2058,2051,2032,2049,2070,2050,2122
2049,2057,2049,2026,2039,2080,2065,2118
2050,2065,2045,2023,2028,2111,2068,2096
