CH1,CH2,CH3,CH4,CH5,CH6,CH7,CH8
2054,2054,2059,2043,2004,2045,2038,2034
2060,2061,2074,2046,1995,2022,2038,2044
2064,2065,2067,2052,2009,2030,2040,2044
2066,2061,2063,2056,2059,2053,2033,2031
2053,2056,2061,2065,2073,2051,2008,2023
2049,2056,2065,2074,2071,2040,2013,2017
2051,2047,2055,2066,2056,2037,2021,2011
2050,2049,2058,2071,2058,2058,2038,2019
2056,2064,2068,2085,2084,2090,2039,2024
2064,2061,2067,2091,2069,2098,2040,2027
2069,2056,2066,2069,2022,2088,2048,2023
2057,2049,2052,2050,1983,2083,2048,2023
2056,2043,2041,2052,2039,2065,2040,2027
2047,2048,2039,2065,2073,2033,2016,2032
2051,2045,2037,2070,2093,2035,2032,2040
2054,2048,2038,2070,2097,2039,2049,2044
2053,2047,2034,2069,2104,2044,2019,2057
2055,2044,2028,2056,2083,2045,2026,2069
2053,2041,2022,2044,2080,2038,2036,2078
2052,2041,2023,2036,2064,2037,2048,2083
2053,2042,2025,2038,2059,2053,2054,2089
2052,2034,2020,2026,2034,2063,2060,2097
2049,2033,2013,2018,1995,2061,2061,2084
2040,2029,2016,2021,1990,2062,2052,2074
2040,2037,2027,2026,1982,2035,2040,2081
2032,2035,2025,2010,1949,1995,2048,2084
2041,2039,2027,2002,1937,1981,2056,2081
2047,2045,2035,2007,1908,1999,2049,2065
2040,2042,2042,2008,1933,2029,2043,2046
2035,2040,2041,2024,2028,2070,2036,2042
2035,2045,2055,2055,2141,2111,2049,2031
2044,2038,2051,2073,2169,2132,2056,2032
2048,2040,2047,2076,2173,2138,2058,2027
2042,2033,2044,2070,2144,2093,2041,2017
2040,2029,2028,2056,2105,2045,2041,2008
2038,2027,2028,2052,2087,2023,2036,2010
2039,2032,2033,2054,2072,2019,2022,2008
2047,2038,2036,2034,2066,2025,2015,2007
2050,2040,2033,2024,2059,2026,2028,2002
2045,2037,2033,2024,2056,2033,2031,1998
2042,2039,2039,2028,2061,2033,2027,2008
2049,2048,2033,2021,2056,2031,1995,2005
2041,2047,2025,2015,2050,2028,2012,2002
2044,2045,2024,2015,2046,2027,2019,2012
2045,2044,2028,2020,2050,2034,2024,2013
2045,2041,2029,2028,2056,2034,2025,2027
2055,2041,2030,2033,2065,2038,2016,2033
2050,2038,2034,2043,2068,2039,2040,2044
2056,2040,2044,2058,2071,2038,2042,2057
2052,2033,2047,2063,2073,2038,2040,2064
2048,2033,2040,2062,2077,2041,2045,2073
2044,2032,2034,2060,2067,2034,2044,2082
2044,2038,2036,2060,2065,2035,2029,2090
2049,2040,2041,2060,2062,2030,2038,2087
2046,2041,2037,2060,2051,2030,2020,2074
2033,2023,2022,2046,2060,2039,2026,2073
2031,2026,2018,2049,2110,2050,2028,2078
2034,2039,2028,2055,2126,2067,2028,2080
2037,2039,2022,2059,2132,2072,2051,2080
2046,2040,2010,2053,2134,2076,2056,2084
2055,2047,2012,2059,2138,2080,2037,2083
2054,2050,2003,2042,2114,2068,2059,2076
2059,2054,2001,2027,2086,2054,2053,2060
2061,2052,2000,2025,2063,2055,2052,2054
2054,2055,2002,2025,2003,2061,2044,2041
2056,2053,2013,2010,1945,2052,2058,2032
2045,2042,2013,2012,1970,2050,2045,2024
2040,2044,2008,2026,1995,2039,2046,2018
2052,2040,2010,2031,2013,2041,2044,2009
2031,2036,2008,2031,2016,2038,2038,2007
2040,2040,2012,2037,2019,2036,2024,2007
2036,2032,2002,2017,2014,2047,2038,2008
2035,2034,1993,2000,1981,2050,2031,2004
2042,2045,2005,2004,1978,2050,2035,2015
2047,2054,2030,2013,1986,2051,2037,2014
2052,2056,2056,2020,1980,2044,2036,2019
2049,2055,2066,2032,2005,2027,2042,2027
2055,2063,2082,2058,2046,2015,2033,2040
2057,2058,2072,2066,2080,2039,2056,2047
2063,2059,2075,2065,2097,2060,2053,2048
2063,2058,2083,2071,2102,2072,2058,2054
2059,2060,2094,2068,2090,2073,2052,2057
2053,2062,2092,2068,2076,2064,2050,2058
2047,2061,2089,2066,2072,2063,2038,2067
2050,2062,2094,2065,2050,2057,2057,2080
2045,2057,2088,2063,2037,2059,2054,2085
2046,2057,2076,2056,2031,2058,2048,2091
2055,2051,2061,2052,2026,2055,2050,2095
2045,2042,2054,2049,2026,2050,2061,2090
2040,2042,2057,2051,2030,2056,2040,2095
2049,2046,2048,2046,2021,2054,2058,2088
2042,2043,2042,2048,2018,2057,2052,2079
2046,2036,2038,2040,2023,2052,2053,2074
2040,2042,2039,2041,2020,2058,2054,2068
2037,2037,2036,2038,2044,2052,2044,2058
2041,2036,2035,2048,2070,2046,2049,2046
2047,2043,2045,2062,2079,2048,2042,2045
2043,2047,2053,2058,2059,2042,2030,2035
2042,2050,2053,2056,2053,2035,2033,2029
2048,2045,2054,2056,2050,2037,2051,2033
2046,2048,2061,2051,2043,2033,2045,2027
2046,2037,2051,2044,2035,2030,2037,2023
2040,2038,2048,2035,2029,2034,2046,2020
2048,2045,2062,2040,2036,2040,2038,2011
2045,2046,2074,2038,2046,2045,2024,2010
2044,2056,2081,2053,2049,2044,2032,2016
2050,2068,2096,2055,2064,2055,2043,2016
2059,2075,2091,2059,2064,2058,2046,2029
2058,2076,2075,2057,2070,2064,2040,2041
2056,2074,2062,2052,2063,2059,2056,2033
2059,2066,2052,2034,2051,2054,2048,2032
2058,2060,2041,2029,2046,2044,2050,2042
2060,2068,2042,2027,2052,2033,2044,2047
2052,2062,2033,2013,2044,2028,2046,2052
2047,2051,2020,2004,2039,2030,2040,2052
2051,2048,2023,2008,2043,2043,2041,2061
2048,2046,2034,2023,2059,2048,2040,2071
2048,2048,2041,2027,2058,2051,2050,2080
2048,2045,2039,2036,2060,2058,2062,2085
2052,2044,2033,2043,2052,2057,2044,2093
2049,2039,2030,2038,2040,2049,2041,2090
2043,2036,2022,2033,2042,2048,2024,2088
2036,2040,2022,2035,2052,2047,2033,2082
2040,2039,2023,2042,2047,2051,2041,2082
2042,2039,2020,2045,2038,2054,2040,2086
2048,2043,2036,2054,2037,2054,2042,2079
2051,2038,2049,2066,2039,2044,2037,2080
2055,2039,2057,2064,2035,2035,2034,2063
2051,2040,2059,2060,2028,2033,2027,2051
2049,2040,2059,2071,2072,2056,2023,2041
2044,2040,2062,2070,2090,2056,2031,2033
2045,2042,2068,2069,2063,2049,2032,2027
2046,2038,2059,2061,2043,2058,2043,2021
2045,2036,2049,2050,2037,2079,2040,2023
2049,2040,2035,2052,2045,2084,2048,2016
2048,2037,2032,2048,2032,2085,2040,2015
2049,2042,2026,2033,2013,2080,2027,2004
2037,2033,2014,2027,2023,2039,2049,2016
2046,2035,2017,2025,2027,1997,2068,2012
2053,2045,2028,2022,2006,2010,2055,2008
2053,2042,2037,2013,2017,2028,2050,2013
2057,2046,2052,2014,2031,2041,2056,2017
2054,2047,2066,2016,2043,2046,2055,2026
2062,2053,2066,2021,2072,2049,2047,2032
2058,2048,2071,2037,2083,2051,2051,2034
2053,2053,2085,2042,2080,2041,2057,2032
2053,2061,2086,2049,2082,2047,2054,2044
2052,2057,2085,2059,2105,2054,2063,2055
2053,2057,2075,2057,2109,2056,2032,2062
2056,2056,2066,2055,2099,2051,2037,2068
2052,2051,2062,2052,2078,2045,2025,2069
2053,2047,2066,2053,2072,2043,2026,2074
2050,2053,2070,2054,2080,2044,2044,2084
2051,2052,2077,2056,2083,2039,2049,2091
2042,2050,2080,2060,2085,2045,2039,2088
2053,2056,2076,2066,2085,2047,2038,2090
2051,2060,2071,2066,2067,2042,2045,2088
2051,2060,2066,2052,2029,2038,2036,2081
2047,2058,2060,2050,2019,2038,2042,2073
2046,2055,2059,2050,2036,2039,2039,2064
2049,2052,2052,2053,2032,2032,2015,2051
2044,2051,2051,2049,2031,2032,2044,2045
2051,2051,2056,2048,2033,2029,2034,2045
2047,2058,2060,2050,2029,2027,2024,2034
2049,2059,2050,2044,2027,2033,2024,2022
2047,2051,2049,2043,2037,2047,2033,2027
2051,2056,2054,2059,2073,2063,2039,2029
2060,2060,2060,2069,2076,2072,2045,2021
2070,2073,2070,2076,2084,2069,2065,2020
2061,2068,2064,2078,2080,2070,2052,2013
2053,2047,2054,2060,2067,2058,2037,2008
2039,2042,2050,2054,2054,2053,2049,2010
2048,2054,2056,2058,2057,2062,2051,2020
2056,2050,2052,2053,2062,2059,2047,2019
2053,2045,2043,2060,2064,2058,2056,2020
2052,2047,2047,2060,2064,2055,2055,2018
2048,2046,2048,2070,2061,2061,2049,2025
2052,2046,2045,2068,2060,2051,2046,2030
2049,2047,2047,2071,2061,2052,2042,2032
2051,2046,2049,2077,2068,2057,2049,2043
2047,2042,2046,2075,2061,2056,2042,2052
2050,2034,2048,2061,2053,2060,2049,2055
2046,2032,2039,2056,2048,2058,2047,2064
2046,2032,2033,2049,2055,2060,2033,2070
2048,2036,2032,2047,2047,2056,2051,2074
2038,2029,2029,2050,2046,2060,2039,2076
2041,2025,2017,2034,2043,2060,2034,2074
2031,2020,2023,2033,2041,2055,2037,2078
2037,2033,2031,2039,2043,2058,2046,2078
2049,2040,2042,2038,2038,2057,2041,2074
2050,2041,2039,2031,2035,2054,2046,2077
2052,2038,2032,2022,2038,2051,2046,2070
2049,2045,2037,2016,2022,2042,2050,2066
2049,2041,2035,2015,2024,2043,2048,2060
2057,2043,2038,2025,2033,2046,2047,2052
2054,2047,2040,2026,2038,2045,2048,2046
2056,2050,2038,2027,2038,2046,2049,2038
2054,2044,2037,2034,2038,2049,2031,2035
2054,2047,2034,2031,2040,2051,2052,2034
2050,2050,2037,2032,2040,2050,2055,2033
2056,2049,2030,2039,2036,2049,2055,2026
2055,2045,2038,2040,2046,2049,2049,2014
2048,2042,2036,2046,2046,2043,2029,2012
2042,2034,2025,2042,2033,2030,2008,2011
2033,2027,2028,2038,2034,2027,2023,2008
2046,2042,2040,2043,2039,2040,2037,2014
2053,2046,2050,2048,2040,2040,2037,2018
2052,2046,2053,2050,2050,2045,2046,2022
2050,2058,2057,2053,2047,2055,2061,2030
2059,2056,2055,2051,2043,2060,2060,2040
2060,2061,2063,2052,2050,2064,2058,2044
2067,2062,2056,2047,2059,2063,2053,2046
2059,2063,2058,2048,2065,2064,2063,2048
2057,2055,2061,2051,2069,2073,2067,2052
2058,2054,2071,2066,2071,2071,2072,2057
2045,2048,2068,2063,2065,2068,2070,2060
2043,2039,2068,2059,2061,2062,2035,2069
2037,2043,2072,2060,2053,2049,2040,2080
2032,2043,2063,2062,2051,2056,2048,2083
2040,2048,2066,2062,2046,2046,2054,2088
2035,2044,2065,2056,2034,2030,2051,2088
2035,2048,2065,2051,2022,2026,2064,2090
2042,2050,2064,2053,2036,2037,2072,2088
2047,2054,2054,2047,2056,2036,2060,2083
2045,2046,2054,2046,2067,2037,2056,2080
2042,2050,2046,2041,2055,2029,2070,2070
2045,2050,2044,2040,2044,2032,2056,2062
2050,2051,2043,2038,2046,2042,2058,2050
2043,2044,2037,2030,2041,2053,2047,2035
2043,2042,2032,2019,2030,2049,2054,2031
2046,2045,2033,2018,2035,2060,2065,2033
2048,2046,2026,2013,2037,2056,2058,2028
2045,2044,2025,2019,2039,2039,2063,2031
2054,2056,2034,2037,2058,2023,2062,2027
2059,2053,2034,2040,2064,2030,2060,2020
2055,2051,2035,2039,2060,2036,2049,2009
2044,2040,2018,2028,2042,2027,2035,2001
2046,2033,2018,2029,2046,2020,2028,2002
2043,2042,2018,2032,2048,2029,2041,2004
2044,2040,2015,2036,2046,2033,2044,2003
2047,2034,2009,2033,2051,2035,2038,2007
2044,2035,2001,2029,2053,2034,2030,2010
2036,2034,2000,2022,2053,2027,2048,2016
2042,2031,1997,2028,2050,2028,2052,2021
2045,2039,2009,2037,2054,2042,2063,2031
2045,2043,2011,2040,2051,2054,2056,2035
2045,2039,2007,2049,2061,2066,2057,2044
2042,2028,2000,2056,2090,2070,2059,2052
2042,2026,1996,2050,2088,2062,2054,2064
2049,2028,2001,2050,2076,2058,2044,2066
2041,2023,2005,2049,2067,2049,2055,2068
2034,2022,2004,2042,2055,2042,2055,2064
2031,2014,2008,2031,2040,2031,2051,2070
2025,2022,2031,2031,2036,2026,2009,2075
2033,2038,2074,2042,2043,2030,2027,2078
2041,2041,2093,2052,2043,2036,2042,2076
2045,2047,2100,2044,2046,2040,2051,2072
2039,2048,2096,2045,2031,2034,2032,2072
2042,2048,2098,2045,2029,2026,2036,2061
2048,2048,2094,2040,2022,2022,2036,2055
2047,2054,2099,2039,2032,2032,2049,2058
2057,2072,2108,2056,2041,2039,2062,2053
2060,2092,2122,2058,2054,2045,2052,2044
2067,2090,2114,2055,2057,2042,2052,2041
2068,2081,2108,2056,2048,2034,2046,2033
2065,2077,2098,2049,2050,2031,2051,2027
2056,2075,2091,2041,2041,2029,2041,2020
2058,2067,2082,2038,2035,2031,2024,2019
2056,2063,2076,2040,2036,2022,2032,2012
2055,2055,2074,2040,2037,2019,2029,2000
2056,2051,2075,2046,2048,2028,2036,2009
2059,2060,2074,2051,2055,2041,2042,2008
2057,2063,2077,2050,2063,2048,2045,2016
2062,2058,2082,2050,2065,2050,2050,2021
2064,2059,2079,2047,2060,2049,2051,2028
2064,2052,2074,2044,2060,2050,2045,2044
2066,2056,2072,2051,2063,2055,2067,2044
2062,2062,2075,2051,2058,2058,2049,2043
2061,2061,2074,2053,2060,2066,2054,2054
2061,2058,2068,2051,2058,2076,2058,2057
2063,2056,2066,2053,2056,2077,2056,2070
2059,2051,2064,2047,2057,2077,2041,2082
2057,2053,2063,2044,2053,2033,2051,2082
2054,2053,2066,2044,2047,2008,2041,2079
2046,2052,2064,2037,2046,2020,2060,2075
2046,2037,2050,2031,2041,2034,2019,2082
2047,2035,2053,2039,2048,2046,2054,2086
2054,2046,2057,2042,2047,2052,2046,2088
2049,2044,2054,2037,2053,2048,2040,2075
2045,2047,2053,2033,2046,2047,2029,2075
2045,2045,2047,2030,2039,2051,2043,2064
2045,2037,2050,2037,2040,2046,2044,2054
2043,2044,2052,2035,2045,2048,2036,2047
2049,2054,2056,2045,2047,2050,2051,2040
2047,2055,2060,2042,2040,2049,2037,2039
2050,2051,2053,2037,2037,2042,2030,2033
2054,2052,2044,2038,2036,2045,2058,2026
2053,2053,2047,2038,2042,2050,2049,2020
2048,2053,2047,2040,2045,2055,2053,2017
2056,2051,2049,2038,2047,2058,2056,2019
2058,2050,2045,2044,2049,2051,2051,2017
2051,2039,2038,2032,2037,2046,2047,2010
2052,2039,2035,2031,2037,2053,2030,2013
2057,2045,2039,2036,2051,2059,2040,2015
2058,2037,2036,2036,2054,2060,2045,2016
2050,2036,2028,2038,2056,2057,2042,2019
2058,2035,2034,2038,2059,2060,2059,2023
2053,2040,2032,2029,2054,2058,2051,2026
2054,2040,2031,2031,2051,2058,2045,2032
2058,2046,2037,2031,2052,2053,2049,2038
2053,2045,2038,2032,2055,2064,2064,2038
2050,2047,2038,2030,2055,2056,2050,2046
2054,2042,2032,2026,2048,2056,2052,2063
2050,2040,2033,2023,2046,2053,2052,2067
2047,2038,2031,2024,2043,2050,2057,2072
2048,2038,2036,2027,2046,2044,2046,2078
2050,2046,2040,2031,2044,2041,2049,2082
2051,2045,2038,2022,2031,2031,2032,2084
2042,2038,2036,2026,2032,2034,2026,2082
2043,2042,2045,2040,2030,2041,2028,2082
2047,2047,2045,2038,2036,2042,2035,2072
2052,2048,2045,2034,2040,2040,2043,2067
2053,2045,2048,2036,2036,2044,2047,2065
2054,2046,2054,2038,2036,2047,2045,2061
2052,2047,2058,2040,2035,2050,2052,2056
2050,2049,2068,2042,2042,2053,2041,2051
2060,2061,2072,2042,2041,2053,2066,2043
2065,2057,2068,2039,2047,2053,2066,2038
2060,2059,2066,2042,2040,2048,2047,2034
2060,2061,2064,2038,2040,2049,2068,2030
2060,2064,2071,2042,2044,2053,2041,2025
2060,2061,2072,2039,2049,2056,2047,2018
2064,2059,2073,2042,2049,2058,2039,2012
2058,2052,2059,2034,2045,2050,2025,2017
2052,2048,2053,2033,2044,2047,2020,2014
2060,2055,2058,2036,2056,2053,2044,2019
2060,2051,2060,2038,2048,2057,2037,2023
2057,2052,2055,2051,2052,2058,2065,2028
2060,2050,2053,2042,2055,2060,2066,2024
2061,2052,2052,2043,2052,2062,2057,2032
2059,2055,2054,2047,2050,2063,2063,2038
2065,2052,2048,2043,2048,2066,2051,2044
2061,2049,2049,2045,2051,2065,2052,2049
2057,2049,2043,2044,2053,2061,2034,2064
2054,2045,2037,2044,2050,2062,2055,2069
2051,2047,2032,2044,2049,2067,2059,2074
2052,2041,2032,2044,2050,2059,2046,2075
2055,2041,2035,2053,2055,2064,2067,2083
2055,2041,2040,2052,2048,2065,2062,2085
2054,2042,2043,2055,2049,2065,2027,2077
2046,2034,2036,2054,2050,2066,2032,2078
2044,2033,2033,2060,2049,2068,2031,2086
2052,2037,2040,2058,2038,2057,2032,2080
2051,2042,2048,2060,2040,2044,2027,2067
2054,2049,2053,2064,2036,2036,2013,2065
2052,2042,2057,2059,2037,2037,2051,2066
2049,2045,2055,2061,2035,2031,2052,2052
2047,2042,2048,2062,2037,2037,2049,2047
2044,2047,2053,2063,2038,2042,2055,2042
2053,2047,2054,2058,2041,2050,2041,2038
2044,2045,2045,2059,2041,2044,2034,2029
2046,2040,2037,2044,2036,2031,2055,2027
2047,2039,2030,2028,2030,2034,2056,2024
2042,2035,2032,2024,2030,2043,2050,2025
2046,2037,2039,2032,2034,2052,2061,2016
2051,2043,2051,2037,2041,2055,2061,2013
2048,2042,2053,2032,2040,2044,2051,2016
2043,2041,2046,2028,2033,2043,2063,2011
2041,2047,2053,2033,2052,2051,2052,2009
2050,2056,2053,2034,2048,2048,2073,2016
2046,2051,2055,2040,2043,2046,2071,2021
2053,2051,2049,2048,2039,2046,2076,2023
2054,2050,2046,2047,2044,2046,2064,2030
2047,2050,2047,2054,2041,2051,2077,2034
2043,2047,2051,2060,2047,2050,2072,2043
2043,2050,2057,2065,2061,2063,2074,2046
2047,2050,2060,2062,2060,2063,2070,2055
2045,2051,2058,2064,2059,2063,2076,2068
2052,2055,2058,2062,2061,2066,2067,2074
2047,2048,2055,2056,2058,2062,2079,2080
2052,2056,2056,2056,2058,2060,2065,2086
2055,2053,2050,2053,2051,2057,2069,2091
2045,2046,2048,2044,2049,2048,2058,2087
2038,2033,2037,2032,2045,2033,2037,2084
2031,2031,2041,2028,2044,2028,2048,2087
2043,2037,2047,2033,2035,2041,2038,2080
2040,2043,2054,2032,2037,2039,2048,2077
2036,2042,2048,2036,2037,2045,2070,2079
2040,2042,2044,2040,2041,2049,2073,2080
2039,2046,2044,2042,2046,2050,2062,2067
2042,2045,2048,2041,2047,2055,2067,2061
2040,2044,2044,2040,2041,2053,2068,2051
2050,2041,2042,2040,2036,2054,2060,2046
2041,2039,2040,2040,2034,2049,2064,2036
2042,2044,2042,2042,2039,2047,2031,2030
2041,2041,2047,2041,2038,2052,2042,2033
2038,2041,2039,2039,2039,2054,2061,2027
2040,2042,2041,2040,2033,2048,2054,2019
2048,2039,2053,2049,2036,2039,2043,2024
2042,2035,2040,2041,2034,2039,2037,2019
2043,2041,2036,2046,2036,2036,2032,2024
2049,2052,2052,2067,2053,2051,2040,2028
2051,2045,2057,2065,2057,2056,2046,2022
2050,2043,2042,2067,2055,2060,2063,2027
2042,2037,2041,2068,2058,2067,2056,2031
2040,2047,2039,2072,2065,2062,2053,2038
2051,2047,2040,2085,2063,2060,2041,2049
2055,2054,2044,2077,2059,2055,2044,2053
2053,2045,2041,2075,2058,2050,2058,2056
2057,2048,2038,2079,2057,2043,2064,2062
2054,2042,2035,2075,2055,2045,2058,2062
2052,2042,2034,2077,2055,2043,2051,2071
2049,2040,2032,2072,2056,2047,2062,2081
2048,2042,2032,2060,2052,2052,2062,2092
2046,2042,2034,2055,2051,2053,2048,2091
2045,2042,2034,2040,2042,2046,2036,2092
2032,2037,2028,2036,2041,2052,2028,2090
2026,2032,2036,2032,2043,2059,2037,2088
2036,2037,2043,2024,2040,2051,2062,2088
2037,2044,2054,2018,2036,2051,2045,2086
2042,2045,2066,2018,2029,2048,2049,2074
2045,2053,2076,2030,2036,2048,2044,2069
2055,2054,2082,2033,2031,2041,2055,2064
2055,2057,2073,2033,2034,2037,2053,2063
2055,2052,2063,2042,2038,2048,2044,2058
2059,2055,2055,2039,2032,2051,2045,2050
2045,2051,2048,2041,2038,2060,2057,2052
2049,2046,2049,2044,2049,2070,2056,2049
2048,2044,2050,2045,2046,2072,2062,2044
2045,2047,2054,2044,2040,2065,2046,2032
2046,2045,2045,2037,2024,2059,2054,2031
2047,2045,2049,2037,2032,2061,2059,2023
2042,2040,2048,2038,2033,2063,2058,2032
2041,2038,2049,2042,2036,2068,2065,2032
2051,2051,2057,2044,2046,2072,2067,2036
2051,2043,2051,2040,2042,2072,2076,2031
2049,2043,2045,2045,2044,2064,2071,2032
2048,2047,2049,2048,2042,2065,2078,2034
2051,2048,2052,2045,2053,2068,2061,2034
2046,2042,2055,2049,2052,2069,2051,2037
2045,2044,2050,2049,2053,2080,2049,2038
2042,2043,2051,2053,2060,2084,2062,2042
2041,2041,2052,2051,2068,2075,2050,2053
2038,2042,2049,2056,2061,2054,2031,2074
2036,2048,2052,2059,2063,2047,2021,2076
2040,2048,2053,2055,2060,2046,2041,2089
2044,2047,2052,2053,2062,2048,2048,2092
2037,2043,2047,2055,2059,2044,2019,2093
2034,2037,2042,2045,2055,2027,2036,2098
2035,2035,2045,2047,2051,2027,2045,2100
2042,2049,2051,2051,2050,2027,2042,2101
2052,2052,2053,2055,2053,2026,2043,2092
2044,2057,2057,2054,2053,2021,2029,2086
2050,2051,2057,2056,2049,2013,2029,2078
2041,2054,2055,2051,2040,2015,2027,2064
2047,2052,2050,2052,2034,2023,2021,2053
2043,2046,2042,2051,2032,2022,2028,2043
2034,2047,2044,2044,2026,2027,2033,2032
2036,2045,2046,2049,2025,2037,2038,2029
2038,2052,2041,2050,2030,2051,2045,2029
2037,2048,2043,2047,2029,2062,2054,2034
2041,2051,2041,2046,2042,2072,2058,2030
2049,2047,2051,2047,2043,2066,2045,2026
2046,2052,2050,2054,2051,2065,2046,2024
2038,2042,2041,2049,2045,2058,2061,2020
2039,2040,2037,2047,2041,2056,2048,2022
2047,2046,2041,2057,2050,2061,2036,2024
2048,2048,2042,2054,2065,2062,2018,2029
2054,2044,2038,2046,2049,2048,2033,2029
2050,2040,2041,2050,2045,2036,2041,2034
2046,2045,2039,2048,2045,2034,2058,2037
2047,2046,2047,2052,2047,2039,2063,2045
2049,2045,2045,2051,2042,2043,2052,2047
2040,2045,2051,2045,2044,2045,2039,2052
2042,2039,2049,2051,2041,2042,2061,2062
2041,2038,2047,2048,2041,2038,2057,2069
2041,2040,2049,2050,2043,2043,2055,2084
2039,2039,2047,2050,2036,2042,2056,2089
2039,2037,2046,2052,2028,2029,2048,2088
2038,2042,2044,2052,2032,2026,2052,2088
2034,2034,2046,2048,2030,2031,2054,2094
2036,2033,2039,2056,2038,2039,2039,2093
2041,2042,2048,2057,2047,2046,2053,2084
2044,2045,2053,2052,2045,2062,2049,2085
2041,2043,2048,2055,2043,2084,2039,2078
2044,2048,2047,2052,2043,2090,2032,2068
2038,2054,2049,2045,2037,2089,2024,2062
2037,2051,2046,2041,2033,2101,2042,2052
2039,2048,2045,2041,2035,2115,2043,2047
2043,2049,2048,2045,2038,2119,2064,2046
2050,2055,2050,2051,2052,2096,2064,2041
2050,2051,2053,2056,2058,2094,2068,2037
2050,2050,2045,2055,2053,2109,2064,2036
2046,2052,2052,2048,2055,2079,2044,2031
2039,2042,2043,2050,2045,2021,2043,2025
2043,2044,2048,2045,2042,2014,2060,2026
2044,2047,2049,2047,2046,2031,2042,2016
2030,2036,2040,2041,2049,2049,2029,2015
2036,2038,2043,2044,2053,2065,2060,2018
2039,2046,2049,2046,2048,2067,2041,2020
2049,2046,2048,2044,2042,2063,2044,2024
2042,2047,2048,2038,2029,2056,2049,2030
2046,2051,2043,2030,2013,2040,2030,2030
2052,2047,2048,2043,2007,2028,2043,2043
2046,2047,2047,2042,2006,2031,2059,2040
2043,2044,2041,2029,2006,2036,2051,2039
2041,2041,2040,2037,2031,2043,2050,2045
2045,2047,2048,2054,2064,2046,2062,2055
2043,2045,2048,2056,2064,2049,2064,2064
2050,2040,2044,2051,2066,2040,2058,2081
2043,2046,2038,2050,2067,2051,2057,2082
2039,2041,2044,2044,2068,2061,2065,2084
2046,2042,2045,2051,2066,2058,2051,2086
2034,2040,2042,2044,2052,2052,2035,2090
2034,2039,2035,2045,2053,2062,2064,2097
2041,2046,2048,2050,2061,2064,2043,2090
2037,2040,2039,2047,2047,2066,2046,2085
2036,2042,2040,2050,2046,2057,2062,2078
2033,2048,2044,2045,2043,2052,2056,2069
2036,2038,2038,2045,2039,2054,2033,2060
2040,2040,2041,2043,2041,2050,2043,2056
2036,2038,2044,2044,2041,2056,2046,2054
2030,2034,2039,2043,2047,2060,2050,2045
2029,2038,2037,2043,2049,2064,2054,2043
2035,2036,2038,2042,2044,2058,2071,2040
2041,2033,2040,2039,2041,2055,2062,2031
2034,2030,2034,2035,2040,2050,2031,2031
2037,2034,2037,2032,2037,2040,2044,2025
2035,2034,2036,2033,2042,2050,2043,2021
2038,2030,2029,2035,2043,2042,2053,2012
2031,2032,2028,2038,2038,2043,2060,2014
2037,2036,2037,2047,2049,2055,2053,2021
2039,2038,2043,2041,2047,2053,2075,2015
2040,2040,2040,2047,2052,2056,2064,2024
2041,2040,2039,2043,2048,2063,2065,2034
2046,2047,2040,2050,2054,2064,2074,2039
2047,2047,2041,2052,2058,2064,2070,2038
2040,2044,2039,2041,2031,2060,2061,2037
2038,2039,2034,2028,1990,2044,2052,2041
2034,2039,2032,2022,1963,2035,2040,2049
2028,2034,2032,2017,1946,2013,2037,2052
2023,2036,2033,2007,1940,1995,2030,2058
2026,2037,2042,2021,1985,2012,2049,2079
2035,2051,2052,2046,2046,2053,2063,2094
2046,2057,2064,2058,2080,2075,2075,2102
2043,2056,2057,2052,2078,2088,2068,2104
2046,2057,2060,2044,2064,2086,2039,2100
2053,2067,2056,2043,2044,2040,2037,2104
2056,2061,2064,2056,2044,2021,2056,2105
2054,2064,2071,2059,2040,2027,2067,2093
2052,2064,2060,2051,2028,2031,2065,2088
2051,2062,2063,2048,2020,2031,2053,2070
2051,2060,2056,2045,2041,2033,2054,2070
2047,2057,2053,2044,2059,2044,2042,2056
2042,2053,2050,2048,2072,2046,2042,2048
2043,2053,2046,2049,2081,2045,2065,2043
2042,2050,2052,2051,2081,2052,2044,2039
2044,2054,2049,2056,2076,2048,2048,2036
2047,2049,2052,2054,2063,2055,2061,2034
2053,2052,2048,2052,2061,2047,2043,2022
2049,2050,2053,2053,2063,2038,2034,2023
2041,2043,2043,2048,2048,2024,2024,2019
2043,2048,2046,2044,2051,2028,2043,2023
2044,2056,2052,2050,2060,2043,2058,2027
2042,2053,2052,2057,2062,2056,2067,2029
2043,2052,2048,2044,2061,2062,2059,2017
2037,2049,2046,2044,2054,2058,2059,2026
2036,2051,2044,2041,2048,2058,2059,2025
2037,2050,2045,2041,2057,2066,2068,2039
2041,2050,2038,2044,2058,2068,2053,2047
2043,2046,2042,2047,2064,2067,2040,2048
2037,2044,2038,2043,2065,2057,2035,2061
2037,2052,2043,2045,2065,2057,2055,2062
2041,2048,2042,2047,2066,2058,2042,2073
2042,2045,2041,2037,2050,2051,2042,2078
2042,2040,2033,2034,2049,2050,2054,2084
2041,2041,2035,2031,2049,2052,2050,2087
2032,2028,2023,2028,2039,2056,2067,2086
2028,2020,2022,2028,2042,2062,2068,2088
2039,2029,2020,2030,2046,2067,2066,2084
2031,2025,2021,2031,2046,2073,2078,2083
2037,2027,2026,2029,2048,2080,2078,2084
2037,2032,2022,2031,2040,2083,2068,2073
2031,2031,2024,2032,2048,2072,2058,2060
2030,2027,2023,2027,2041,2069,2044,2058
2034,2034,2019,2042,2044,2070,2060,2051
2033,2039,2024,2038,2046,2060,2058,2042
2032,2035,2026,2037,2050,2059,2050,2032
2031,2040,2035,2048,2049,2053,2037,2026
2030,2045,2041,2045,2052,2049,2047,2023
2032,2052,2045,2050,2055,2043,2034,2020
2038,2056,2049,2052,2055,2032,2032,2022
2039,2044,2046,2046,2045,2032,2028,2014
2042,2035,2044,2040,2040,2032,2041,2020
2035,2045,2057,2050,2036,2040,2028,2023
2045,2058,2076,2054,2055,2053,2037,2020
2045,2058,2077,2055,2058,2053,2027,2029
2053,2058,2075,2054,2060,2054,2039,2031
2048,2055,2065,2056,2061,2056,2045,2041
2053,2056,2055,2050,2060,2044,2048,2039
2051,2051,2055,2047,2048,2040,2032,2044
2045,2049,2059,2042,2041,2026,2048,2042
2041,2053,2059,2039,2042,2037,2065,2052
2046,2054,2059,2046,2052,2048,2077,2062
2044,2051,2061,2043,2048,2057,2070,2068
2041,2046,2054,2043,2062,2058,2065,2079
2040,2048,2057,2044,2059,2061,2060,2076
2042,2050,2056,2041,2057,2056,2039,2081
2041,2044,2051,2035,2048,2051,2044,2088
2036,2042,2050,2029,2037,2044,2030,2092
2036,2048,2057,2035,2038,2052,2023,2100
2043,2058,2071,2041,2039,2055,2044,2089
2044,2059,2067,2039,2043,2059,2069,2092
2046,2056,2053,2039,2042,2062,2063,2087
2044,2052,2047,2041,2044,2072,2045,2083
2048,2058,2050,2044,2045,2073,2033,2076
2045,2052,2049,2046,2046,2067,2045,2066
2049,2048,2050,2038,2047,2070,2037,2052
2040,2049,2048,2037,2047,2058,2054,2043
2035,2041,2044,2042,2042,2060,2047,2039
2034,2039,2042,2039,2048,2063,2072,2036
2036,2042,2040,2047,2045,2051,2075,2028
2037,2041,2045,2042,2045,2036,2055,2027
2035,2038,2042,2041,2043,2034,2052,2012
2031,2034,2044,2046,2047,2034,2043,2015
2029,2029,2034,2037,2040,2021,2030,2011
2027,2028,2030,2034,2039,2021,2032,2006
2030,2036,2031,2038,2056,2045,2051,2017
2030,2035,2035,2042,2052,2049,2039,2025
2034,2041,2037,2041,2049,2053,2052,2016
2031,2039,2040,2039,2042,2059,2052,2013
2036,2043,2044,2041,2029,2039,2048,2017
2035,2042,2034,2032,2022,2040,2034,2007
2036,2042,2037,2033,2052,2058,2038,2028
2037,2042,2042,2045,2066,2098,2064,2041
2038,2044,2041,2040,2059,2106,2077,2059
2044,2040,2041,2034,2047,2079,2066,2061
2044,2036,2040,2033,2054,2069,2067,2069
2044,2041,2041,2041,2058,2076,2058,2079
2045,2040,2040,2040,2054,2071,2065,2079
2047,2043,2041,2049,2051,2064,2073,2080
2052,2048,2036,2049,2047,2056,2054,2072
2041,2045,2035,2047,2038,2036,2031,2069
2046,2051,2043,2058,2057,2005,2041,2075
2049,2057,2034,2052,2039,1985,2014,2068
2044,2049,2028,2040,2001,1994,2018,2061
2035,2044,2032,2038,2000,2001,2015,2056
2030,2040,2028,2036,2008,2021,2024,2044
2028,2037,2026,2033,2065,2053,2030,2045
2045,2051,2038,2052,2126,2084,2032,2045
2049,2058,2048,2056,2133,2097,2048,2041
2048,2058,2042,2035,2082,2079,2047,2033
2047,2050,2040,2018,2068,2080,2052,2031
2048,2049,2049,2033,2092,2087,2072,2036
2052,2052,2056,2038,2088,2069,2072,2035
2055,2064,2066,2037,2023,2050,2066,2023
2053,2058,2066,2024,1949,2057,2057,2004
2042,2050,2059,2001,1815,2027,2030,1982
2031,2034,2037,1965,1787,2028,2014,1972
2032,2040,2041,1991,1873,2058,2043,1996
2050,2060,2060,2033,1990,2032,2082,2033
2064,2068,2074,2077,2098,2031,2083,2046
2066,2072,2074,2081,2129,2084,2102,2046
2069,2067,2062,2069,2089,2083,2107,2040
2068,2058,2057,2047,2038,2036,2069,2037
2057,2054,2051,2044,2032,2019,2076,2040
2052,2055,2056,2039,2041,2028,2082,2048
2055,2057,2048,2032,2041,2038,2072,2053
2048,2057,2054,2044,2061,2050,2088,2062
2051,2054,2061,2052,2088,2061,2085,2074
2046,2054,2059,2053,2084,2070,2088,2082
2048,2057,2058,2055,2065,2062,2090,2083
2049,2054,2052,2049,2041,2062,2076,2087
2044,2054,2048,2041,2029,2049,2053,2080
2023,2039,2041,2032,2031,2056,2060,2076
2028,2036,2034,2024,2028,2056,2060,2082
2037,2037,2035,2027,2035,2064,2077,2078
2038,2039,2036,2030,2079,2080,2068,2077
2036,2035,2027,2035,2079,2098,2058,2072
2039,2030,2025,2024,2062,2094,2078,2061
2041,2033,2016,2027,2050,2085,2075,2055
2037,2040,2017,2029,2029,2068,2069,2043
2040,2038,2016,2018,2007,2067,2054,2021
2029,2031,2010,2011,1981,2026,2042,2015
2028,2028,2017,2021,1991,1998,2043,2011
2033,2026,2013,2027,1985,1997,2032,2008
2036,2020,2012,2030,1978,2000,2062,2010
2043,2023,2020,2039,1997,2011,2062,2020
2040,2032,2029,2049,2030,2038,2071,2026
2045,2035,2028,2058,2036,2052,2082,2014
2034,2021,2011,2057,2040,2053,2058,2006
2033,2018,2006,2055,2046,2045,2028,2005
2037,2017,2000,2049,2023,2018,2055,2006
2037,2018,2008,2050,2019,2036,2062,2017
2042,2024,2010,2050,2052,2040,2065,2017
2043,2026,2012,2046,2066,2048,2068,2025
2039,2024,2022,2057,2084,2052,2079,2037
2055,2040,2050,2074,2088,2060,2089,2048
2062,2052,2060,2077,2069,2046,2080,2048
2054,2050,2060,2068,2065,2034,2078,2040
2051,2048,2058,2056,2069,2020,2064,2046
2046,2060,2068,2064,2063,2043,2061,2058
2051,2060,2071,2069,2059,2060,2068,2074
2053,2055,2075,2060,2052,2066,2082,2080
2055,2058,2076,2057,2055,2073,2085,2082
2049,2059,2076,2062,2083,2060,2067,2078
2044,2056,2075,2061,2098,2046,2067,2076
2046,2056,2078,2058,2097,2041,2068,2087
2055,2062,2077,2055,2105,2039,2064,2094
2061,2069,2085,2061,2121,2033,2070,2083
2066,2070,2078,2065,2116,2027,2058,2077
2067,2064,2069,2074,2113,2032,2069,2082
2068,2076,2068,2082,2108,2046,2077,2074
2069,2072,2049,2075,2091,2051,2068,2057
2055,2060,2034,2060,2073,2055,2083,2039
2050,2059,2034,2047,2059,2059,2086,2037
2055,2056,2038,2046,2055,2043,2073,2029
2050,2060,2038,2047,2048,2042,2068,2025
2043,2058,2046,2043,2052,2033,2058,2022
2040,2060,2041,2037,2051,2032,2051,2013
2041,2062,2041,2027,1988,2041,2047,2011
2047,2066,2045,2031,1971,2033,2046,2003
2048,2056,2046,2026,1986,2035,2059,2003
2042,2060,2053,2030,2009,2053,2057,2020
2053,2061,2052,2030,2021,2058,2051,2022
2051,2058,2052,2029,2038,2067,2068,2020
2049,2063,2061,2018,2043,2068,2076,2027
2045,2061,2067,2012,2028,2064,2088,2029
2046,2050,2065,2014,2042,2059,2075,2043
2049,2046,2061,2013,2065,2069,2079,2053
2046,2053,2059,2016,2043,2064,2079,2063
2053,2054,2061,2018,2049,2062,2092,2069
2050,2062,2058,2031,2080,2066,2094,2066
2056,2063,2063,2043,2088,2068,2089,2078
2055,2067,2060,2050,2085,2068,2065,2079
2052,2062,2058,2053,2063,2062,2043,2076
2053,2058,2049,2042,2035,2052,2032,2074
2055,2050,2042,2043,2040,2035,2021,2062
2038,2034,2031,2023,1996,2022,2004,2070
2033,2031,2026,2016,1953,2015,2040,2080
2035,2027,2025,2003,1915,2011,2037,2088
2030,2028,2021,2018,2026,2052,2057,2079
2038,2031,2025,2043,2107,2082,2052,2081
2041,2036,2022,2056,2134,2093,2070,2075
2034,2033,2019,2049,2139,2086,2055,2062
2039,2031,2018,2046,2144,2080,2039,2054
2043,2036,2022,2050,2142,2074,2027,2046
2044,2043,2031,2055,2133,2083,2045,2043
2052,2051,2038,2049,2152,2090,2044,2037
2053,2054,2037,2048,2149,2100,2048,2033
2060,2060,2041,2060,2099,2079,2042,2032
2057,2059,2049,2044,1954,2019,2030,2019
2057,2047,2036,2028,1947,1983,2020,2015
2052,2045,2045,2033,2049,2014,2019,2003
2047,2032,2033,2038,2056,2036,2031,2001
2044,2029,2045,2043,2015,2051,2027,2013
2052,2039,2064,2058,2000,2058,2052,2012
2056,2049,2080,2066,2025,2078,2044,2023
2060,2059,2095,2080,2049,2088,2052,2030
2059,2059,2087,2073,2054,2085,2060,2035
2060,2058,2088,2073,2052,2078,2060,2040
2055,2053,2082,2070,2056,2073,2045,2042
2052,2050,2077,2065,2068,2067,2049,2044
2050,2054,2072,2066,2112,2059,2049,2046
2047,2057,2062,2057,2116,2043,2045,2049
2049,2046,2052,2036,2066,2015,2023,2059
2047,2041,2047,2029,2018,2002,2023,2061
2037,2046,2042,2036,2005,2009,2015,2064
2037,2054,2052,2041,2002,2008,2024,2067
2036,2073,2065,2042,2009,2005,2033,2074
2034,2070,2061,2029,1986,1993,2033,2077
2037,2067,2062,2032,1960,1998,2037,2083
2049,2076,2067,2040,1920,2011,2051,2088
2051,2068,2060,2027,1907,2012,2046,2078
2044,2062,2051,2032,1948,2032,2040,2072
2049,2065,2063,2056,2001,2049,2052,2077
2059,2077,2069,2078,2044,2060,2039,2071
2067,2076,2070,2083,2058,2067,2050,2068
2075,2074,2065,2084,2050,2061,2046,2063
2072,2068,2052,2064,2044,2045,2031,2050
2062,2040,2033,2046,2066,2043,2030,2035
2044,2012,2015,2017,2035,2032,2013,2016
2032,1998,2003,1980,2008,2024,1997,2000
2032,1996,2007,1990,2106,2039,1997,1994
2041,2008,2014,2010,2067,2042,2024,1995
2043,2022,2027,2021,2051,2040,2008,1978
2026,2010,2015,2022,2011,2012,2020,1979
2027,2013,2011,2012,1956,2002,2024,1990
2038,2031,2023,2030,2016,2034,2039,2000
2041,2038,2036,2034,2055,2066,2057,1999
2042,2039,2038,2038,2077,2081,2027,2004
2046,2034,2032,2034,2095,2076,2035,2006
2052,2035,2030,2056,2144,2082,2044,2022
2051,2036,2034,2068,2185,2088,2077,2040
2055,2044,2035,2070,2171,2064,2061,2035
2052,2039,2030,2058,2148,2051,2051,2050
2044,2033,2022,2053,2119,2062,2054,2063
2042,2032,2014,2046,2096,2058,2036,2073
2057,2037,2023,2041,2069,2045,2047,2089
2062,2042,2030,2031,2038,2027,2039,2087
2055,2046,2038,2045,2060,2051,2063,2093
2060,2057,2036,2040,2057,2067,2058,2072
2050,2027,2015,2006,2019,2102,2043,2068
2031,2010,2004,2000,1994,2122,2059,2073
2036,2018,2015,2005,1921,2104,2078,2077
2057,2035,2023,2015,1939,2082,2063,2090
2065,2047,2035,2054,2030,2060,2056,2085
2067,2046,2056,2080,2070,2024,2050,2081
2069,2047,2066,2093,2106,2008,2064,2084
2069,2038,2054,2081,2107,2028,2070,2069
2060,2036,2052,2091,2124,2057,2066,2050
2043,2024,2050,2098,2161,2087,2054,2025
2035,2019,2046,2093,2166,2090,2048,2015
2037,2027,2044,2089,2130,2074,2044,2012
2032,2030,2046,2075,2087,2013,2024,2007
2030,2026,2036,2072,2051,1974,2022,2011
2030,2031,2026,2083,2049,1983,2021,2018
2041,2042,2030,2093,2021,2024,2039,2023
2043,2041,2027,2086,2019,2069,2038,2018
2048,2035,2018,2091,2061,2128,2058,2018
2045,2042,2026,2096,2062,2148,2072,2026
2052,2048,2037,2082,2005,2124,2071,2026
2062,2050,2052,2064,2013,2088,2049,2023
2062,2062,2070,2063,2092,2062,2062,2027
2063,2065,2077,2053,2127,2063,2058,2039
2064,2063,2070,2029,2080,2051,2039,2029
2054,2046,2055,1988,1988,2019,2026,2034
2036,2036,2050,1977,1971,1992,2019,2024
2023,2031,2049,1971,1982,2000,2033,2030
2022,2020,2055,2000,2032,2037,2050,2067
2053,2013,2063,2039,2080,2068,2076,2092
2078,2006,2049,2025,2069,2045,2046,2088
2057,1992,2026,2010,2019,2019,2026,2068
2024,1986,2011,2003,1996,2006,2012,2058
2021,1988,2008,2004,2027,2008,1993,2036
2041,2017,2037,2034,2075,2034,2019,2066
2079,2045,2066,2056,2108,2049,2053,2111
2112,2062,2076,2064,2121,2058,2059,2107
2092,2065,2073,2070,2169,2068,2047,2071
2043,2064,2067,2069,2194,2074,2064,2069
2033,2084,2078,2084,2224,2096,2064,2081
2047,2096,2082,2096,2242,2096,2060,2076
2053,2102,2080,2089,2198,2079,2073,2061
2060,2090,2073,2064,2045,2064,2084,2055
2061,2075,2058,2045,1999,2069,2088,2054
2066,2064,2060,2056,2023,2065,2089,2047
2070,2064,2067,2064,2022,2034,2084,2036
2075,2064,2063,2051,1986,2001,2064,2016
2062,2048,2036,2026,1942,1970,2039,1997
2029,2027,2011,2019,1948,1972,2021,1992
2023,2024,2008,2028,1985,1990,2018,1983
2017,2033,2027,2043,1993,2022,2032,1996
2035,2051,2043,2038,1912,2034,2054,2008
2055,2063,2059,2053,1936,2044,2067,2010
2062,2067,2058,2066,2003,2056,2075,2020
2070,2070,2056,2069,2015,2056,2077,2023
2057,2073,2035,2048,2007,2054,2071,2027
2059,2059,2028,2031,2004,2049,2071,2028
2056,2059,2024,2037,2012,2051,2083,2036
2065,2047,2030,2053,2028,2060,2089,2059
2072,2035,2028,2046,2030,2049,2090,2073
2078,2016,2011,2044,2065,2042,2060,2072
2075,1996,1996,2055,2146,2045,2042,2080
2081,1981,1980,2062,2202,2047,2046,2086
2077,1980,1984,2072,2188,2054,2032,2097
2103,2015,2018,2084,2142,2058,2050,2082
2082,2015,2012,2084,2109,2047,2035,2073
2074,2003,2009,2079,2072,2037,2034,2061
2048,1998,2008,2074,2058,2043,2026,2021
2005,2010,2024,2088,2069,2074,2030,2022
2020,2049,2045,2095,2075,2090,2033,2033
2003,2044,2041,2078,2030,2078,2007,2042
2012,2036,2028,2049,1973,2057,2018,2051
2019,2038,2028,2032,1996,2024,2049,2059
2036,2063,2061,2034,2048,1988,2061,2058
2037,2075,2091,2037,2072,2014,2058,2066
2068,2092,2117,2046,2089,2044,2066,2077
2081,2087,2119,2037,2060,2059,2062,2069
2084,2075,2097,2011,2036,2063,2066,2052
2076,2054,2057,1990,2025,2043,2057,2034
2036,2016,2001,1956,1982,1986,1987,1997
1991,1969,1975,1942,1952,1963,1978,1978
2005,1988,2004,1979,2022,1993,1990,1988
2043,2009,2037,1997,2043,2024,2047,1998
2068,2024,2064,2022,2037,2060,2076,2018
2083,2060,2094,2051,2068,2077,2102,2052
2078,2026,2063,2038,2093,2073,2092,2071
2083,1998,2019,2008,2091,2052,2058,2058
2070,1987,1976,1982,2053,2011,2003,2036
2023,1970,1970,1975,2031,1997,2004,2009
2034,2001,2022,1997,1971,2012,2021,1994
2082,2064,2097,2023,1891,2046,2062,2026
2116,2088,2105,2042,1951,2056,2059,2066
2091,2045,2052,2025,2013,2053,2063,2092
2059,2004,2013,2011,2069,2054,2060,2107
2039,1995,2003,2009,2037,2050,2061,2114
2038,2019,2032,2032,2047,2055,2082,2141
2084,2052,2051,2053,2077,2067,2078,2131
2101,2075,2065,2056,2043,2035,2020,2095
2096,2070,2048,2038,2005,1987,1991,2060
2058,2035,2040,2025,1968,1971,2002,2016
2057,2027,2039,1996,1946,1982,2005,2010
2048,2007,2025,2007,1972,2021,2052,2043
2060,2030,2037,2019,1970,2052,2062,2080
2052,2054,2040,2026,2020,2101,2061,2089
2045,2066,2044,2044,2123,2150,2066,2076
2052,2077,2046,2063,2210,2162,2062,2046
2069,2072,2053,2072,2233,2171,2064,2050
2101,2072,2054,2074,2220,2141,2087,2064
2099,2021,2031,2054,2189,2101,2088,2043
2051,1968,2011,2045,2172,2056,2075,2027
2014,1960,2004,2036,2117,2039,2072,2034
2052,2005,2023,2023,2065,2005,2056,2037
2019,1986,1974,1997,2027,1983,2021,2011
1995,1956,1957,1994,1995,2017,2026,2010
2025,1983,1996,2014,1935,2064,2039,1997
2055,2016,2026,2041,1944,2100,2058,2022
2086,2044,2049,2053,1921,2101,2066,2014
2055,2035,2028,2024,1891,2088,2054,2029
2042,2028,1997,1985,1841,2061,2049,2051
2055,2032,1995,1992,1965,2016,2032,2044
2047,2053,2010,2044,2104,2020,2025,2036
2059,2063,2034,2084,2157,2058,2034,2024
2056,2065,2026,2112,2152,2083,2036,2055
2067,2033,2017,2095,2120,2071,2044,2063
2063,2024,2032,2078,1996,2070,2063,2084
2085,2070,2084,2108,1967,2115,2099,2101
2125,2072,2113,2144,1993,2147,2113,2104
2137,2021,2089,2132,1980,2134,2113,2115
2137,1977,2052,2104,1980,2078,2076,2157
2152,1961,2009,2079,2001,2008,2039,2117
2084,1938,1986,2068,2078,1964,1987,2022
2044,1977,2026,2054,2108,1949,1969,1996
2080,2033,2061,2030,2016,1973,1967,1960
2082,2009,2064,2028,2017,2043,2022,2030
2116,2006,2068,2041,2010,2082,2058,2101
2115,2038,2084,2066,2038,2082,2101,2140
2108,2063,2079,2085,2105,2083,2108,2140
2074,2089,2065,2050,2069,2068,2090,2124
1997,2086,2030,1994,1997,2045,2069,2105
2003,2081,2016,1977,2001,2033,2061,2098
2038,2075,2036,1995,2052,2055,2076,2082
2058,2050,2044,2005,2110,2097,2097,2058
2090,1992,2024,1996,2107,2128,2119,2042
2125,1959,1987,1983,2043,2113,2093,2033
2082,1917,1924,1970,2043,2043,2001,1975
2041,1925,1934,1982,2089,2001,1992,1967
2100,2013,2018,2045,2212,2012,2018,1971
2103,2035,2047,2087,2297,2047,2036,1998
2127,2067,2080,2146,2331,2074,2039,2016
2103,2098,2118,2176,2320,2089,2040,1984
2013,2093,2097,2184,2278,2106,2037,1971
1979,2101,2086,2227,2242,2120,2042,1986
1995,2117,2084,2220,2035,2054,2034,2029
2056,2141,2110,2222,1939,2022,2029,2032
2069,2156,2129,2211,1758,1984,2023,2016
2041,2156,2144,2197,1644,1997,2029,2009
2002,2136,2144,2256,1899,2045,2039,2017
1988,2130,2131,2275,1916,2027,2030,2026
1979,2096,2120,2272,1925,2029,2058,2073
2008,2048,2089,2266,2031,2084,2087,2103
2039,2008,2066,2240,2094,2106,2097,2127
2081,2000,2046,2188,2060,2107,2085,2138
2097,1990,2004,2122,2034,2084,2056,2141
2105,1972,1975,2080,2097,2028,2049,2127
2116,1958,1986,2077,2226,2038,2049,2105
2086,1968,2006,2063,2296,2057,2022,2030
2004,1959,2002,2007,2236,2051,1996,1970
1932,1972,2014,1976,2087,2050,2004,1971
1906,2001,2000,1992,1985,2033,2013,1986
1900,2025,1991,2023,2042,2039,2005,2013
1913,2065,1991,2047,2162,2042,2026,2020
1949,2091,2000,2048,2174,2056,2025,2035
2011,2132,2010,2033,2082,2096,2013,2040
2022,2134,2020,2029,1874,2124,2024,2027
2041,2134,2018,1966,1700,2156,2008,2011
2045,2132,2017,1917,1779,2157,2006,1982
2022,2111,2007,1829,1778,2063,1998,1977
2014,2103,2016,1782,1854,1981,1990,2010
2033,2102,2035,1840,2037,1946,2022,2027
2046,2097,2052,1925,2135,1930,2005,2007
2026,2068,2031,1933,2091,1946,1984,1980
2008,2053,2008,1903,2045,1988,2014,1980
2026,2065,2021,1919,1979,2056,2032,1982
2028,2079,2064,1957,1918,2067,2043,1991
2032,2096,2108,2013,2041,2031,2044,2028
2052,2100,2143,2070,2109,2034,2064,2052
2060,2088,2135,2086,2133,2076,2057,2038
2045,2057,2110,2099,2135,2108,2075,2010
2037,2051,2116,2108,2060,2111,2080,2009
2040,2058,2141,2086,1912,2042,2064,2015
2032,2046,2112,2025,1757,1981,2039,2008
2002,2045,2088,1989,1710,2003,2032,1993
1984,2059,2094,2014,1942,2067,2042,2006
1997,2055,2087,2042,2112,2096,2044,2027
2011,2044,2060,2066,2234,2114,2026,2047
2030,2037,2064,2086,2291,2104,2027,2065
2058,2055,2065,2082,2293,2022,2010,2057
2048,2042,2040,2046,2229,1962,1972,2028
2029,2044,2041,2017,2201,1932,1949,2036
2027,2052,2034,2006,2205,1957,1968,2024
2030,2049,2042,2041,2267,2029,1996,2031
2067,2063,2054,2111,2297,2108,2029,2036
2077,2060,2033,2150,2192,2109,2043,2033
2063,2049,2013,2110,2077,2042,2010,2052
2024,2045,1997,2050,1884,1984,2005,2060
2032,2057,2001,1980,1653,1967,2013,2061
2045,2084,2021,1980,1766,1975,2030,2042
2066,2087,2024,1950,1788,1971,1986,1996
2060,2066,1987,1920,1727,1942,1971,1959
2049,2073,2013,1991,1903,1946,1990,1931
2035,2092,2048,2047,2089,2021,2021,1943
2008,2087,2037,2056,2188,2068,2034,1962
2013,2068,2029,2072,2281,2067,2028,2013
2042,2068,2044,2124,2336,2060,2048,2047
2076,2110,2074,2137,2181,2078,2069,2051
2077,2128,2074,2123,2128,2147,2075,2040
2056,2104,2056,2107,2157,2159,2073,2019
2014,2095,2041,2090,2205,2143,2038,1993
2002,2090,2036,2105,2205,2108,2039,2001
2013,2081,2035,2106,2130,2086,2048,2009
2014,2062,2031,2091,2193,2088,2053,2021
2020,2056,2023,2095,2298,2086,2039,2024
2016,2056,2016,2076,2293,2048,2028,2030
2016,2052,2020,2053,2204,2014,1999,2026
2013,2046,2016,2038,2087,1991,2006,2028
2011,2052,2035,2031,1955,1993,2011,2038
2008,2070,2066,2060,2017,2031,2015,2030
2011,2093,2092,2087,2091,2041,2022,2052
2012,2087,2079,2067,2045,2026,2033,2077
2023,2066,2053,2031,2004,2001,2016,2088
2038,2068,2048,2005,1982,1996,2034,2096
2046,2092,2045,2004,1977,1997,2028,2074
2038,2092,2044,1983,1945,1984,2005,2049
2012,2080,2046,1968,1941,1997,2015,2048
2012,2076,2051,1982,1974,2028,2023,2053
2025,2081,2068,2010,2017,2050,2066,2063
2035,2086,2084,2042,2037,2046,2073,2070
2041,2096,2086,2063,2057,2053,2064,2062
2025,2082,2083,2081,2097,2088,2074,2040
2024,2080,2071,2086,2122,2090,2088,2037
2033,2072,2068,2084,2114,2095,2086,2028
2026,2057,2053,2071,2030,2099,2068,2037
2058,2069,2068,2062,1990,2097,2110,2048
2083,2075,2056,2014,1946,2066,2081,2037
2087,2050,2028,1973,1881,2019,2034,2004
2060,2034,2021,1974,1923,1995,2027,1991
2050,2031,2044,2040,2065,2014,2031,1979
2044,2045,2071,2078,2128,2020,2043,1984
2034,2053,2069,2068,2141,1991,2031,1979
2030,2059,2088,2086,2160,2015,2035,2004
2047,2102,2122,2125,2170,2091,2076,2027
2031,2126,2121,2108,2117,2094,2036,2027
2007,2109,2096,2076,2105,2079,2035,2027
2002,2103,2080,2059,2148,2074,2041,2043
2010,2100,2073,2060,2120,2068,2066,2060
2020,2096,2064,2054,2058,2066,2057,2068
2030,2099,2075,2075,2047,2077,2079,2078
2038,2092,2079,2067,1983,2033,2061,2086
2034,2057,2053,2027,1975,1971,2038,2097
2029,2047,2039,1998,2001,1952,2015,2084
2043,2062,2065,2043,2126,2008,2030,2081
2068,2101,2110,2120,2242,2041,2029,2069
2058,2090,2097,2114,2276,2050,2019,2054
2031,2078,2084,2086,2213,2043,2028,2044
1995,2079,2083,2047,2087,2032,2004,2053
1992,2082,2077,2035,1927,2012,2013,2056
1991,2080,2073,2068,2068,2042,2026,2052
2005,2088,2070,2099,2170,2057,2038,2057
2023,2100,2075,2109,2164,2046,2025,2063
2025,2095,2073,2095,2146,2058,2017,2045
2035,2095,2064,2091,2158,2081,2050,2031
2023,2080,2052,2084,2135,2088,2037,2008
2005,2053,2028,2058,2110,2092,2011,1999
2006,2034,2021,2052,2082,2101,2018,1976
2008,2053,2031,2050,2058,2104,2030,1996
2023,2065,2039,2045,2040,2104,2026,2000
2038,2046,2030,2047,2033,2038,2025,2004
2028,2061,2053,2070,2067,1962,2034,2014
2029,2089,2057,2084,2109,1955,2028,1991
2018,2079,2048,2094,2118,1992,2026,1981
2036,2072,2032,2090,2111,2031,2050,2002
2056,2036,2011,2075,2077,2052,2041,2012
2034,2003,1978,2052,2068,2058,2049,2003
1997,1997,1979,2054,2076,2049,2036,1996
1985,2040,2007,2075,2111,2054,2039,1993
1992,2073,2029,2101,2141,2071,2033,2010
2004,2095,2042,2100,2138,2066,2044,2008
2001,2103,2045,2103,2122,2062,2045,2013
2023,2097,2048,2098,2119,2058,2054,2026
2043,2109,2043,2088,2124,2062,2055,2045
2062,2097,2042,2097,2133,2055,2079,2058
2056,2080,2044,2090,2137,2055,2052,2057
2020,2050,2022,2065,2124,2051,2075,2075
2020,2043,2000,2057,2105,2053,2064,2061
2003,2031,1985,2034,2080,2022,2024,2044
2004,2039,1983,2035,2074,2035,2003,2032
1992,2042,1977,2038,2055,2052,2006,2038
1993,2049,1981,2034,2028,2044,2012,2057
2018,2071,1995,2013,2005,2028,2002,2051
2040,2071,2001,1986,1973,1982,1990,2048
2056,2068,2020,1990,1990,1956,1998,2054
2071,2095,2060,2041,2075,1989,2019,2063
2088,2127,2113,2082,2124,2037,2053,2068
2083,2130,2101,2085,2146,2059,2062,2047
2039,2098,2071,2061,2123,2055,2036,2015
2005,2070,2055,2051,2124,2055,2030,1990
2023,2094,2083,2073,2157,2059,2034,2001
2064,2132,2104,2097,2154,2052,2015,2023
2063,2106,2112,2102,2157,2058,2028,2023
2031,2089,2124,2108,2151,2058,2039,2022
2031,2121,2156,2137,2182,2072,2058,2027
2050,2140,2175,2167,2208,2072,2065,2030
2062,2125,2162,2150,2192,2061,2032,2009
2051,2110,2145,2128,2098,2037,2042,2010
2051,2102,2122,2098,1987,2011,2038,2007
2040,2091,2115,2098,2032,2004,2031,2006
2048,2096,2121,2101,2075,2012,2034,2008
2037,2093,2115,2097,2060,2039,2026,2005
2027,2092,2105,2089,2059,2050,2025,2018
2015,2092,2110,2093,2073,2056,2036,2024
2013,2102,2117,2090,2074,2053,2031,2029
2023,2109,2126,2087,2090,2017,2044,2039
2026,2111,2119,2085,2112,2007,2044,2052
2026,2103,2106,2081,2120,2027,2046,2050
2040,2113,2117,2093,2127,2054,2044,2063
2056,2115,2106,2099,2115,2057,2056,2081
2061,2098,2085,2086,2110,2045,2055,2085
2048,2089,2063,2081,2096,2030,2016,2058
2019,2080,2062,2083,2088,2034,2000,2045
2019,2082,2072,2089,2096,2049,2038,2049
2028,2092,2080,2085,2101,2051,2018,2055
2042,2093,2077,2081,2099,2049,2032,2066
2050,2093,2071,2067,2096,2049,2049,2063
2045,2101,2071,2064,2096,2050,2046,2056
2036,2100,2057,2061,2083,2048,2062,2057
2039,2097,2047,2065,2076,2044,2052,2049
2041,2096,2038,2060,2083,2042,2041,2041
2036,2083,2047,2062,2069,2034,2033,2032
2032,2093,2061,2072,2078,2044,2056,2028
2045,2092,2071,2077,2085,2040,2049,2024
2043,2089,2071,2073,2094,2028,2034,2016
2040,2085,2068,2052,2067,2027,2035,2002
2023,2083,2060,2039,2034,2027,2021,2001
2032,2094,2068,2042,2038,2039,2028,2008
2044,2092,2051,2036,2033,2028,2027,2005
2032,2083,2033,2026,2024,2017,2022,2006
2033,2080,2039,2045,2031,2014,2028,2003
2040,2083,2069,2082,2080,2026,2042,1998
2045,2106,2092,2121,2126,2034,2043,2005
2053,2112,2114,2139,2137,2031,2038,2012
2054,2107,2116,2137,2138,2042,2056,2021
2050,2099,2102,2139,2140,2051,2037,2022
2047,2089,2088,2139,2126,2052,2054,2030
2047,2077,2058,2128,2124,2057,2056,2034
2051,2064,2038,2123,2128,2057,2056,2043
2057,2063,2017,2117,2122,2052,2045,2035
2042,2063,1993,2113,2124,2050,2050,2048
2045,2065,1990,2113,2121,2051,2037,2061
2042,2060,1981,2108,2120,2053,2043,2054
2026,2054,1958,2096,2103,2042,2038,2060
2020,2052,1942,2086,2093,2032,2035,2062
2021,2044,1938,2064,2090,2026,2021,2053
2027,2044,1954,2062,2091,2025,2022,2065
2027,2049,1957,2042,2073,2016,2036,2060
2029,2045,1967,2038,2068,2017,2041,2058
2036,2062,1991,2054,2073,2031,2015,2066
2040,2084,2026,2056,2082,2026,2008,2060
2028,2085,2037,2056,2066,2015,2006,2049
2024,2076,2055,2052,2054,2018,2006,2056
2043,2084,2065,2035,2043,2018,2037,2059
2058,2076,2059,2024,2040,2015,2036,2054
2060,2072,2093,2049,2044,2008,2023,2039
2063,2082,2146,2087,2053,2012,2022,2039
2076,2118,2192,2126,2076,2024,2031,2041
2081,2135,2237,2151,2076,2034,2038,2032
2062,2133,2247,2145,2083,2045,2033,2022
2049,2138,2235,2140,2085,2049,2043,2010
2034,2119,2188,2117,2065,2036,2034,2003
2039,2126,2156,2105,2064,2039,2036,2029
2085,2143,2165,2107,2097,2062,2048,2036
2100,2145,2148,2111,2103,2060,2061,2041
2120,2135,2118,2102,2100,2054,2077,2059
2134,2113,2092,2102,2094,2045,2059,2065
2125,2088,2070,2089,2080,2022,2029,2034
2078,2063,2054,2076,2070,2006,2000,1985
2027,2044,2041,2060,2060,2007,2011,1989
2040,2070,2053,2053,2072,2017,2019,2028
2038,2085,2069,2060,2102,2030,2039,2044
2008,2088,2075,2060,2103,2030,2044,2069
2030,2111,2079,2051,2092,2024,2042,2085
2040,2109,2045,2021,2073,2008,2050,2090
2047,2102,2038,2028,2074,2028,2059,2100
2065,2105,2055,2041,2077,2041,2064,2106
2067,2117,2078,2044,2075,2038,2052,2095
2060,2118,2094,2060,2073,2039,2039,2088
2056,2112,2111,2069,2082,2050,2063,2096
2055,2112,2104,2062,2075,2041,2035,2076
2043,2108,2100,2057,2072,2041,2045,2081
2047,2112,2099,2063,2077,2045,2051,2082
2048,2103,2084,2059,2076,2039,2049,2072
2058,2092,2068,2050,2066,2028,2027,2066
2048,2082,2042,2029,2055,2017,2023,2047
2046,2084,2039,2039,2063,2024,2034,2049
2078,2095,2048,2059,2070,2027,2037,2047
2092,2100,2055,2070,2082,2033,2018,2030
2074,2096,2052,2079,2085,2039,2036,2024
2050,2093,2044,2086,2077,2035,2031,2029
2046,2087,2052,2084,2079,2026,2048,2037
2046,2078,2042,2086,2075,2011,2027,2032
2038,2070,2044,2085,2061,2010,2002,2007
2033,2071,2046,2084,2065,2023,2012,2003
2049,2077,2048,2087,2074,2025,2023,2019
2059,2092,2061,2095,2083,2031,2047,2023
2065,2097,2066,2094,2079,2026,2035,2028
2066,2094,2069,2090,2078,2018,2024,2021
2062,2102,2072,2096,2068,2014,2028,2013
2046,2076,2057,2082,2060,2014,2026,2015
2032,2069,2070,2087,2055,2027,2036,2022
2024,2069,2079,2093,2065,2040,2049,2035
2042,2078,2084,2090,2067,2052,2058,2047
2055,2077,2062,2086,2063,2056,2049,2041
2038,2053,2064,2102,2072,2060,2059,2046
2036,2066,2084,2105,2069,2058,2056,2056
2038,2062,2073,2094,2055,2045,2044,2072
2042,2068,2068,2088,2059,2046,2068,2077
2049,2082,2076,2106,2069,2051,2065,2070
2037,2086,2074,2112,2071,2045,2063,2076
2032,2094,2061,2106,2067,2045,2058,2098
2044,2105,2064,2104,2068,2043,2060,2093
2053,2100,2054,2092,2064,2041,2033,2086
2045,2090,2041,2074,2059,2036,2055,2075
2039,2083,2034,2054,2054,2030,2052,2061
2027,2077,2026,2037,2046,2024,2047,2051
2044,2089,2038,2022,2047,2018,2053,2047
2055,2099,2046,2011,2046,2022,2059,2042
2057,2097,2034,1998,2042,2006,2060,2041
2061,2095,2035,1997,2039,2010,2053,2042
2056,2098,2064,2009,2038,2009,2048,2046
2061,2100,2070,2013,2047,2020,2072,2052
2061,2095,2053,2012,2053,2030,2071,2055
2060,2081,2047,2027,2060,2036,2076,2042
2053,2087,2062,2054,2074,2046,2083,2035
2056,2085,2084,2068,2077,2041,2069,2027
2053,2083,2092,2075,2069,2034,2058,2028
2063,2091,2114,2085,2083,2044,2070,2019
2068,2112,2122,2100,2086,2044,2072,2021
2073,2121,2127,2102,2080,2049,2063,2031
2060,2112,2114,2101,2085,2047,2076,2033
2069,2109,2087,2097,2078,2044,2057,2050
2066,2097,2067,2095,2065,2038,2064,2051
2072,2093,2063,2102,2069,2038,2069,2054
2065,2093,2073,2115,2082,2041,2064,2056
2063,2090,2064,2110,2090,2041,2070,2070
2062,2098,2064,2103,2080,2039,2068,2086
2061,2088,2053,2088,2074,2032,2055,2086
2056,2080,2034,2064,2060,2027,2054,2092
2054,2068,2027,2046,2056,2033,2052,2097
2051,2071,2042,2059,2062,2046,2046,2103
2068,2084,2055,2054,2048,2036,2021,2098
2050,2074,2047,2054,2050,2036,2046,2088
2046,2080,2038,2053,2059,2032,2053,2101
2057,2068,2032,2055,2060,2021,2047,2081
2056,2067,2035,2056,2038,2025,2051,2068
2047,2061,2053,2042,2020,2028,2046,2071
2046,2062,2065,2042,2004,2026,2023,2070
2046,2062,2090,2046,2004,2028,2039,2072
2050,2073,2110,2069,2016,2019,2068,2068
2060,2096,2139,2093,2033,2027,2073,2067
2069,2101,2146,2098,2024,2039,2065,2063
2063,2094,2124,2098,2021,2042,2073,2058
2060,2084,2095,2101,2015,2056,2063,2045
2065,2071,2055,2088,2023,2037,2043,2033
2050,2060,2039,2098,2044,2016,2032,2016
2052,2056,2043,2110,2074,2036,2077,2006
2052,2054,2049,2111,2074,2052,2061,2002
2050,2057,2050,2112,2088,2068,2044,2011
2057,2071,2052,2127,2109,2078,2059,2026
2065,2080,2048,2111,2089,2075,2063,2035
2067,2067,2030,2086,2068,2062,2054,2032
2060,2073,2029,2064,2060,2014,2028,2041
2060,2080,2026,2048,2051,1983,2019,2040
2056,2088,2029,2043,2059,2015,2025,2046
2059,2098,2021,2024,2047,2068,2043,2045
2062,2095,2022,2016,2041,2095,2045,2053
2061,2094,2014,2005,2025,2094,2056,2060
2061,2083,2000,1992,2007,2077,2038,2073
2064,2075,1993,2000,2029,2020,2051,2098
2065,2087,2027,2014,2049,2002,2042,2103
2057,2090,2039,2008,2043,2021,2031,2102
2050,2081,2040,2007,2032,2044,2030,2105
2049,2074,2023,2013,2036,2052,2028,2108
2051,2070,2018,2023,2042,2047,2028,2109
2057,2071,2023,2032,2044,2050,2040,2108
2062,2073,2042,2038,2042,2032,2040,2113
2066,2082,2063,2045,2043,2002,2044,2108
2064,2082,2080,2049,2033,1997,2028,2087
2046,2063,2089,2067,2016,1997,2026,2071
2047,2067,2109,2066,2017,2020,2031,2059
2048,2073,2107,2068,2024,2034,2044,2052
2047,2070,2100,2060,2021,2037,2040,2048
2052,2065,2091,2051,2028,2036,2032,2044
2057,2059,2080,2056,2032,2034,2047,2046
2057,2059,2072,2056,2044,2037,2020,2036
2054,2057,2073,2056,2040,2038,2039,2036
2060,2059,2071,2057,2054,2043,2032,2032
2059,2063,2068,2062,2052,2043,2025,2023
2055,2055,2046,2059,2051,2040,2033,2023
2044,2041,2068,2073,2045,2043,2035,2016
2052,2040,2081,2097,2052,2047,2051,2028
2059,2049,2091,2106,2056,2046,2054,2030
2064,2044,2098,2115,2046,2043,2048,2032
2064,2046,2106,2121,2049,2040,2056,2028
2054,2059,2108,2127,2046,2033,2043,2027
2052,2069,2099,2128,2035,2034,2043,2029
2062,2071,2085,2122,2017,2037,2044,2036
2058,2072,2066,2115,2011,2033,2048,2042
2050,2061,2035,2093,2011,2035,2041,2047
2054,2065,2029,2099,2038,2064,2057,2066
2065,2076,2041,2113,2070,2078,2064,2087
2066,2078,2048,2113,2080,2078,2062,2093
2065,2070,2050,2098,2079,2067,2037,2097
2051,2056,2066,2080,2045,2051,2043,2085
2047,2047,2068,2044,2006,2029,2025,2073
2035,2056,2079,2012,1967,2014,2024,2081
2034,2067,2092,2025,2000,2014,2034,2090
2055,2083,2104,2066,2014,2037,2050,2100
2075,2100,2107,2099,2034,2046,2051,2101
2077,2108,2112,2126,2053,2056,2050,2096
2062,2112,2116,2148,2080,2061,2069,2090
2072,2121,2123,2169,2094,2058,2083,2078
2074,2118,2104,2160,2084,2051,2063,2067
2069,2101,2086,2154,2064,2039,2052,2052
2067,2091,2060,2141,2070,2039,2050,2050
2066,2069,2029,2100,2037,2032,2037,2048
2064,2065,2027,2068,2030,2035,2036,2064
2065,2069,2022,2043,2009,2042,2049,2053
2069,2072,2031,2035,2008,2045,2047,2034
2074,2085,2031,2019,2055,2065,2068,2040
2084,2086,2030,2003,2050,2069,2051,2031
2073,2088,2032,1977,1996,2068,2047,2022
2067,2089,2042,1959,1982,2080,2066,2025
2068,2090,2044,1967,1986,2064,2057,2036
2065,2080,2034,1968,2000,2033,2029,2035
2067,2085,2043,1990,2030,1998,2066,2057
2077,2086,2048,2020,2087,1987,2063,2065
2086,2073,2032,2046,2131,2014,2070,2064
2074,2058,2015,2088,2134,2032,2044,2048
2055,2066,2009,2086,2099,2046,2051,2046
2051,2068,2005,2049,2058,2029,2038,2048
2043,2053,1993,2011,2023,2023,2035,2058
2047,2049,1991,2003,1982,2036,2036,2068
2048,2059,1992,2023,2023,2059,2052,2087
2060,2066,1995,2036,2038,2063,2065,2096
2066,2059,1989,2036,2009,2055,2056,2093
2049,2050,1978,2031,2034,2044,2046,2088
2049,2041,1975,2044,2045,2049,2048,2091
2059,2045,1985,2067,2050,2056,2050,2107
2075,2054,1990,2073,2052,2058,2052,2109
2076,2039,1979,2065,2038,2058,2070,2096
2072,2031,1968,2057,2023,2049,2055,2089
2070,2034,1959,2040,1993,2042,2057,2080
2050,2038,1976,2045,1983,2040,2064,2082
2047,2054,1999,2040,1980,2043,2055,2065
2040,2043,2003,2008,1952,2064,2060,2047
2046,2065,2021,1987,1951,2082,2084,2054
2072,2084,2036,1979,1940,2085,2084,2074
2103,2094,2037,1958,1923,2065,2069,2071
2094,2071,2018,1947,1924,2020,2063,2068
2079,2082,2051,1929,1956,2023,2067,2043
2076,2097,2089,1952,2023,2046,2073,2022
2055,2084,2088,1970,2068,2052,2066,2012
2044,2065,2079,1991,2063,2049,2062,2015
2041,2066,2074,2027,2053,2041,2046,2013
2041,2072,2077,2070,2074,2048,2040,2028
2052,2084,2087,2099,2123,2063,2056,2027
2066,2101,2098,2120,2197,2076,2075,2029
2071,2090,2096,2118,2212,2068,2062,2038
2074,2081,2090,2087,2182,2058,2074,2039
2068,2083,2098,2068,2117,2042,2044,2037
2060,2081,2097,2038,2008,2028,2063,2046
2055,2073,2087,2031,2011,2039,2065,2057
2061,2072,2085,2036,2050,2050,2073,2058
2052,2060,2072,2019,2056,2064,2046,2066
2045,2042,2046,2013,2021,2063,2056,2060
2035,2042,2050,1997,1912,2052,2064,2065
2041,2053,2067,1981,1795,2022,2046,2078
2047,2039,2062,2004,1864,1962,2042,2092
2055,2021,2058,2035,1947,1952,2046,2106
2082,2027,2071,2062,2008,1983,2052,2106
2085,2032,2075,2060,2028,2026,2040,2089
2081,2029,2058,2057,2052,2057,2043,2087
2074,2024,2049,2069,2073,2062,2050,2074
2060,2033,2044,2091,2063,2059,2052,2053
2025,2032,2035,2098,2054,2060,2052,2047
2003,2034,2026,2091,2028,2058,2038,2052
2025,2042,2007,2058,1988,2054,2035,2043
2020,2018,1972,2028,1972,2047,2037,2044
2033,2004,1948,2035,1997,2052,2005,2024
2036,2016,1962,2042,2012,2058,2018,2014
2067,2040,1982,2056,2025,2064,2033,2017
2069,2045,1970,2049,2024,2061,2042,2022
2058,2043,1954,2033,2025,2055,2032,2021
2048,2051,1950,2028,2037,2054,2027,2021
2048,2047,1952,2038,2063,2047,2046,2024
2063,2059,1962,2054,2064,2053,2036,2028
2082,2059,1961,2053,2057,2052,2054,2032
2078,2047,1977,2043,2025,2040,2039,2024
2066,2038,2015,2044,2020,2027,2028,2024
2066,2042,2065,2054,2012,2032,2026,2014
2061,2047,2095,2065,2030,2038,2056,2021
2061,2055,2108,2088,2039,2046,2064,2042
2058,2066,2124,2105,2047,2062,2073,2048
2046,2067,2098,2109,2048,2062,2068,2058
2062,2062,2075,2096,2036,2054,2057,2075
2065,2052,2057,2077,2017,2038,2054,2079
2055,2053,2050,2067,2010,2037,2049,2083
2040,2048,2060,2065,2010,2039,2029,2073
2031,2045,2070,2049,2008,2040,2055,2084
2033,2043,2058,2020,2000,2033,2034,2095
2043,2054,2058,1995,1988,2036,2038,2115
2053,2065,2072,1990,1988,2041,2040,2119
2065,2074,2096,1993,1988,2045,2053,2119
2069,2075,2096,1994,1983,2041,2054,2119
2074,2085,2083,1996,1980,2041,2048,2107
2082,2086,2077,1992,1995,2052,2054,2105
2080,2088,2081,2000,2020,2062,2067,2102
2089,2101,2097,2029,2042,2066,2057,2092
2092,2100,2097,2036,2029,2077,2047,2080
2087,2096,2095,2038,2033,2091,2065,2074
2084,2086,2085,2035,2025,2096,2056,2059
2077,2080,2072,2027,2024,2079,2049,2048
2073,2071,2070,2029,2018,2050,2049,2048
2069,2070,2069,2041,2026,2037,2056,2050
2066,2066,2065,2040,2021,2042,2053,2043
2063,2063,2061,2041,2019,2047,2043,2036
2068,2061,2053,2033,2012,2046,2050,2036
2072,2057,2052,2036,2008,2044,2053,2035
2071,2061,2063,2047,2025,2055,2080,2038
2073,2060,2064,2043,2022,2050,2061,2043
2073,2055,2058,2044,2019,2044,2045,2045
2074,2062,2050,2049,2018,2051,2042,2053
2068,2056,2043,2043,2019,2053,2061,2053
2069,2050,2036,2038,2015,2046,2051,2059
2058,2039,2029,2032,2021,2040,2045,2055
2051,2040,2028,2042,2027,2049,2046,2060
2059,2053,2038,2048,2037,2064,2055,2069
2066,2054,2040,2052,2035,2061,2069,2074
2072,2056,2040,2051,2038,2061,2084,2087
2057,2055,2037,2052,2034,2056,2069,2101
2056,2054,2034,2053,2037,2053,2051,2101
2064,2046,2032,2052,2032,2051,2051,2099
2058,2040,2023,2041,2018,2048,2046,2097
2048,2038,2022,2041,2015,2046,2046,2096
2045,2032,2020,2044,2020,2055,2050,2091
2052,2032,2015,2043,2021,2056,2047,2087
2054,2033,2011,2043,2021,2059,2060,2085
2050,2031,2009,2039,2020,2056,2061,2077
2058,2029,2004,2031,2017,2059,2063,2072
2051,2031,2006,2031,2016,2056,2060,2066
2052,2036,2011,2041,2022,2066,2068,2059
2060,2046,2025,2056,2024,2069,2079,2053
2062,2049,2028,2070,2028,2065,2064,2051
2066,2048,2027,2064,2027,2063,2046,2046
2056,2045,2025,2056,2013,2046,2054,2036
2056,2042,2015,2048,2008,2033,2035,2032
2046,2037,2023,2061,2016,2030,2043,2026
2045,2039,2049,2075,2023,2036,2041,2027
2047,2059,2073,2087,2039,2039,2024,2030
2061,2066,2088,2096,2047,2053,2039,2029
2070,2084,2109,2128,2062,2064,2059,2039
2076,2090,2111,2122,2062,2062,2061,2033
2068,2077,2086,2135,2052,2052,2060,2039
2060,2070,2095,2185,2044,2046,2057,2032
2064,2074,2102,2211,1997,2041,2058,2040
2067,2061,2089,2216,2013,2049,2057,2054
2066,2069,2088,2217,2047,2056,2067,2069
2070,2066,2087,2219,2050,2069,2079,2061
2079,2073,2101,2223,2048,2078,2076,2068
2079,2077,2096,2199,2030,2083,2070,2085
2074,2075,2088,2143,2004,2072,2074,2084
2070,2070,2081,2053,1998,2070,2066,2088
2083,2069,2083,1976,1965,2060,2056,2096
2069,2052,2050,1924,1940,2046,2057,2092
2060,2051,2044,1879,2011,2059,2057,2090
2050,2036,2036,1857,2033,2047,2061,2084
2041,2033,2038,1880,2010,2029,2063,2093
2050,2050,2044,1915,1945,2005,2041,2092
2050,2043,2031,1943,1899,2004,2032,2090
2048,2036,2024,1982,1923,2019,2038,2077
2046,2039,2021,2006,1986,2038,2038,2072
2045,2034,2021,2027,2029,2038,2043,2073
2043,2035,2021,2034,2049,2034,2047,2068
2048,2034,2017,2022,2056,2039,2060,2070
2054,2033,2011,2009,2035,2048,2080,2065
2047,2027,1997,2001,2043,2048,2057,2066
2050,2016,1983,1997,2058,2043,2051,2069
2053,2014,1990,2002,2058,2041,2045,2069
2064,2017,2017,2014,2067,2052,2058,2047
2066,2027,2022,2025,2074,2057,2053,2036
2054,2016,2014,2023,2058,2063,2044,2022
2041,2004,1985,2039,2041,2056,2062,2025
2022,1986,1949,2049,1970,2052,2060,2024
2016,1988,1940,2055,1949,2066,2055,2035
2041,2009,1938,2065,1907,2060,2037,2041
2051,2004,1924,2078,1951,2076,2047,2053
2052,2003,1954,2096,2000,2072,2048,2062
2044,1993,1970,2108,2009,2067,2053,2056
2039,2002,1993,2141,2004,2062,2038,2058
2039,1991,2000,2154,1968,2042,2054,2076
2047,1986,2016,2140,1920,2020,2052,2099
2043,1988,2026,2123,1908,2014,2040,2086
2039,2003,2061,2138,1953,2014,2045,2071
2031,2018,2091,2161,2050,2017,2032,2088
2030,2032,2089,2176,2145,2025,2046,2116
2062,2075,2116,2190,2123,2056,2067,2142
2063,2101,2137,2182,2076,2045,2044,2143
2050,2096,2110,2130,2037,2049,2025,2134
2047,2067,2065,2074,2042,2075,2022,2120
2041,2070,2063,2083,2099,2119,2047,2122
2038,2082,2069,2081,2138,2130,2047,2128
2041,2076,2057,2070,2136,2082,2052,2155
2066,2088,2045,2062,2116,2019,2058,2171
2081,2083,2033,2027,1987,2011,2079,2177
2092,2075,2049,2014,1868,2005,2045,2158
2090,2065,2064,2016,1864,2008,2043,2137
2072,2059,2081,2010,1934,1994,2059,2118
2045,2056,2088,2011,2041,2026,2049,2101
2060,2068,2091,1957,2051,2034,2059,2103
2075,2064,2070,1866,2042,2015,2067,2116
2073,2064,2065,1833,2082,2010,2061,2105
2058,2062,2068,1808,2129,2034,2070,2085
2055,2068,2079,1869,2160,2070,2087,2093
2072,2057,2056,1969,2130,2078,2076,2107
2059,2021,2013,1983,2056,2036,2057,2093
2038,2012,1994,1931,1899,2010,2036,2084
2048,2024,2010,1917,1832,2004,2025,2066
2043,2022,2004,1942,1923,2015,2024,2081
2071,2026,2031,1976,2014,2027,2067,2100
2066,2028,2031,1996,2045,2036,2041,2097
2058,2036,2051,2010,2074,2046,2044,2110
2068,2060,2075,2027,2077,2053,2065,2129
2058,2058,2066,2025,2054,2047,2061,2128
2037,2043,2050,2014,2027,2039,2056,2138
2036,2046,2037,2012,1997,2035,2058,2137
2037,2036,2036,2022,1989,2044,2061,2149
2049,2038,2044,2020,1971,2041,2052,2156
2043,2027,2035,2010,1938,2032,2050,2151
2029,2016,2023,1994,1908,2002,2041,2142
2028,2003,2014,2000,1960,2004,2036,2143
2034,2000,2015,2020,2028,2034,2045,2137
2031,2000,2000,2016,2064,2031,2028,2113
2013,1997,1999,2016,2072,2058,2023,2092
2022,2024,2028,2031,2076,2091,2017,2098
2056,2036,2032,2032,2058,2076,2039,2141
2076,2027,2013,2028,2032,2047,2046,2138
2059,2026,2005,2020,1993,2028,2034,2115
2044,2035,2016,1997,1926,2023,2064,2101
2032,2060,2042,2006,1908,2033,2074,2106
2049,2073,2055,2009,1887,2033,2071,2119
2064,2075,2059,2022,1915,2045,2072,2132
2079,2073,2056,2031,1930,2053,2069,2125
2075,2055,2041,2026,1960,2045,2050,2107
2057,2046,2043,2029,1970,2036,2048,2095
2064,2052,2056,2033,1956,2023,2052,2093
2073,2056,2064,2024,1955,2012,2039,2088
2057,2043,2049,2014,2021,2020,2012,2082
2039,2032,2052,2027,2033,2038,2018,2075
2039,2049,2054,2055,2139,2064,2058,2080
2043,2048,2052,2087,2252,2088,2056,2077
2041,2051,2067,2094,2214,2110,2066,2076
2041,2053,2062,2052,2012,2107,2067,2070
2046,2045,2049,2021,1906,2093,2057,2082
2048,2037,2043,2026,1902,2068,2045,2086
2051,2042,2049,2033,1936,2056,2037,2085
2049,2037,2044,2039,1963,2020,2039,2101
2055,2039,2052,2060,2036,1991,2044,2122
2053,2037,2050,2069,2072,2022,2044,2136
2050,2040,2051,2048,2029,2021,2027,2143
2053,2044,2045,2043,2021,2027,2036,2146
2057,2055,2047,2047,2025,2023,2034,2145
2059,2047,2043,2038,1999,2010,2024,2127
2045,2026,2025,2014,1986,2021,2023,2124
2049,2032,2035,2028,2041,2048,2045,2139
2070,2053,2060,2066,2096,2068,2059,2158
2075,2065,2058,2076,2088,2069,2052,2147
2075,2062,2060,2062,2072,2072,2057,2132
2073,2058,2047,2049,2074,2072,2044,2118
2065,2042,2041,2039,2076,2084,2046,2110
2052,2046,2041,2033,2059,2094,2046,2103
2025,2040,2036,2032,2046,2095,2059,2102
2036,2046,2033,2040,2054,2074,2068,2113
2063,2043,2040,2051,2067,2088,2091,2109
2064,2048,2037,2060,2078,2140,2084,2103
2062,2035,2027,2056,2062,2151,2102,2101
2066,2027,2012,2055,2030,2156,2117,2092
2074,2013,2004,2039,1936,2104,2079,2088
2059,1988,1989,2028,1881,2016,2055,2084
2048,1978,1993,2060,2024,1999,2042,2063
2035,1998,2017,2094,2157,2028,2034,2023
2026,2025,2042,2115,2227,2056,2048,2027
2041,2019,2028,2091,2157,2040,2045,2052
2057,2022,2025,2078,2024,2021,2043,2061
2064,2049,2056,2094,2011,2030,2055,2077
2064,2076,2096,2119,2067,2065,2063,2103
2069,2090,2106,2131,2130,2086,2063,2091
2040,2079,2077,2117,2141,2082,2049,2082
2037,2057,2036,2090,2060,2089,2073,2098
2048,2028,2014,2052,1973,2085,2076,2103
2038,2025,2007,2018,1964,2060,2066,2111
2047,2041,2019,1996,1948,2048,2044,2111
2048,2041,2027,1981,1917,2019,2028,2109
2035,2038,2028,1957,1903,1955,2010,2121
2039,2044,2050,2001,1992,1963,2036,2138
2057,2059,2059,2059,2082,2016,2060,2153
2057,2059,2044,2037,2057,2073,2078,2158
2063,2055,2040,2023,2071,2100,2085,2148
2056,2050,2053,2018,1996,2073,2072,2142
2052,2056,2055,1988,1887,2046,2049,2120
2054,2060,2062,1991,1902,2053,2063,2127
2066,2074,2084,2015,1944,2067,2058,2116
2073,2069,2084,2019,1938,2057,2051,2114
2061,2053,2083,2006,1906,2029,2048,2094
2056,2042,2068,2007,1882,2015,2042,2086
2048,2028,2052,2011,1895,2021,2045,2078
2045,2035,2054,2019,1925,2027,2050,2078
2051,2040,2052,2026,1969,2043,2068,2076
2050,2044,2055,2033,2037,2059,2051,2071
2054,2036,2051,2043,2117,2066,2052,2061
2053,2036,2052,2059,2156,2080,2048,2064
2054,2037,2050,2071,2152,2081,2042,2057
2057,2035,2046,2065,2106,2072,2052,2058
2057,2038,2049,2051,2050,2064,2058,2068
2061,2038,2054,2048,2004,2063,2077,2073
2054,2045,2054,2043,1983,2054,2063,2079
2060,2049,2054,2047,2033,2057,2071,2082
2066,2045,2051,2053,2058,2056,2070,2092
2070,2041,2038,2053,2053,2051,2045,2086
2064,2035,2042,2050,2047,2058,2030,2088
2054,2028,2044,2056,2075,2073,2039,2084
2053,2035,2055,2061,2123,2082,2059,2090
2049,2038,2059,2064,2166,2093,2019,2107
2046,2049,2067,2074,2173,2098,2037,2115
2051,2048,2052,2069,2136,2089,2036,2113
2049,2042,2053,2044,2014,2064,2049,2124
2054,2041,2039,2017,1890,2065,2053,2132
2048,2037,2038,2012,1905,2078,2050,2128
2047,2047,2039,2024,1920,2022,2036,2146
2063,2058,2053,2046,1890,2005,2040,2151
2078,2061,2054,2057,1894,2021,2052,2140
2076,2063,2045,2050,1905,2044,2043,2122
2066,2042,2026,2029,1950,2101,2046,2096
2054,2029,2030,2039,2004,2128,2046,2087
2039,2026,2041,2060,2018,2119,2040,2075
2019,2024,2040,2055,2006,2077,2027,2069
2028,2023,2035,2093,2052,2023,2046,2095
2053,2046,2061,2150,2143,2009,2060,2099
2065,2063,2073,2162,2149,2072,2068,2096
2063,2058,2075,2144,2085,2111,2080,2090
2058,2054,2065,2122,2009,2119,2076,2071
2060,2041,2059,2111,1991,2100,2081,2078
2053,2036,2047,2088,1981,2094,2036,2062
2047,2029,2033,2041,1891,2054,2053,2057
2049,2029,2036,1991,1900,2026,2043,2050
2051,2040,2061,2017,1952,2026,2039,2058
2061,2050,2078,2032,1991,2019,2060,2059
2063,2044,2071,2060,2100,2040,2073,2046
2056,2038,2059,2107,2325,2096,2067,2056
2044,2018,2040,2097,2302,2076,2056,2061
2031,2018,2032,2085,2236,2070,2032,2070
2039,2023,2023,2101,2220,2050,2054,2072
2049,2022,2023,2108,2147,2044,2057,2085
2043,2023,2021,2075,2018,2037,2072,2093
2050,2035,2022,2054,1988,2026,2053,2099
2064,2034,2018,2052,2015,2027,2047,2111
2053,2010,1993,2006,1893,2026,2039,2103
2050,2012,2003,2024,1979,2046,2046,2106
2041,2035,2035,2042,2022,2047,2050,2098
2034,2052,2057,2011,1953,2015,2037,2103
2036,2053,2058,1954,1853,1974,2027,2106
2050,2049,2061,1919,1861,1958,2022,2105
2048,2049,2062,1918,1861,1947,1995,2092
2033,2024,2042,1920,1902,1950,1989,2074
2023,2012,2026,1956,1968,1993,2027,2094
2032,2027,2037,2026,2062,2033,2045,2098
2052,2044,2052,2048,2070,2032,2041,2087
2059,2053,2055,2024,2043,2027,2031,2070
2059,2052,2046,2003,2030,2032,2039,2073
2052,2037,2029,2000,2020,2060,2017,2066
2054,2037,2020,1990,1960,2049,2025,2059
2054,2028,2017,1984,1910,2023,2029,2056
2051,2027,2008,1981,1900,2024,2010,2036
2039,2010,1997,1974,1944,2008,2012,2026
2043,2030,2019,2023,2112,2021,2047,2032
2054,2044,2035,2066,2242,2078,2055,2044
2056,2034,2031,2060,2233,2103,2054,2040
2048,2017,2023,2050,2195,2124,2066,2036
2024,2009,2020,2043,2134,2135,2040,2032
2020,2011,2019,2033,2088,2132,2040,2032
2033,2033,2037,2039,2071,2131,2047,2039
2043,2044,2039,2038,2052,2102,2040,2062
2059,2046,2033,2035,2026,2040,2048,2068
2055,2044,2028,2032,2036,1988,2046,2068
2054,2044,2014,2035,2081,1994,2035,2076
2064,2036,2019,2045,2118,2017,2058,2078
2063,2042,2030,2050,2145,2058,2077,2092
2052,2042,2034,2065,2152,2075,2074,2098
2050,2034,2041,2056,2100,2073,2073,2103
2046,2025,2021,2056,2091,2071,2063,2097
2037,2020,2018,2058,2104,2087,2053,2104
2044,2026,2031,2074,2121,2091,2058,2094
2044,2026,2050,2073,2112,2087,2049,2096
2028,2033,2059,2072,2081,2088,2064,2110
2045,2053,2079,2073,2074,2078,2062,2105
2050,2051,2084,2065,2037,2056,2064,2105
2055,2047,2090,2058,2044,2045,2070,2104
2060,2061,2092,2062,2068,2054,2072,2098
2068,2064,2092,2052,2001,2035,2060,2086
2065,2066,2078,2033,1911,2018,2053,2068
2068,2055,2060,2026,1907,2017,2040,2068
2062,2046,2041,2013,1895,2036,2041,2057
2057,2037,2032,1994,1841,2046,2059,2064
2070,2044,2037,2007,1848,2056,2062,2070
2090,2061,2064,2035,1910,2061,2074,2055
2088,2062,2073,2042,1926,2058,2064,2050
2078,2062,2066,2023,1909,2028,2051,2042
2024,2046,2067,2004,1910,2019,2045,2023
2019,2051,2088,2013,1945,2054,2042,2035
2047,2057,2084,2012,1995,2090,2054,2035
2047,2047,2063,2018,2092,2114,2041,2029
2054,2036,2045,2029,2142,2109,2055,2018
2045,2037,2044,2057,2260,2095,2058,2031
2040,2036,2057,2080,2252,2069,2060,2047
2047,2047,2068,2100,2130,2053,2087,2060
2052,2041,2061,2072,2013,2048,2095,2060
2061,2029,2059,2073,2019,2056,2079,2065
2064,2030,2054,2066,1990,2044,2069,2057
2031,2022,2037,2048,1975,2028,2036,2071
2036,2011,2025,2046,1980,2026,2058,2080
2039,2025,2032,2039,1978,2027,2034,2068
2044,2037,2043,2020,1891,2017,2045,2072
2051,2053,2058,2019,1830,2024,2046,2083
2045,2047,2062,2033,1891,2042,2050,2085
2036,2049,2060,2054,2019,2049,2050,2093
2052,2050,2061,2101,2162,2064,2043,2098
2054,2062,2052,2109,2188,2062,2052,2095
2055,2055,2046,2113,2212,2054,2027,2090
2048,2044,2045,2097,2159,2045,2036,2081
2052,2048,2049,2094,2108,2035,2033,2078
2051,2051,2047,2098,2121,2030,2028,2063
2054,2055,2054,2101,2174,2021,2001,2047
2049,2052,2052,2091,2085,2031,2015,2047
2054,2050,2051,2086,2113,2072,2051,2053
2056,2048,2042,2069,2089,2073,2051,2057
2051,2030,2025,2000,1878,2032,2024,2040
2044,2015,2007,1961,1765,2013,2016,2036
2035,2010,1997,1966,1822,2008,2013,2020
2024,2008,1998,1998,1906,2038,2032,2027
2052,2035,2011,2033,1990,2075,2038,2032
2062,2036,2018,2041,2007,2071,2058,2029
2057,2028,2015,2034,2037,2066,2064,2021
2053,2036,2018,2042,2115,2070,2067,2035
2078,2048,2015,2057,2112,2065,2069,2041
2069,2030,2006,2049,2107,2052,2065,2020
2041,2012,1997,2022,2120,2050,2049,2005
2027,2007,1986,2003,2104,2052,2057,2008
2033,2001,1985,1986,1952,2013,2031,2021
2034,2011,2000,2000,1916,2014,2035,2050
2038,2023,2035,2000,1896,2047,2065,2064
2055,2029,2054,2021,2028,2073,2073,2086
2062,2038,2078,2044,2057,2081,2067,2079
2042,2038,2087,2055,2077,2084,2048,2046
2006,2041,2098,2056,2067,2062,2064,2084
2040,2034,2104,2068,2096,2055,2061,2122
2073,2038,2114,2086,2141,2076,2063,2128
2063,2050,2122,2099,2173,2064,2056,2108
2054,2048,2112,2094,2172,2073,2063,2094
2056,2065,2112,2102,2136,2077,2065,2088
2070,2068,2109,2073,2049,2040,2049,2076
2065,2062,2088,2003,1802,1982,2028,2059
2057,2053,2088,2031,1917,2013,2018,2061
2065,2064,2101,2092,2194,2050,2036,2061
2066,2065,2096,2085,2215,2041,2046,2052
2055,2057,2076,2082,2189,2039,2050,2056
2040,2050,2051,2073,2138,2015,2010,2035
2018,2034,2035,2065,2111,2007,2007,2031
2031,2048,2047,2057,2077,2016,2006,2019
2029,2053,2050,2022,1989,2014,2018,2012
2036,2045,2029,1982,1872,2022,2003,2007
2046,2050,2036,1994,1988,2050,2012,2012
2046,2044,2028,2014,2109,2073,2022,2014
2035,2029,2024,2024,2114,2095,2017,2007
2031,2014,2018,2042,2126,2077,2027,1993
2020,2021,2028,2046,2110,2060,2039,2008
2048,2033,2036,2041,2053,2086,2072,2008
2053,2034,2040,2043,2058,2120,2055,2026
2049,2039,2042,2038,2060,2130,2059,2027
2047,2032,2035,2032,2064,2116,2061,2031
2048,2043,2060,2048,2052,2060,2069,2047
2057,2047,2075,2065,2031,1997,2059,2063
2066,2052,2077,2064,2010,2008,2065,2070
2071,2046,2074,2068,2000,2026,2052,2070
2070,2045,2065,2064,2032,2024,2046,2066
2060,2032,2051,2066,2043,2037,2051,2072
2056,2039,2044,2072,2040,2066,2056,2077
2048,2032,2045,2073,2010,2066,2060,2072
2042,2035,2047,2077,2033,2059,2058,2070
2034,2028,2041,2068,2029,2057,2045,2072
2035,2008,2024,2063,2047,2052,2039,2065
2035,2022,2031,2081,2085,2066,2028,2061
2030,2031,2041,2084,2091,2085,2030,2065
2044,2036,2044,2075,2094,2089,2039,2056
2043,2033,2031,2059,2097,2082,2029,2038
2042,2019,2011,2047,2107,2076,2023,2030
2029,1998,1986,2027,2097,2039,2022,2021
2026,1986,1979,2008,2030,1995,2036,2021
2031,1998,1999,2000,1960,1983,2024,2005
2033,2004,2004,1983,1875,1977,2018,1989
2030,2002,2010,1981,1888,1997,2020,1987
2032,2006,2019,1998,1926,2005,2027,2001
2035,2004,2010,2004,1940,2020,2036,2014
2036,2022,2015,2006,1973,2049,2032,2012
2043,2054,2030,2035,2014,2086,2042,2028
2053,2053,2026,2047,2052,2099,2049,2023
2072,2054,2028,2038,2051,2089,2036,2015
2074,2048,2034,2038,2034,2080,2058,2018
2070,2044,2047,2055,2059,2090,2067,2025
2070,2052,2063,2079,2138,2104,2072,2021
2071,2053,2074,2076,2146,2085,2042,2027
2047,2048,2058,2040,2089,2078,2050,2026
2044,2048,2053,2009,1999,2066,2039,2023
2043,2051,2049,2000,1965,2046,2022,2021
2041,2042,2050,2006,2022,2045,2013,2023
2042,2043,2062,2037,2158,2038,2046,2044
2052,2050,2069,2069,2203,2037,2056,2055
2051,2044,2066,2045,2139,2050,2061,2058
2043,2029,2049,2022,2066,2056,2043,2057
2039,2022,2038,2018,2090,2034,2045,2068
2041,2023,2047,2036,2148,2018,2042,2089
2057,2041,2061,2055,2141,2028,2058,2090
2057,2042,2068,2035,1996,2032,2043,2087
2050,2039,2060,1990,1851,2063,2050,2081
2047,2038,2040,2006,1922,2120,2060,2082
2053,2041,2052,2047,1990,2122,2052,2074
2051,2043,2059,2056,2025,2093,2043,2052
2049,2040,2058,2062,2076,2042,2050,2041
2043,2041,2067,2069,2105,2007,2048,2033
2045,2034,2067,2059,2102,2005,2028,2020
2037,2035,2067,2048,2119,2016,2017,2010
2035,2031,2057,2054,2159,2036,2025,2012
2027,2022,2050,2047,2114,2048,2040,2003
2031,2016,2033,2024,1980,2057,2048,2004
2033,2011,2022,2025,1969,2081,2069,1994
2039,2011,2015,2033,2027,2091,2062,1995
2038,2008,2003,2033,2034,2073,2056,1998
2041,2005,2009,2041,2089,2034,2064,2002
2040,1984,2004,2065,2150,2026,2064,1989
2022,1988,1993,2077,2197,2046,2060,1989
2026,2001,2006,2083,2226,2060,2058,1985
2033,2024,2017,2088,2217,2059,2055,1981
2042,2025,2016,2070,2043,2041,2049,1989
2044,2026,2010,2055,1957,2031,2053,1989
2046,2028,2006,2050,1992,2039,2044,2004
2045,2022,2005,2027,1947,2042,2047,2014
2043,2027,2018,2025,1918,2044,2047,2021
2053,2039,2050,2030,1944,2059,2056,2038
2055,2048,2049,2029,1962,2071,2050,2051
2058,2050,2049,2030,1926,2074,2067,2070
2063,2055,2055,2028,1954,2072,2049,2078
2075,2064,2071,2039,2062,2082,2062,2090
2081,2057,2079,2053,2118,2087,2062,2079
2068,2058,2092,2062,2127,2084,2068,2057
2051,2053,2093,2056,2113,2053,2050,2053
2040,2056,2104,2061,2080,2041,2057,2074
2053,2064,2105,2049,1952,2050,2071,2068
2047,2045,2089,2003,1908,2038,2050,2046
2035,2045,2082,2023,2067,2056,2040,2037
2048,2051,2082,2062,2083,2048,2061,2046
2042,2047,2073,2018,1979,1996,2045,2035
2053,2056,2071,2009,2007,1999,2055,2032
2052,2055,2072,2035,2102,2011,2055,2021
2049,2042,2060,2038,2089,2008,2045,2006
2041,2035,2050,2042,2113,2037,2056,1994
2036,2035,2052,2050,2126,2036,2055,1992
2038,2037,2052,2050,2109,2040,2036,1989
2042,2026,2045,2040,2095,2045,2024,1984
2045,2024,2038,2027,2071,2069,2036,1991
2041,2020,2027,2025,1963,2062,2035,1969
2030,2017,2031,2015,1884,2058,2033,1978
2050,2046,2060,2035,1955,2077,2061,1995
2069,2062,2079,2056,1990,2029,2033,2005
2062,2051,2080,2035,1954,2007,2033,2003
2053,2041,2067,2026,1924,2011,2043,2000
2045,2033,2058,2020,1898,2022,2030,1986
2023,2022,2046,2024,1929,2044,2037,1991
2026,2014,2034,2036,1987,2059,2048,1996
2028,2003,2029,2019,1966,2045,2047,2011
2040,2001,2026,2018,1968,2031,2057,2024
2043,2023,2043,2026,2006,2049,2051,2028
2047,2032,2046,2044,2046,2068,2038,2034
2036,2019,2041,2058,2174,2096,2057,2038
2038,2015,2035,2070,2354,2112,2070,2041
2038,2009,2034,2081,2340,2114,2082,2049
2050,2000,2024,2064,2223,2093,2055,2048
2036,1996,2022,2045,2127,2072,2060,2047
2035,2010,2030,2040,2090,2068,2051,2050
2032,2014,2037,2048,2083,2063,2061,2046
2032,2029,2047,2047,2099,2058,2068,2050
2039,2032,2045,2042,2119,2051,2058,2053
2063,2037,2050,2031,2053,2025,2038,2033
2064,2050,2061,2039,1996,2017,2017,2021
2060,2061,2062,2052,2012,2017,2030,2013
2058,2053,2044,2047,2026,2012,2017,2004
2055,2039,2039,2040,2034,2019,2015,1992
2051,2031,2028,2042,2040,2030,2023,1980
2021,2021,2020,2041,2041,2043,2044,1991
2021,2023,2030,2047,2036,2040,2050,2001
2040,2026,2020,2048,2036,2042,2038,1984
2044,2029,2026,2049,2038,2042,2034,1978
2047,2024,2016,2031,2011,2042,2030,1977
2040,2015,2013,2031,1996,2052,2038,1976
2039,2027,2016,2034,1992,2054,2037,1983
2039,2037,2017,2036,1981,2047,2033,1986
2048,2045,2016,2035,1994,2014,2035,1996
2050,2042,2018,2042,2055,1994,2043,2000
2046,2027,2006,2047,2110,2014,2026,2005
2040,2022,2014,2046,2115,2034,2051,2009
2048,2036,2030,2052,2109,2029,2038,2010
2046,2035,2029,2028,2093,2010,2020,2010
2045,2031,2031,2033,2079,2002,2003,2016
2038,2034,2044,2040,2078,2007,2008,2020
2036,2038,2045,2040,2090,2021,2040,2031
2040,2042,2046,2035,2090,2028,2050,2040
2041,2038,2043,2036,2088,2036,2049,2047
2040,2027,2046,2034,2058,2026,2036,2052
2043,2026,2050,2025,2027,2006,2028,2051
2044,2036,2065,2032,2021,2009,2011,2054
2049,2052,2073,2047,2026,2026,2037,2057
2045,2052,2078,2055,2037,2048,2053,2052
2050,2054,2083,2061,2051,2066,2048,2044
2047,2045,2080,2061,2050,2085,2041,2022
2039,2054,2079,2060,2053,2077,2044,2026
2048,2050,2088,2053,2058,2075,2055,2040
2053,2048,2091,2056,2056,2065,2051,2028
2058,2050,2093,2058,2056,2061,2039,2022
2062,2063,2095,2056,2063,2070,2046,2016
2064,2058,2098,2059,2061,2071,2052,2014
2057,2056,2094,2054,2060,2070,2038,2007
2049,2051,2089,2054,2056,2070,2042,1992
2050,2046,2087,2056,2054,2069,2042,1992
2046,2050,2083,2064,2060,2074,2054,1990
2047,2043,2075,2066,2061,2069,2051,1989
2042,2042,2076,2066,2061,2058,2045,1986
2044,2041,2088,2079,2063,2058,2041,1989
2044,2035,2085,2078,2057,2044,2036,1983
2038,2032,2081,2082,2058,2036,2045,1986
2041,2028,2079,2086,2069,2053,2044,1983
2040,2026,2071,2083,2075,2070,2059,1990
2043,2026,2073,2098,2078,2075,2060,1996
2041,2028,2072,2101,2077,2071,2028,2002
2039,2029,2072,2097,2074,2064,2050,2008
2033,2025,2061,2097,2071,2061,2040,2014
2033,2019,2049,2084,2065,2059,2040,2021
2032,2016,2032,2076,2062,2053,2037,2029
2024,2011,2023,2064,2060,2052,2029,2035
2020,2010,2015,2063,2063,2054,2031,2037
2026,2010,2004,2049,2053,2062,2039,2050
2024,2007,1994,2029,2029,2064,2028,2035
2017,1999,2001,2021,2011,2067,2013,2042
2029,2005,2024,2029,2008,2073,2026,2044
2038,2025,2041,2026,2009,2066,2040,2047
2038,2031,2044,2033,2030,2046,2037,2049
2044,2045,2057,2054,2072,2014,2021,2055
2058,2052,2066,2050,2092,2032,2029,2051
2062,2052,2057,2031,2096,2055,2053,2039
2049,2040,2032,2012,2111,2066,2042,2026
2051,2033,2024,2014,2128,2079,2053,2025
2058,2045,2030,2034,2152,2094,2066,2026
2059,2055,2049,2051,2158,2093,2079,2017
2058,2052,2061,2047,2127,2063,2052,2016
2060,2050,2066,2020,2040,2026,2040,2006
2050,2048,2060,2003,2005,2006,2030,2001
2051,2042,2041,1994,2024,2003,2022,1986
2032,2022,2025,1991,2037,1995,2009,1978
2029,2015,2023,1988,1996,2000,2020,1977
2039,2036,2031,1983,1963,2015,2042,1974
2041,2036,2024,1985,1995,2052,2047,1976
2043,2023,2011,1980,1978,2088,2054,1985
2044,2029,2030,2005,2003,2108,2053,1997
2049,2037,2050,2038,2090,2119,2070,2004
2047,2031,2057,2046,2136,2126,2072,2012
2052,2044,2064,2055,2134,2129,2076,2016
2055,2046,2072,2054,2104,2100,2060,2023
2050,2044,2066,2050,2085,2081,2051,2025
2041,2040,2062,2047,2039,2071,2055,2023
2037,2030,2058,2044,2002,2032,2047,2027
2037,2033,2051,2032,1983,1973,2056,2035
2036,2027,2043,2028,1976,1961,2053,2042
2036,2021,2039,2027,1981,1981,2069,2061
2042,2023,2041,2027,2000,2010,2058,2056
2039,2022,2031,2020,2015,2034,2052,2044
2037,2018,2028,2030,2053,2047,2045,2058
2036,2016,2026,2051,2107,2062,2055,2060
2042,2026,2023,2069,2124,2072,2056,2046
2035,2018,2009,2070,2132,2070,2044,2038
2042,2017,1995,2064,2040,2060,2050,2033
2036,2013,1992,2058,2030,2043,2044,2032
2039,2016,1989,2055,2047,2044,2061,2028
2042,2019,1987,2066,2059,2048,2052,2023
2041,2014,1984,2067,2055,2042,2026,2013
2039,2007,1990,2065,2096,2037,2035,2009
2028,2002,1988,2060,2119,2035,2048,2000
2027,1997,1983,2054,2105,2024,2030,1997
2027,1995,1978,2036,2061,2025,2045,1988
2032,1997,1983,2027,2005,2036,2016,1985
2034,2011,1997,2033,1984,2059,2030,1979
2036,2013,2001,2015,1948,2084,2023,1977
2033,2013,2001,2004,1965,2066,2016,1976
2035,2017,2006,2018,2060,2039,2032,1976
2035,2021,2026,2036,2089,2051,2026,1986
2036,2020,2046,2053,2084,2023,2043,2001
2044,2031,2070,2061,2058,2015,2072,2016
2047,2044,2083,2055,2027,2030,2068,2016
2048,2044,2070,2036,2018,2038,2068,2021
2049,2038,2072,2024,2067,2054,2069,2019
2039,2049,2093,2028,2003,2047,2056,2025
2052,2070,2128,2020,1893,2049,2047,2032
2061,2082,2140,2037,1983,2058,2046,2043
2064,2080,2130,2050,2099,2087,2064,2051
2059,2065,2111,2056,2162,2090,2077,2055
2050,2056,2090,2048,2173,2069,2053,2056
2037,2041,2076,2045,2174,2060,2041,2061
2032,2031,2059,2033,2157,2050,2025,2058
2024,2019,2055,2025,2127,2057,2017,2060
2032,2014,2050,2023,2096,2054,2027,2056
2028,2013,2047,2021,2055,2047,2016,2059
2028,2023,2048,2032,1999,2038,2008,2057
2035,2029,2048,2044,2018,2033,2013,2048
2039,2037,2059,2060,2079,2052,2023,2038
2038,2031,2052,2057,2136,2075,2046,2041
2043,2035,2061,2069,2140,2056,2047,2046
2056,2047,2065,2074,2143,2034,2036,2048
2058,2055,2070,2070,2101,2032,2034,2035
2059,2048,2053,2053,2078,2050,2028,2021
2042,2032,2039,2025,2019,2074,2026,2002
2043,2031,2037,2016,1993,2076,2034,1994
2043,2025,2029,2035,2048,2069,2018,1990
2030,2027,2030,2037,2056,2036,2024,1990
2031,2029,2036,2037,2020,2021,2031,1990
2038,2041,2039,2032,1990,2025,2016,1985
2035,2031,2026,2012,1945,2013,1985,1977
2019,2012,2006,1996,1906,1999,1984,1967
2011,2014,2012,2009,1929,1970,2011,1998
2041,2037,2047,2047,2018,1965,2035,2009
2051,2038,2048,2064,2083,2015,2068,2018
2053,2032,2036,2065,2110,2057,2075,2013
2047,2028,2026,2056,2132,2082,2061,2004
2037,2018,2026,2054,2130,2082,2053,2005
2036,2030,2035,2069,2136,2085,2046,2017
2044,2036,2053,2075,2112,2075,2026,2012
2032,2032,2054,2058,2079,2055,2053,2021
2028,2029,2050,2055,2067,2052,2033,2026
2034,2036,2059,2059,2070,2048,2047,2022
2052,2046,2072,2064,2073,2045,2040,2031
2049,2042,2057,2058,2054,2033,2043,2036
2033,2038,2039,2047,2041,2033,2050,2047
2034,2039,2036,2043,2034,2031,2045,2060
2030,2030,2038,2044,2040,2032,2046,2057
2020,2015,2030,2045,2049,2054,2052,2054
2019,2016,2026,2051,2056,2065,2046,2060
2026,2035,2039,2060,2060,2058,2042,2060
2038,2051,2051,2068,2059,2060,2042,2055
2046,2059,2055,2076,2077,2057,2043,2037
2042,2056,2051,2081,2097,2062,2039,2034
2042,2060,2057,2080,2128,2072,2048,2026
2045,2061,2047,2068,2109,2064,2055,2027
2047,2053,2046,2056,1990,2046,2047,2023
2049,2055,2069,2055,1911,2044,2058,2020
2045,2060,2094,2064,1917,2047,2046,2019
2051,2056,2097,2073,1934,2044,2048,2017
2051,2043,2093,2072,1936,2024,2035,2006
2051,2041,2081,2066,1909,2008,2023,2001
2046,2034,2057,2060,1926,2015,2040,2001
2038,2020,2041,2059,1944,2024,2052,2001
2042,2012,2022,2041,1997,2028,2035,1988
2031,2016,2023,2037,2067,2034,2038,1986
2046,2039,2033,2045,2075,2037,2039,1993
2048,2042,2032,2064,2107,2044,2030,2002
2053,2047,2025,2081,2135,2045,2059,2005
2046,2040,2015,2065,2114,2047,2053,2010
2052,2045,2020,2080,2143,2064,2031,2009
2055,2041,2016,2066,2146,2065,2056,2016
2058,2036,2007,2051,2105,2067,2050,2025
2062,2033,2003,2033,2101,2074,2056,2031
2059,2035,2007,2020,2080,2064,2072,2031
2051,2030,2016,1999,2056,2053,2066,2044
2045,2031,2038,1991,2056,2049,2049,2041
2047,2038,2067,2014,2070,2058,2053,2053
2049,2044,2073,2028,2073,2064,2037,2060
2057,2051,2080,2029,2080,2063,2059,2068
2054,2057,2094,2048,2079,2061,2053,2068
2046,2064,2113,2060,2067,2058,2042,2060
2044,2062,2122,2075,2060,2067,2049,2061
2047,2064,2116,2075,2054,2071,2043,2057
2044,2053,2091,2064,2043,2066,2055,2049
2036,2041,2068,2045,2044,2050,2016,2038
2038,2030,2052,2039,2025,2001,2026,2036
2045,2032,2059,2035,2022,1982,2015,2041
2039,2034,2052,2026,2024,1999,2021,2037
2052,2034,2045,2037,2062,2013,2029,2039
2052,2037,2045,2040,2068,2032,2035,2024
2048,2033,2037,2032,2065,2051,2059,2014
2043,2030,2032,2031,2073,2059,2062,2007
2041,2034,2034,2026,2068,2055,2057,2011
2047,2030,2036,2032,2067,2043,2039,2008
2053,2035,2032,2029,2083,2043,2016,2000
2041,2029,2031,2024,2093,2049,2040,1998
2042,2025,2028,2024,2094,2057,2044,1988
2037,2016,2016,2008,2075,2057,2030,1983
2026,2011,2012,2010,2047,2070,2045,1984
2030,2025,2019,2009,1991,2072,2032,1987
2033,2025,2015,2011,1969,2073,2026,1991
2037,2019,2008,2013,1960,2051,2025,1988
2032,2010,1995,2011,1964,2032,2037,1991
2035,2012,2002,2016,1978,2000,2032,2006
2047,2018,2013,2036,2068,2001,2046,2017
2040,2019,2020,2056,2141,2036,2044,2024
2040,2021,2028,2070,2151,2066,2072,2034
2053,2043,2041,2076,2135,2094,2104,2053
2070,2051,2039,2067,2102,2079,2093,2056
2067,2039,2026,2058,2070,2060,2069,2057
2056,2043,2022,2058,2039,2052,2077,2054
2036,2039,2030,2067,2017,2048,2060,2054
2034,2036,2036,2071,2053,2056,2061,2063
2043,2031,2043,2059,2042,2058,2049,2064
2040,2028,2033,2056,2040,2044,2038,2066
2031,2020,2032,2051,2030,2039,2046,2052
2030,2036,2047,2050,2029,2038,2050,2050
2046,2044,2053,2050,2046,2053,2042,2050
2059,2042,2055,2044,2025,2040,2048,2045
2051,2038,2059,2041,2061,2034,2051,2043
2038,2038,2064,2059,2109,2031,2042,2038
2043,2044,2074,2074,2158,2059,2043,2035
2040,2048,2088,2086,2164,2069,2060,2029
2044,2057,2085,2090,2173,2083,2052,2030
2044,2055,2087,2086,2188,2081,2045,2022
2045,2043,2077,2072,2190,2069,2032,2008
2035,2048,2076,2049,2185,2059,2052,2003
2043,2046,2068,2014,2042,2056,2046,1998
2048,2039,2045,2012,1889,2057,2051,1998
2046,2040,2043,2030,1874,2052,2045,1997
2042,2030,2029,2012,1877,2008,2031,1984
2034,2020,2015,1989,1873,2017,2027,1988
2036,2016,2005,1974,1882,2026,2008,1983
2042,2013,2003,1968,1904,2025,2029,1987
2043,2027,2026,1991,1967,2047,2040,1993
2044,2029,2034,2005,1970,2042,2036,2001
2040,2031,2040,2015,2006,2025,2033,2016
2053,2043,2056,2059,2075,2037,2043,2036
2067,2052,2068,2076,2089,2036,2044,2031
2059,2051,2060,2061,2071,2038,2042,2030
2057,2041,2049,2059,2059,2042,2042,2032
2052,2034,2031,2044,2022,2033,2032,2028
2045,2033,2034,2049,2032,2041,2041,2047
2054,2040,2040,2064,2062,2053,2046,2058
2045,2033,2040,2069,2085,2051,2031,2054
2038,2032,2044,2074,2096,2045,2038,2060
2052,2038,2043,2072,2088,2040,2021,2065
2043,2031,2037,2055,2069,2031,2038,2061
2034,2020,2026,2037,2073,2040,2031,2059
2034,2024,2028,2046,2068,2053,2057,2057
2031,2021,2030,2045,2079,2067,2055,2051
2037,2026,2030,2046,2104,2099,2064,2038
2036,2028,2032,2038,2104,2136,2072,2039
2041,2028,2032,2027,2083,2157,2078,2033
2038,2022,2030,2017,2076,2159,2098,2034
2057,2024,2030,2016,2078,2111,2076,2037
2055,2022,2039,2035,2093,2038,2062,2043
2060,2040,2066,2064,2108,1988,2076,2051
2072,2051,2081,2075,2066,2025,2085,2036
2069,2051,2076,2061,1982,2038,2071,2024
2060,2053,2067,2060,1992,2050,2067,2016
2057,2040,2054,2059,2015,2038,2058,2002
2050,2037,2052,2060,2034,1995,2042,1995
2047,2040,2048,2048,2006,1986,2026,1984
2039,2018,2024,2038,2004,2018,2048,1982
2037,2007,2019,2040,2013,2040,2047,1989
2047,2011,2017,2046,2029,2039,2036,1989
2044,2011,2020,2051,2053,2043,2034,1996
2049,2016,2020,2061,2063,2045,2051,2000
2051,2017,2028,2061,2062,2043,2048,2004
2052,2020,2033,2056,2055,2040,2037,2007
2054,2022,2033,2053,2051,2033,2041,2012
2050,2025,2024,2042,2051,2037,2025,2012
2039,2024,2020,2043,2045,2033,2044,2014
2036,2021,2016,2040,2045,2037,2057,2030
2040,2016,2009,2037,2047,2041,2036,2042
2036,2018,2019,2040,2052,2041,2050,2048
2046,2023,2021,2035,2042,2042,2053,2050
2046,2034,2025,2034,2025,2036,2047,2057
2044,2035,2015,2022,2009,2040,2050,2054
2036,2027,2009,2014,2000,2039,2036,2052
2037,2026,2018,2014,2016,2046,2046,2051
2038,2030,2031,2023,2028,2057,2047,2058
2038,2037,2022,2019,2017,2058,2043,2063
2040,2037,2013,2008,2015,2067,2025,2054
2041,2043,2019,2007,2037,2066,2040,2043
2037,2044,2024,2013,2034,2056,2033,2038
2039,2043,2036,2016,2014,2036,2036,2028
2044,2042,2052,2038,2077,2028,2035,2029
2046,2044,2073,2065,2084,2003,2031,2023
2043,2045,2080,2070,2090,2031,2034,2026
2046,2057,2086,2107,2152,2065,2050,2031
2054,2058,2097,2129,2181,2083,2054,2022
2058,2059,2088,2125,2177,2096,2052,2014
2064,2053,2072,2116,2164,2114,2049,2009
2048,2050,2065,2095,2096,2092,2021,2006
2056,2054,2061,2064,1926,2036,2038,2002
2054,2044,2050,2028,1859,2015,2038,2004
2045,2045,2048,2018,1913,2004,2022,2001
2044,2053,2054,2023,1935,2005,2034,2001
2046,2052,2054,2040,1955,2017,2040,2015
2053,2053,2050,2043,2014,2050,2038,2023
2050,2048,2051,2047,2116,2069,2058,2018
2039,2042,2048,2048,2151,2068,2065,2012
2037,2041,2043,2043,2120,2060,2055,2027
2046,2045,2044,2042,2075,2050,2047,2037
2041,2046,2046,2029,2073,2053,2050,2042
2040,2041,2041,2021,2071,2054,2042,2045
2040,2036,2044,2022,2066,2053,2046,2052
2046,2049,2046,2040,2067,2054,2059,2063
2046,2049,2057,2045,2057,2052,2055,2062
2043,2046,2061,2041,2054,2049,2033,2066
2041,2041,2063,2045,2049,2041,2041,2079
2044,2044,2063,2046,2041,2040,2048,2072
2040,2030,2053,2044,2041,2047,2034,2076
2036,2029,2042,2039,2045,2065,2065,2074
2043,2033,2058,2035,2047,2067,2068,2071
2042,2029,2072,2047,2040,2053,2050,2063
2042,2034,2088,2065,2044,2047,2045,2057
2040,2033,2089,2063,2041,2043,2038,2040
2037,2029,2079,2065,2031,2036,2024,2037
2041,2028,2075,2068,2027,2031,2018,2029
2040,2031,2073,2071,2041,2037,2033,2031
2039,2037,2074,2065,2048,2051,2030,2019
2045,2034,2061,2067,2054,2047,2029,2012
2046,2036,2056,2067,2062,2050,2060,2020
2045,2033,2050,2067,2059,2056,2049,2016
2039,2026,2030,2054,2072,2061,2043,2008
2042,2024,2028,2045,2072,2067,2052,1998
2043,2022,2016,2045,2069,2060,2043,1994
2041,2019,2001,2026,2053,2050,2032,1996
2037,2009,1992,2009,2042,2046,2026,1992
2042,2010,1994,2010,2043,2067,2052,2001
2047,2024,2012,2013,2040,2078,2053,2005
2046,2030,2012,2021,2013,2064,2050,2011
2043,2030,2010,2017,1992,2055,2038,2016
2050,2028,2009,2016,1961,2059,2046,2018
2056,2026,2018,2037,1960,2060,2063,2028
2067,2035,2039,2066,2020,2055,2059,2030
2062,2038,2043,2070,2043,2051,2049,2029
2049,2029,2044,2061,2035,2041,2061,2027
2040,2023,2031,2038,1952,2015,2025,2036
2046,2026,2036,2049,1941,2030,2042,2045
2051,2028,2039,2078,1986,2063,2054,2052
2054,2022,2038,2070,1995,2062,2043,2053
2042,2021,2029,2065,1967,2025,2027,2062
2038,2027,2021,2062,1958,2036,2026,2054
2036,2021,2001,2058,1972,2021,2032,2050
2026,2020,2007,2050,1984,1978,2030,2070
2040,2035,2021,2051,2038,2003,2045,2086
2044,2039,2026,2042,2070,2023,2046,2076
2042,2025,2006,2013,2121,2038,2044,2063
2041,2022,2001,2018,2181,2044,2038,2057
2044,2033,2024,2026,2161,2046,2038,2057
2052,2046,2053,2022,2115,2036,2027,2039
2053,2061,2074,2009,2072,2026,2054,2030
2050,2053,2079,2010,2056,2033,2030,2026
2047,2035,2071,2015,2055,2039,2034,2017
2045,2028,2070,2018,2057,2047,2036,2014
2052,2035,2065,2012,2039,2045,2029,2021
2055,2046,2079,2022,2049,2049,2046,2010
2053,2053,2086,2042,2081,2057,2054,2015
2050,2052,2086,2040,2069,2057,2049,2011
2061,2053,2079,2040,2050,2061,2056,2014
2052,2047,2068,2032,2038,2056,2039,2009
2053,2049,2064,2031,2050,2057,2062,2014
2059,2055,2072,2045,2094,2076,2076,2019
2062,2059,2072,2045,2091,2073,2082,2019
2062,2056,2069,2032,2055,2041,2082,2020
2055,2045,2063,2016,2023,2022,2076,2018
2055,2043,2058,2018,1978,2015,2055,2026
2056,2038,2062,2021,1980,2026,2066,2037
2056,2038,2057,2031,2010,2041,2042,2039
2052,2037,2054,2034,2048,2052,2045,2043
2052,2039,2049,2045,2086,2064,2028,2053
2049,2041,2058,2052,2091,2065,2057,2059
2056,2044,2052,2057,2088,2068,2036,2069
2056,2040,2055,2059,2086,2076,2041,2077
2060,2041,2054,2062,2076,2083,2055,2074
2060,2044,2056,2065,2076,2081,2085,2084
2055,2042,2056,2057,2065,2068,2076,2071
2046,2026,2046,2053,2052,2060,2058,2068
2038,2031,2048,2048,2056,2050,2052,2068
2048,2041,2047,2046,2047,2033,2034,2059
2038,2041,2046,2043,2039,2017,2023,2058
2034,2037,2046,2046,2039,2026,2033,2061
2042,2045,2049,2049,2042,2034,2047,2056
2050,2042,2050,2059,2049,2038,2039,2045
2047,2044,2048,2063,2053,2045,2051,2037
2053,2039,2046,2063,2053,2053,2048,2038
2055,2036,2048,2067,2047,2047,2061,2034
2051,2043,2050,2067,2055,2043,2062,2030
2046,2035,2053,2069,2049,2040,2046,2024
2040,2027,2041,2068,2044,2038,2049,2006
2036,2024,2040,2055,2041,2048,2036,2016
2044,2023,2039,2049,2039,2052,2052,2003
2036,2021,2029,2043,2048,2052,2064,2007
2039,2011,2016,2043,2080,2059,2056,2008
2032,2005,2000,2034,2109,2064,2028,2001
2027,1999,1998,2035,2114,2066,2071,2012
2038,2016,2002,2035,2123,2064,2069,2025
2047,2033,2006,2038,2118,2063,2075,2012
2050,2039,2014,2033,2102,2059,2056,2006
2055,2042,2021,2026,2083,2063,2066,2016
2066,2047,2029,2030,2070,2064,2057,2019
2062,2047,2032,2021,1968,2042,2057,2020
2052,2036,2018,2009,1917,2030,2028,2027
2055,2035,2015,2016,1968,2040,2035,2033
2051,2033,2023,2024,2018,2048,2060,2043
2045,2029,2031,2028,2046,2049,2033,2050
2040,2032,2050,2038,2049,2043,2059,2052
2033,2046,2060,2039,2037,2041,2048,2068
2047,2051,2070,2039,2033,2042,2044,2082
2058,2056,2069,2040,2025,2042,2048,2085
