CH1,CH2,CH3,CH4,CH5,CH6,CH7,CH8
2056,2069,2068,2050,2064,2080,2053,2039
2058,2068,2074,2050,2070,2073,2056,2042
2054,2060,2073,2062,2067,2056,2057,2044
2048,2059,2078,2054,2060,2033,2054,2052
2043,2056,2067,2060,2057,2017,2054,2054
2052,2063,2068,2056,2068,2008,2059,2063
2045,2060,2064,2051,2068,2007,2059,2072
2053,2056,2067,2056,2064,2016,2049,2077
2057,2060,2068,2060,2060,2019,2050,2081
2059,2058,2065,2059,2054,2029,2053,2082
2051,2056,2061,2061,2051,2039,2047,2084
2040,2050,2055,2053,2044,2046,2025,2087
2036,2032,2044,2044,2035,2048,2027,2086
2032,2026,2038,2035,2032,2037,2038,2083
2039,2041,2048,2044,2041,2047,2047,2073
2044,2052,2061,2050,2044,2048,2047,2068
2045,2054,2065,2058,2047,2043,2048,2069
2043,2050,2062,2050,2056,2036,2038,2060
2039,2052,2061,2052,2045,2028,2028,2058
2043,2058,2063,2053,2050,2028,2036,2045
2051,2058,2063,2049,2046,2022,2029,2044
2047,2052,2057,2048,2042,2024,2029,2036
2042,2043,2047,2043,2037,2024,2026,2033
2038,2036,2038,2043,2042,2027,2046,2029
2043,2042,2034,2044,2049,2035,2049,2033
2050,2040,2039,2048,2051,2037,2046,2035
2051,2043,2037,2047,2059,2039,2031,2043
2051,2043,2041,2047,2051,2037,2019,2034
2047,2032,2027,2035,2034,2018,2022,2018
2037,2025,2025,2032,2026,2008,2011,2010
2035,2039,2036,2048,2037,2023,2030,2022
2044,2047,2041,2048,2035,2025,2039,2033
2045,2041,2042,2051,2040,2031,2039,2037
2046,2049,2052,2053,2034,2038,2046,2037
2052,2054,2047,2056,2039,2048,2049,2044
2051,2054,2056,2049,2049,2056,2064,2051
2053,2060,2050,2053,2052,2062,2065,2063
2057,2049,2050,2050,2055,2062,2066,2062
2050,2042,2044,2050,2047,2063,2070,2074
2049,2042,2041,2053,2043,2053,2057,2067
2048,2045,2045,2063,2051,2055,2055,2069
2049,2048,2042,2073,2053,2050,2064,2077
2048,2038,2035,2062,2059,2052,2043,2082
2043,2032,2026,2068,2055,2054,2038,2084
2034,2027,2022,2068,2048,2047,2043,2076
2023,2024,2030,2073,2056,2052,2073,2082
2040,2041,2048,2084,2068,2067,2067,2088
2048,2046,2052,2083,2068,2073,2064,2084
2055,2051,2060,2084,2063,2071,2060,2073
2052,2053,2057,2076,2053,2068,2063,2070
2051,2046,2053,2077,2045,2063,2050,2064
2050,2049,2056,2067,2042,2064,2033,2049
2049,2048,2050,2050,2046,2072,2054,2043
2046,2039,2039,2050,2049,2076,2054,2029
2048,2042,2047,2042,2045,2080,2057,2028
2049,2047,2061,2049,2047,2060,2068,2028
2049,2043,2069,2046,2040,2030,2065,2016
2043,2042,2069,2044,2038,2026,2043,2019
2049,2047,2074,2040,2027,2015,2034,2014
2050,2056,2073,2055,2038,2011,2038,2008
2044,2045,2062,2036,2022,2000,2029,2002
2032,2032,2046,2036,2034,2008,2039,2007
2034,2039,2050,2034,2048,2022,2057,2020
2048,2052,2062,2041,2050,2024,2056,2022
2047,2048,2059,2051,2050,2019,2060,2025
2044,2039,2046,2048,2042,2028,2060,2028
2044,2039,2045,2045,2045,2037,2071,2038
2053,2050,2049,2045,2058,2045,2060,2047
2051,2058,2048,2038,2055,2046,2060,2053
2056,2061,2041,2036,2042,2042,2072,2063
2054,2057,2046,2034,2054,2049,2062,2061
2049,2058,2042,2032,2054,2054,2078,2062
2048,2054,2042,2032,2054,2051,2065,2078
2048,2061,2051,2042,2053,2044,2066,2080
2049,2059,2049,2047,2050,2045,2073,2080
2045,2058,2054,2052,2058,2038,2061,2085
2052,2058,2052,2050,2051,2036,2052,2082
2045,2044,2039,2038,2045,2044,2038,2086
2036,2047,2044,2048,2039,2052,2058,2084
2054,2058,2061,2054,2042,2055,2056,2079
2057,2062,2047,2053,2054,2058,2050,2077
2049,2062,2052,2048,2052,2062,2036,2072
2051,2060,2047,2046,2055,2068,2045,2065
2052,2062,2054,2049,2059,2058,2034,2060
2054,2052,2038,2046,2048,2057,2039,2055
2053,2054,2045,2051,2055,2064,2059,2051
2054,2049,2050,2051,2054,2062,2046,2042
2054,2046,2047,2048,2050,2066,2048,2034
2051,2047,2054,2052,2046,2068,2063,2033
2054,2050,2062,2056,2054,2078,2072,2034
2043,2045,2059,2057,2050,2073,2059,2028
2041,2047,2057,2053,2049,2057,2045,2030
2041,2051,2047,2047,2047,2057,2061,2024
2037,2038,2042,2044,2044,2055,2057,2019
2037,2041,2039,2041,2043,2058,2061,2023
2044,2047,2049,2056,2050,2061,2059,2032
2045,2050,2048,2055,2049,2055,2062,2029
2043,2051,2051,2055,2054,2053,2067,2034
2044,2054,2047,2054,2051,2043,2066,2038
2044,2046,2045,2049,2050,2045,2066,2045
2050,2045,2039,2050,2057,2045,2065,2051
2052,2048,2047,2057,2055,2045,2075,2051
2058,2048,2036,2059,2044,2016,2061,2054
2049,2043,2040,2051,2057,1999,2055,2064
2053,2043,2035,2052,2048,1998,2034,2067
2053,2040,2029,2048,2049,2010,2046,2076
2050,2043,2033,2053,2051,2025,2048,2073
2048,2050,2042,2059,2058,2044,2046,2076
2048,2051,2044,2061,2061,2051,2045,2082
2048,2047,2034,2050,2049,2051,2053,2075
2040,2032,2029,2055,2056,2067,2054,2080
2042,2047,2034,2064,2068,2102,2047,2081
2046,2044,2029,2060,2067,2114,2054,2073
2042,2042,2031,2057,2058,2111,2067,2073
2047,2046,2031,2055,2056,2108,2069,2066
2047,2046,2041,2055,2058,2102,2073,2059
2051,2051,2039,2052,2050,2096,2064,2050
2055,2053,2052,2050,2050,2100,2073,2045
2047,2056,2066,2057,2053,2088,2056,2033
2054,2062,2078,2060,2049,2030,2053,2032
2048,2059,2078,2068,2049,2022,2029,2020
2051,2051,2075,2060,2050,2047,2048,2019
2037,2045,2068,2055,2049,2041,2024,2016
2043,2048,2060,2059,2053,2016,2021,2025
2047,2053,2060,2059,2055,2000,2025,2023
2049,2039,2054,2051,2039,1993,2014,2015
2031,2034,2055,2052,2040,1996,2041,2015
2037,2050,2075,2065,2057,2027,2053,2022
2044,2048,2080,2071,2056,2044,2034,2029
2041,2047,2080,2073,2061,2056,2033,2032
2039,2041,2068,2071,2058,2058,2047,2022
2040,2035,2062,2065,2062,2050,2046,2034
2038,2045,2063,2062,2063,2043,2049,2039
2045,2053,2063,2061,2045,2046,2054,2050
2045,2056,2059,2063,2043,2046,2055,2050
2053,2055,2060,2064,2047,2057,2041,2060
2048,2056,2060,2069,2053,2062,2033,2060
2044,2049,2054,2063,2050,2055,2055,2069
2040,2050,2055,2060,2051,2064,2051,2076
2045,2052,2052,2064,2049,2064,2061,2077
2045,2053,2056,2062,2043,2057,2047,2072
2034,2034,2035,2042,2023,2046,2037,2068
2032,2029,2034,2042,2034,2047,2041,2074
2045,2037,2053,2067,2046,2048,2043,2069
2046,2039,2068,2076,2044,2047,2051,2066
2046,2038,2062,2076,2040,2047,2043,2061
2045,2040,2061,2076,2042,2047,2049,2058
2048,2047,2049,2066,2040,2051,2051,2048
2054,2040,2041,2063,2044,2044,2048,2035
2050,2039,2031,2059,2039,2045,2050,2021
2039,2027,2020,2054,2038,2044,2041,2021
2036,2028,2010,2063,2045,2042,2041,2018
2032,2030,2000,2061,2052,2034,2053,2012
2030,2031,2009,2066,2052,2046,2045,2016
2040,2029,2000,2051,2048,2046,2022,2014
2033,2029,1996,2040,2053,2047,2019,2007
2035,2031,2002,2025,2038,2042,2008,2000
2020,2024,1998,2007,2025,2029,2013,1999
2030,2030,2022,2010,2028,2037,2033,2012
2044,2054,2051,2014,2035,2048,2060,2024
2054,2055,2057,2012,2040,2052,2038,2029
2047,2058,2055,2023,2052,2055,2042,2031
2043,2058,2046,2036,2053,2064,2055,2035
2046,2051,2042,2049,2054,2063,2046,2046
2051,2055,2049,2038,2050,2067,2054,2047
2053,2059,2054,2026,2046,2064,2051,2055
2051,2064,2069,2027,2040,2056,2053,2061
2052,2057,2075,2020,2033,2056,2036,2061
2045,2066,2085,2024,2041,2057,2047,2064
2050,2061,2089,2030,2040,2054,2028,2065
2045,2066,2081,2028,2028,2047,2045,2065
2046,2056,2077,2032,2036,2044,2038,2072
2046,2057,2070,2033,2034,2042,2017,2070
2037,2051,2057,2031,2022,2036,2017,2071
2034,2045,2052,2024,2028,2040,2030,2073
2046,2057,2055,2034,2036,2042,2028,2069
2045,2062,2052,2041,2037,2044,2028,2066
2046,2054,2048,2048,2031,2041,2044,2067
2050,2056,2044,2052,2044,2044,2032,2062
2050,2056,2044,2059,2056,2052,2041,2061
2051,2060,2040,2054,2056,2048,2031,2045
2051,2050,2037,2057,2056,2045,2039,2042
2046,2057,2032,2059,2061,2045,2032,2031
2046,2054,2035,2063,2069,2047,2041,2029
2052,2058,2042,2073,2080,2050,2036,2027
2051,2058,2045,2078,2074,2050,2035,2028
2052,2058,2060,2087,2077,2040,2037,2022
2050,2061,2071,2086,2072,2042,2026,2020
2047,2059,2084,2086,2063,2044,2025,2007
2042,2042,2068,2070,2052,2039,2014,2012
2040,2037,2058,2064,2052,2043,2038,2018
2049,2053,2072,2074,2062,2058,2045,2030
2046,2053,2075,2076,2059,2065,2050,2031
2052,2056,2076,2072,2060,2061,2048,2031
2045,2055,2069,2077,2066,2055,2031,2031
2054,2060,2067,2071,2064,2053,2046,2040
2049,2064,2075,2072,2056,2053,2044,2042
2052,2060,2075,2075,2060,2053,2038,2039
2047,2060,2078,2073,2064,2049,2036,2047
2048,2063,2078,2063,2066,2055,2036,2056
2045,2065,2073,2048,2058,2049,2038,2061
2042,2059,2067,2031,2054,2051,2045,2062
2046,2060,2067,2030,2050,2048,2052,2074
2046,2055,2059,2028,2049,2045,2045,2075
2046,2053,2055,2023,2049,2050,2035,2077
2037,2041,2041,2017,2044,2040,2028,2072
2036,2036,2041,2025,2042,2043,2037,2083
2044,2052,2056,2034,2047,2053,2054,2081
2050,2058,2060,2047,2052,2056,2053,2076
2052,2058,2053,2047,2048,2056,2062,2071
2050,2055,2052,2044,2035,2056,2045,2060
2048,2051,2040,2036,2044,2064,2037,2062
2052,2054,2032,2022,2040,2058,2026,2054
2052,2065,2036,2023,2040,2056,2052,2046
2058,2070,2041,2027,2046,2060,2070,2043
2068,2074,2049,2033,2056,2064,2065,2042
2065,2074,2050,2041,2065,2071,2053,2040
2062,2072,2038,2034,2063,2068,2056,2040
2061,2061,2022,2030,2060,2067,2045,2023
2056,2055,2016,2033,2054,2052,2044,2012
2048,2046,2008,2031,2049,2048,2018,2012
2036,2037,2005,2020,2051,2050,1997,2007
2033,2037,2000,2023,2050,2057,2026,2017
2039,2048,2016,2035,2061,2068,2031,2019
2047,2050,2021,2044,2054,2070,2043,2031
2043,2049,2017,2039,2049,2063,2050,2038
2045,2045,2017,2027,2037,2066,2060,2046
2042,2040,2022,2030,2044,2069,2071,2051
2053,2046,2018,2035,2046,2064,2070,2058
2053,2049,2025,2042,2052,2045,2062,2063
2049,2052,2027,2047,2040,2022,2058,2057
2042,2041,2026,2044,2041,2009,2039,2065
2038,2044,2026,2040,2043,2008,2020,2062
2038,2041,2030,2043,2042,2004,2039,2067
2036,2042,2037,2038,2042,1996,2040,2070
2035,2045,2048,2046,2041,2018,2029,2067
2039,2051,2069,2059,2047,2039,2036,2070
2046,2052,2074,2056,2043,2054,2033,2063
2044,2053,2065,2057,2044,2051,2049,2071
2046,2055,2065,2056,2048,2060,2045,2076
2055,2064,2060,2050,2052,2051,2049,2077
2053,2065,2062,2054,2056,2055,2050,2072
2051,2059,2049,2049,2045,2050,2051,2061
2042,2054,2042,2046,2041,2046,2059,2054
2045,2058,2040,2046,2043,2041,2045,2049
2050,2070,2052,2052,2044,2047,2041,2042
2048,2074,2055,2056,2047,2040,2040,2034
2054,2065,2044,2056,2047,2038,2041,2032
2050,2059,2043,2054,2042,2041,2031,2031
2054,2054,2044,2057,2050,2045,2042,2024
2050,2055,2056,2062,2045,2040,2040,2032
2046,2052,2059,2059,2041,2043,2044,2029
2044,2048,2069,2054,2042,2038,2052,2020
2041,2035,2069,2046,2027,2034,2041,2004
2018,2023,2057,2045,2026,2044,2039,1999
2018,2029,2068,2062,2047,2059,2043,2007
2035,2044,2069,2066,2042,2062,2056,2007
2032,2045,2055,2061,2045,2065,2064,2017
2037,2039,2052,2059,2047,2070,2066,2024
2039,2041,2049,2051,2052,2074,2074,2037
2039,2048,2052,2058,2054,2075,2087,2050
2040,2052,2058,2055,2062,2073,2073,2058
2044,2054,2065,2055,2062,2070,2078,2065
2045,2059,2066,2046,2057,2065,2065,2060
2042,2056,2063,2032,2055,2058,2062,2072
2043,2058,2057,2025,2052,2060,2061,2085
2041,2055,2046,2025,2052,2062,2055,2084
2038,2051,2035,2021,2044,2058,2061,2086
2037,2054,2042,2024,2049,2063,2060,2090
2042,2059,2041,2032,2033,2062,2052,2078
2029,2046,2028,2029,2031,2056,2059,2081
2031,2047,2040,2028,2036,2055,2053,2084
2040,2056,2051,2038,2031,2042,2049,2085
2050,2060,2055,2041,2040,2041,2055,2089
2052,2065,2066,2048,2037,2040,2051,2069
2050,2064,2061,2047,2043,2031,2048,2067
2056,2064,2061,2046,2044,2024,2047,2059
2052,2060,2057,2044,2042,2022,2050,2059
2050,2056,2050,2044,2040,2026,2063,2045
2044,2053,2047,2038,2042,2032,2052,2034
2052,2052,2046,2040,2050,2048,2036,2035
2048,2057,2052,2048,2052,2052,2046,2036
2053,2061,2057,2047,2044,2049,2029,2028
2051,2057,2059,2044,2047,2049,2036,2017
2050,2054,2059,2047,2053,2057,2044,2022
2059,2057,2052,2045,2055,2057,2019,2017
2039,2041,2034,2031,2041,2031,2005,2019
2035,2036,2032,2032,2040,2023,2025,2024
2051,2047,2043,2041,2057,2044,2016,2032
2049,2048,2046,2049,2065,2058,2056,2037
2047,2056,2043,2055,2073,2059,2055,2043
2049,2052,2043,2052,2070,2048,2039,2052
2047,2049,2041,2046,2064,2053,2044,2046
2055,2047,2038,2050,2074,2053,2044,2050
2054,2050,2044,2054,2066,2052,2059,2050
2054,2054,2045,2054,2071,2063,2043,2058
2050,2051,2039,2048,2068,2063,2036,2061
2041,2039,2032,2047,2066,2062,2047,2067
2039,2032,2030,2037,2061,2065,2063,2073
2039,2041,2043,2051,2065,2072,2044,2074
2043,2045,2044,2050,2065,2091,2043,2084
2046,2046,2043,2048,2065,2105,2056,2086
2040,2041,2033,2043,2062,2103,2047,2075
2035,2037,2035,2039,2061,2084,2045,2077
2037,2037,2031,2044,2050,2052,2050,2079
2038,2038,2050,2051,2036,2031,2061,2070
2040,2034,2047,2050,2026,1981,2033,2064
2030,2028,2053,2050,2016,1971,2025,2051
2034,2034,2059,2053,2024,1998,2016,2044
2033,2040,2059,2055,2023,2021,2033,2038
2033,2037,2051,2058,2028,2035,2036,2043
2038,2042,2053,2063,2046,2052,2045,2033
2037,2043,2051,2064,2044,2056,2036,2027
2038,2048,2050,2066,2046,2056,2022,2027
2036,2050,2045,2066,2047,2049,2027,2030
2043,2049,2037,2059,2050,2052,2042,2024
2040,2046,2028,2052,2043,2061,2038,2029
2043,2034,2019,2041,2047,2061,2052,2023
2045,2034,2012,2026,2036,2048,2028,2018
2041,2026,1998,2021,2037,2034,2035,2021
2037,2036,2003,2024,2054,2035,2038,2036
2045,2045,2014,2024,2062,2034,2027,2043
2049,2055,2014,2024,2066,2022,2030,2043
2052,2057,2033,2032,2069,2016,2017,2047
2052,2055,2040,2033,2071,2031,2027,2046
2053,2048,2034,2034,2068,2049,2048,2056
2055,2042,2034,2044,2065,2051,2054,2057
2042,2041,2024,2050,2061,2052,2044,2059
2047,2030,2020,2052,2061,2063,2037,2059
2039,2026,2018,2059,2058,2059,2049,2062
2039,2031,2012,2062,2057,2046,2061,2070
2033,2035,2016,2066,2048,2038,2032,2077
2034,2044,2025,2062,2056,2038,2033,2082
2040,2042,2036,2060,2048,2033,2044,2081
2036,2038,2033,2046,2043,2019,1997,2078
2019,2026,2032,2029,2030,2011,2006,2083
2025,2025,2037,2035,2034,2019,2033,2087
2046,2049,2066,2045,2043,2029,2028,2089
2047,2063,2082,2053,2051,2034,2052,2086
2058,2071,2091,2040,2048,2033,2038,2077
2055,2073,2090,2024,2046,2029,2040,2079
2063,2074,2079,2022,2036,2028,2054,2069
2066,2077,2090,2031,2041,2038,2036,2072
2063,2078,2095,2040,2040,2044,2053,2059
2060,2084,2096,2045,2046,2047,2061,2054
2064,2077,2088,2049,2048,2047,2043,2050
2066,2073,2082,2042,2050,2051,2052,2041
2058,2063,2074,2046,2042,2045,2046,2033
2043,2051,2063,2044,2035,2046,2049,2034
2049,2057,2070,2050,2041,2051,2047,2030
2058,2064,2071,2045,2028,2048,2033,2022
2051,2057,2066,2039,2029,2052,2046,2018
2050,2050,2062,2043,2038,2060,2049,2029
2057,2058,2066,2046,2037,2052,2044,2027
2056,2056,2058,2039,2041,2053,2032,2037
2047,2058,2063,2043,2047,2050,2041,2040
2040,2058,2058,2043,2054,2060,2056,2044
2052,2065,2061,2051,2066,2061,2049,2053
2054,2070,2060,2057,2062,2062,2053,2052
2050,2063,2058,2053,2058,2064,2055,2058
2049,2061,2054,2056,2068,2062,2042,2069
2059,2057,2046,2053,2058,2053,2050,2072
2051,2050,2037,2054,2053,2057,2050,2080
2051,2045,2033,2044,2059,2055,2049,2082
2047,2050,2039,2047,2054,2046,2055,2086
2047,2052,2041,2052,2049,2050,2051,2092
2046,2047,2042,2048,2039,2045,2033,2078
2033,2034,2035,2048,2038,2051,2036,2076
2035,2037,2044,2054,2051,2062,2060,2084
2039,2053,2054,2066,2046,2069,2060,2081
2043,2051,2050,2068,2051,2066,2067,2085
2047,2050,2054,2068,2049,2053,2034,2070
2049,2055,2049,2075,2041,2048,2055,2057
2050,2058,2056,2078,2044,2053,2053,2047
2053,2055,2060,2080,2046,2060,2054,2040
2050,2050,2058,2075,2044,2066,2023,2038
2041,2048,2054,2064,2041,2069,2038,2033
2045,2046,2057,2068,2060,2070,2041,2036
2052,2054,2058,2078,2062,2068,2058,2036
2054,2051,2054,2076,2064,2062,2049,2025
2051,2047,2035,2069,2053,2032,2031,2016
2051,2041,2025,2054,2041,2005,2023,2015
2048,2037,2012,2034,2033,2001,2006,2009
2038,2025,2006,2028,2032,2018,2020,2010
2035,2028,2007,2027,2041,2036,2039,2022
2044,2047,2014,2028,2046,2046,2033,2024
2047,2042,2000,2028,2043,2049,2047,2028
2048,2038,1997,2026,2051,2061,2042,2027
2044,2041,1992,2038,2065,2067,2047,2031
2047,2051,2003,2032,2063,2074,2052,2041
2053,2051,2013,2037,2063,2065,2062,2056
2051,2053,2018,2033,2051,2063,2054,2056
2052,2047,2019,2035,2052,2054,2051,2059
2051,2045,2030,2038,2049,2052,2056,2064
2052,2046,2045,2046,2054,2052,2059,2073
2049,2049,2055,2058,2056,2054,2036,2072
2052,2048,2055,2052,2062,2050,2028,2074
2056,2044,2061,2051,2055,2049,2041,2077
2054,2047,2058,2045,2049,2036,2041,2065
2042,2034,2047,2047,2038,2029,2014,2074
2048,2038,2052,2057,2044,2042,2036,2076
2051,2049,2069,2068,2052,2044,2048,2072
2051,2051,2064,2074,2053,2049,2055,2063
2052,2051,2064,2075,2047,2045,2049,2058
2056,2051,2057,2074,2048,2049,2041,2054
2054,2043,2054,2069,2049,2044,2039,2046
2056,2050,2053,2078,2043,2050,2040,2036
2053,2055,2061,2081,2046,2041,2047,2034
2055,2052,2064,2084,2044,2041,2032,2031
2049,2057,2075,2080,2038,2045,2050,2032
2060,2059,2073,2071,2030,2044,2048,2024
2057,2062,2067,2066,2029,2044,2056,2025
2053,2064,2064,2058,2018,2045,2043,2021
2047,2060,2063,2043,2020,2042,2032,2019
2049,2050,2046,2017,2010,2032,2021,2010
2036,2037,2036,2004,2004,2031,2030,2011
2038,2033,2051,2015,2013,2046,2058,2026
2053,2047,2068,2027,2027,2053,2050,2037
2063,2046,2066,2032,2025,2058,2047,2037
2058,2049,2059,2033,2032,2057,2060,2033
2056,2041,2052,2037,2030,2052,2054,2034
2049,2039,2041,2044,2043,2038,2057,2040
2040,2027,2036,2052,2049,2042,2060,2033
2042,2030,2040,2062,2060,2043,2044,2048
2043,2034,2044,2071,2076,2046,2036,2057
2047,2040,2039,2069,2097,2051,2050,2054
2049,2036,2037,2068,2095,2057,2060,2058
2045,2028,2021,2054,2068,2058,2051,2068
2040,2024,2014,2048,2028,2051,2048,2067
2043,2022,2013,2032,2016,2041,2056,2069
2042,2031,2021,2025,2015,2030,2036,2061
2037,2029,2026,2021,2019,2032,2036,2064
2039,2037,2039,2022,2035,2053,2051,2079
2045,2050,2046,2031,2052,2060,2029,2070
2050,2054,2053,2031,2051,2055,2055,2067
2052,2046,2056,2036,2048,2060,2043,2068
2057,2049,2059,2047,2052,2061,2054,2061
2060,2055,2054,2050,2057,2060,2040,2066
2062,2056,2053,2051,2058,2053,2050,2060
2056,2054,2060,2062,2055,2036,2048,2049
2048,2045,2067,2066,2041,2025,2037,2034
2048,2053,2074,2080,2054,2032,2035,2032
2048,2052,2077,2079,2069,2034,2038,2030
2049,2047,2064,2080,2063,2032,2040,2026
2048,2040,2060,2074,2065,2037,2048,2025
2042,2036,2056,2069,2065,2027,2040,2028
2041,2038,2054,2073,2049,2010,2019,2021
2027,2021,2044,2058,2035,2019,2045,2012
2027,2023,2043,2054,2041,2027,2053,2025
2044,2051,2063,2067,2042,2046,2076,2032
2063,2057,2059,2070,2042,2044,2060,2040
2060,2052,2041,2054,2040,2043,2061,2035
2048,2034,2033,2039,2039,2047,2059,2035
2034,2040,2034,2039,2046,2046,2079,2031
2037,2050,2039,2047,2052,2055,2069,2040
2038,2051,2036,2036,2054,2060,2063,2046
2041,2047,2021,2042,2050,2066,2079,2053
2051,2049,2021,2059,2061,2074,2084,2066
2053,2048,2023,2069,2068,2080,2075,2074
2047,2044,2026,2072,2073,2085,2083,2077
2045,2046,2031,2069,2072,2091,2066,2078
2046,2039,2042,2049,2062,2088,2068,2078
2046,2043,2038,2036,2057,2088,2062,2073
2035,2024,2020,2019,2038,2070,2053,2068
2029,2011,2005,2015,2037,2071,2066,2075
2038,2020,2016,2014,2038,2075,2062,2069
2035,2029,2007,2005,2027,2061,2072,2066
2044,2037,2023,2012,2041,2038,2052,2051
2046,2054,2054,2031,2049,2020,2056,2053
2052,2063,2068,2031,2048,2026,2066,2047
2052,2055,2059,2025,2042,2020,2050,2042
2042,2037,2046,2016,2040,2024,2048,2033
2036,2034,2038,2026,2032,2034,2053,2021
2039,2036,2037,2027,2036,2041,2060,2026
2037,2051,2049,2036,2045,2050,2061,2023
2032,2051,2054,2041,2041,2052,2059,2027
2034,2056,2057,2038,2038,2060,2041,2032
2044,2054,2050,2040,2040,2059,2039,2034
2050,2047,2045,2043,2038,2060,2062,2028
2043,2028,2024,2041,2039,2052,2050,2022
2040,2029,2038,2054,2050,2057,2060,2034
2052,2052,2064,2078,2059,2058,2080,2044
2056,2056,2083,2077,2053,2049,2073,2046
2060,2059,2087,2079,2047,2062,2075,2049
2054,2054,2076,2078,2053,2083,2078,2046
2054,2052,2052,2079,2051,2086,2070,2044
2050,2042,2029,2075,2046,2076,2072,2038
2047,2038,2022,2067,2052,2068,2059,2040
2043,2041,2027,2071,2062,2066,2041,2041
2046,2047,2036,2077,2052,2043,2054,2045
2043,2044,2029,2074,2056,2019,2031,2055
2045,2036,2024,2066,2055,1997,2033,2067
2037,2025,2018,2063,2048,1985,2040,2067
2035,2017,2003,2036,2040,1979,2041,2062
2027,2010,2008,2020,2034,1964,2028,2062
2019,2001,2003,2016,2024,1960,2022,2059
2021,2011,2033,2035,2028,1985,2015,2060
2039,2032,2067,2054,2038,2036,2013,2067
2034,2030,2065,2063,2049,2081,2017,2057
2034,2024,2062,2064,2043,2106,2044,2049
2033,2029,2066,2075,2041,2101,2050,2055
2047,2037,2081,2081,2039,2087,2040,2041
2048,2047,2093,2093,2047,2077,2030,2037
2054,2053,2090,2093,2051,2065,2030,2038
2052,2064,2100,2102,2062,2059,2021,2033
2055,2073,2099,2112,2072,2050,2043,2031
2055,2070,2087,2103,2068,2039,2027,2031
2057,2072,2076,2088,2053,2030,2010,2026
2055,2070,2061,2082,2047,2028,2035,2025
2058,2068,2059,2072,2047,2030,2030,2033
2050,2068,2059,2043,2040,2027,2030,2019
2040,2045,2036,2019,2033,2029,2032,2021
2039,2052,2051,2020,2042,2044,2036,2030
2056,2079,2077,2027,2053,2053,2052,2044
2066,2088,2078,2014,2053,2052,2049,2049
2068,2083,2069,2021,2081,2051,2047,2053
2071,2082,2065,2026,2096,2038,2039,2055
2066,2077,2067,2029,2112,2043,2040,2051
2062,2073,2068,2035,2118,2055,2071,2049
2054,2069,2062,2034,2128,2069,2067,2051
2049,2058,2062,2039,2134,2075,2072,2057
2049,2053,2051,2040,2136,2085,2072,2055
2048,2053,2048,2041,2114,2098,2080,2060
2042,2048,2043,2040,2090,2091,2060,2074
2045,2044,2036,2029,2047,2080,2071,2086
2052,2045,2033,2033,1986,2067,2059,2092
2043,2041,2034,2022,1873,2044,2039,2069
2027,2027,2018,2025,1874,2042,2050,2078
2024,2025,2017,2034,1910,2037,2054,2080
2037,2040,2029,2053,1955,2043,2072,2082
2043,2049,2035,2050,1982,2055,2058,2075
2053,2056,2036,2048,2004,2052,2048,2076
2064,2058,2037,2052,1998,2065,2050,2065
2064,2063,2048,2050,2007,2065,2056,2059
2062,2061,2062,2069,2029,2068,2040,2052
2065,2059,2074,2093,2047,2063,2034,2037
2059,2049,2067,2086,2044,2014,2031,2012
2049,2038,2063,2099,2052,1986,2023,2014
2039,2030,2050,2109,2059,2006,2016,2012
2039,2032,2048,2108,2060,2034,2047,2012
2038,2034,2036,2110,2046,2047,2033,2004
2030,2042,2015,2104,2041,2043,2037,2012
2029,2033,1999,2091,2035,2033,2008,2010
2021,2023,1984,2088,2036,2018,2018,2011
2032,2025,1989,2105,2069,2016,2022,2027
2038,2040,2006,2124,2090,2025,2010,2025
2036,2039,1995,2097,2078,2028,2020,2020
2030,2023,1977,2063,2049,2020,2031,2019
2029,2020,1977,2027,2029,2013,2031,2024
2034,2025,1995,2020,2037,2015,2049,2032
2038,2047,2030,2021,2044,2030,2040,2043
2044,2067,2053,2014,2059,2044,2044,2054
2052,2068,2045,2006,2065,2059,2045,2061
2055,2070,2058,2030,2070,2074,2065,2068
2059,2075,2068,2049,2078,2069,2054,2077
2063,2062,2063,2064,2076,2065,2058,2077
2064,2053,2052,2063,2072,2061,2048,2080
2051,2046,2055,2047,2067,2068,2045,2081
2049,2049,2062,2025,2056,2071,2047,2079
2041,2041,2065,2024,2045,2064,2039,2066
2036,2042,2071,2027,2046,2064,2046,2072
2045,2060,2079,2043,2046,2064,2052,2072
2050,2055,2064,2030,2034,2052,2036,2064
2047,2051,2038,2010,2013,2045,2049,2059
2039,2047,2042,1999,2008,2039,2042,2054
2041,2052,2042,2016,2005,2033,2033,2050
2046,2050,2053,2025,2006,2033,2027,2047
2047,2050,2060,2036,2005,2034,2041,2044
2049,2049,2056,2033,2000,2035,2049,2039
2039,2048,2047,2041,2017,2043,2056,2038
2047,2046,2039,2045,2021,2042,2068,2041
2040,2044,2036,2033,2011,2033,2046,2022
2043,2038,2031,2018,1998,2028,2027,2016
2039,2048,2036,2017,1998,2031,2020,2018
2041,2047,2041,2022,2013,2027,2037,2016
2041,2044,2037,2024,2013,2022,2040,2013
2038,2048,2042,2028,1996,2009,2026,2020
2046,2055,2041,2034,1993,2016,2027,2022
2042,2044,2033,2035,1999,2009,2039,2018
2037,2039,2018,2029,2011,2016,2041,2015
2030,2024,2002,2026,2011,2022,2041,2019
2030,2024,2003,2027,2052,2041,2041,2033
2038,2033,2012,2035,2070,2050,2041,2044
2039,2049,2023,2033,2061,2053,2061,2061
2045,2055,2038,2047,2077,2062,2070,2058
2045,2065,2053,2057,2096,2058,2077,2060
2054,2070,2053,2057,2116,2063,2073,2063
2052,2071,2058,2058,2122,2074,2050,2075
2066,2074,2068,2070,2115,2070,2079,2085
2061,2074,2067,2069,2071,2058,2044,2087
2061,2063,2048,2046,2033,2044,2078,2076
2052,2042,2018,2029,2000,2023,2052,2067
2036,2039,2008,2029,2001,2049,2056,2075
2055,2062,2020,2034,1998,2063,2069,2071
2062,2066,2031,2022,1995,2058,2076,2067
2065,2072,2033,2021,2062,2076,2081,2073
2062,2071,2039,2035,2089,2080,2088,2059
2060,2069,2045,2040,2078,2082,2085,2051
2055,2064,2046,2054,2082,2073,2068,2046
2051,2056,2065,2066,2097,2068,2078,2033
2042,2055,2081,2080,2101,2063,2049,2020
2041,2050,2101,2080,2080,2061,2042,2021
2038,2049,2112,2077,2046,2061,2061,2014
2039,2048,2106,2069,2036,2057,2046,2009
2038,2047,2098,2074,2051,2058,2052,2014
2042,2053,2090,2076,2049,2042,2058,2015
2042,2057,2096,2080,2087,2027,2064,2020
2048,2056,2089,2080,2093,2014,2067,2026
2056,2067,2105,2097,2119,2037,2082,2031
2060,2081,2103,2114,2171,2062,2096,2047
2066,2089,2093,2115,2183,2070,2086,2048
2068,2083,2086,2102,2128,2066,2088,2050
2060,2077,2067,2076,2121,2073,2079,2043
2054,2064,2057,2041,2120,2084,2065,2039
2039,2045,2033,1993,2023,2091,2050,2030
2041,2046,2030,1972,1913,2113,2071,2040
2043,2057,2041,2008,1989,2128,2050,2050
2054,2057,2038,2033,2091,2108,2068,2065
2053,2058,2038,2042,2075,2070,2066,2059
2050,2050,2033,2031,1948,2047,2062,2065
2044,2050,2034,2004,1864,2024,2045,2062
2042,2045,2028,2001,1902,2028,2047,2070
2048,2039,2033,2025,1994,2045,2042,2074
2043,2036,2026,2030,2026,2045,2038,2066
2033,2023,2022,2035,2021,2054,2056,2062
2027,2037,2031,2044,2019,2085,2070,2064
2043,2050,2047,2052,2006,2081,2078,2065
2039,2056,2059,2052,1959,2053,2076,2064
2049,2057,2064,2044,1921,2022,2062,2063
2042,2056,2065,2045,1935,2015,2061,2056
2051,2064,2077,2062,1980,2011,2053,2065
2054,2070,2084,2076,2019,2016,2072,2056
2058,2074,2072,2073,2037,2027,2068,2051
2058,2073,2071,2086,2081,2045,2072,2046
2055,2067,2058,2068,1984,2016,2074,2033
2043,2053,2044,2044,2013,2000,2052,2022
2035,2046,2031,2037,2100,2000,2044,2010
2031,2036,2025,2030,2108,2002,2034,2002
2039,2036,2027,2044,2154,2014,2041,2010
2046,2034,2028,2053,2135,2017,2048,2002
2030,2032,2033,2050,2099,2026,2044,2001
2035,2035,2036,2023,2047,2034,2064,2019
2043,2040,2038,2004,2009,2042,2062,2020
2036,2038,2034,2006,2029,2061,2081,2032
2043,2043,2039,2010,2083,2085,2076,2041
2042,2041,2033,2030,2120,2121,2088,2038
2036,2049,2038,2049,2138,2138,2085,2042
2041,2051,2044,2061,2134,2133,2069,2037
2036,2054,2039,2054,2131,2120,2062,2040
2034,2045,2037,2041,2124,2094,2077,2054
2035,2049,2034,2044,2151,2060,2082,2073
2050,2053,2041,2063,2194,2030,2084,2082
2048,2041,2030,2057,2171,2010,2056,2067
2030,2026,2017,2033,2034,1970,2048,2067
2022,2023,2019,2048,1998,1958,2039,2071
2029,2030,2027,2058,2046,1970,2019,2062
2033,2026,2019,2019,1943,1999,2036,2057
2038,2036,2027,2016,1916,2032,2058,2068
2047,2050,2042,2039,1953,2048,2067,2063
2052,2060,2046,2050,1960,2046,2063,2057
2050,2057,2048,2037,1929,2020,2054,2062
2050,2055,2036,2020,1875,1960,2060,2058
2049,2052,2040,1991,1865,1968,2053,2040
2045,2049,2038,1990,1967,1982,2047,2031
2040,2043,2040,2006,2072,1996,2045,2020
2041,2041,2039,2028,2090,2027,2053,2026
2046,2048,2049,2058,2118,2050,2067,2033
2048,2053,2053,2080,2184,2082,2074,2032
2058,2047,2047,2104,2209,2093,2070,2030
2048,2051,2045,2097,2171,2099,2082,2025
2046,2051,2042,2075,2124,2104,2079,2016
2051,2058,2045,2061,2084,2088,2049,2006
2033,2043,2034,2032,2018,2077,2061,2008
2035,2034,2026,2025,1981,2068,2038,2023
2052,2047,2034,2031,1929,2032,2058,2038
2045,2047,2032,2024,1869,2010,2060,2044
2044,2042,2030,2020,1940,2026,2076,2050
2050,2041,2037,2018,2021,2046,2071,2047
2062,2048,2047,2036,2097,2060,2055,2050
2060,2048,2037,2032,2122,2054,2042,2042
2046,2029,2023,2032,2136,2054,2036,2039
2043,2035,2026,2043,2162,2067,2050,2047
2050,2049,2045,2067,2194,2086,2056,2058
2068,2071,2064,2069,2177,2087,2074,2068
2075,2062,2050,2056,2128,2063,2053,2070
2071,2046,2041,2044,2096,2019,2029,2055
2042,2029,2027,2026,2062,1985,1990,2064
2039,2030,2026,2015,1969,1976,1992,2046
2019,2025,2024,1990,1909,2009,2015,2044
2018,2036,2033,2024,2039,2068,2045,2060
2031,2041,2046,2064,2097,2098,2049,2070
2030,2041,2050,2075,2107,2111,2036,2072
2042,2046,2052,2084,2163,2137,2034,2088
2051,2054,2053,2080,2176,2143,2055,2095
2056,2062,2063,2083,2182,2131,2061,2096
2069,2084,2076,2089,2193,2120,2061,2089
2072,2091,2072,2091,2136,2065,2045,2058
2065,2077,2069,2086,2121,2057,2051,2044
2049,2078,2064,2123,2190,2093,2083,2035
2052,2073,2065,2127,2224,2084,2075,2029
2042,2060,2050,2099,2197,2064,2067,2023
2040,2052,2038,2047,2020,2020,2025,2014
2036,2039,2022,2003,1887,2027,2038,2006
2036,2034,2026,2023,1915,2055,2039,2002
2027,2024,2025,2013,1862,2053,2031,1997
2025,2029,2025,2027,1893,2046,2047,2007
2044,2052,2049,2063,1989,2028,2031,2011
2050,2062,2055,2056,1974,1982,2028,2010
2047,2049,2048,2050,1984,1984,2042,2019
2042,2042,2043,2033,1997,2037,2070,2027
2048,2043,2042,2024,1947,2034,2083,2035
2050,2041,2042,2027,2010,2047,2060,2035
2038,2043,2041,2030,2046,2080,2082,2056
2043,2050,2054,2054,2092,2091,2081,2061
2055,2052,2056,2078,2129,2093,2082,2077
2067,2072,2064,2102,2107,2080,2064,2101
2075,2082,2073,2108,2089,2028,2061,2106
2070,2081,2070,2104,1985,1938,2057,2114
2073,2080,2073,2086,1928,1948,2056,2111
2068,2077,2070,2087,2019,1997,2046,2102
2053,2055,2056,2093,2138,2052,2059,2091
2043,2050,2042,2105,2191,2079,2067,2090
2049,2054,2042,2090,2103,2042,2045,2067
2042,2047,2019,2031,1855,1978,2033,2045
2028,2031,2006,1988,1690,1952,2030,2030
2029,2032,2008,2004,1767,1967,2038,2041
2041,2040,2013,2014,1817,1986,2038,2037
2042,2038,2012,2013,1875,2012,2035,2019
2030,2023,2007,2033,2027,2041,2021,2012
2025,2030,2015,2050,2128,2043,2022,2006
2028,2036,2028,2062,2111,2045,2022,2004
2032,2037,2030,2045,2027,2017,2020,2011
2023,2041,2030,2025,1977,2005,2027,2011
2031,2044,2036,2006,1935,2004,2038,2010
2038,2048,2041,2006,1997,2016,2040,2010
2038,2044,2038,2002,2040,2029,2037,2006
2027,2023,2017,1999,2086,2031,2036,2002
2016,2010,2013,1997,2126,2038,2010,2003
2025,2030,2033,2014,2116,2045,2020,2008
2036,2044,2039,2021,2108,2046,2019,2014
2037,2050,2046,2017,2083,2049,2046,2020
2042,2046,2044,2010,2060,2054,2046,2026
2035,2053,2044,2014,2033,2050,2054,2033
2041,2055,2048,2016,2017,2052,2055,2037
2051,2052,2046,2012,2000,2045,2045,2044
2045,2051,2046,2027,2039,2062,2058,2053
2051,2049,2048,2052,2078,2078,2059,2059
2053,2043,2044,2068,2094,2090,2064,2071
2040,2041,2046,2060,2096,2093,2053,2063
2039,2043,2047,2055,2070,2090,2046,2067
2042,2042,2050,2054,2043,2073,2056,2066
2034,2038,2038,2047,2087,2072,2045,2067
2025,2027,2030,2050,2162,2080,2043,2064
2023,2026,2030,2062,2193,2075,2055,2069
2034,2035,2044,2076,2221,2052,2044,2060
2033,2042,2047,2079,2203,2043,2051,2059
2036,2052,2052,2077,2161,2028,2041,2057
2030,2055,2052,2069,2070,2031,2053,2056
2042,2058,2053,2054,2047,2040,2043,2059
2045,2062,2054,2038,1988,2039,2039,2051
2058,2068,2051,2025,1917,2047,2047,2046
2059,2068,2046,2010,1830,2050,2055,2050
2066,2069,2047,2020,1967,2047,2062,2044
2063,2061,2038,2018,2011,2018,2037,2032
2053,2057,2037,2020,2020,1994,2034,2025
2051,2044,2029,2033,2037,2009,2024,2011
2037,2037,2031,2048,2065,2049,2026,2003
2036,2032,2029,2060,2108,2060,2016,1998
2028,2014,2020,2050,2098,2030,2014,1983
2018,2010,2034,2037,2037,2016,2012,1987
2033,2032,2050,2035,2000,2017,2016,1991
2028,2040,2054,2022,1997,2003,2028,2000
2037,2037,2056,2014,2008,2009,2048,2010
2042,2054,2060,2050,2059,2042,2063,2027
2053,2061,2073,2074,2121,2067,2074,2034
2050,2069,2074,2089,2162,2096,2078,2051
2053,2069,2069,2094,2156,2097,2069,2047
2056,2064,2056,2065,2067,2067,2063,2059
2056,2055,2053,2053,1982,2038,2054,2068
2059,2050,2047,2041,1901,2031,2053,2071
2054,2054,2035,2036,1857,2033,2041,2068
2056,2054,2034,2033,1840,2017,2043,2074
2047,2044,2016,2014,1844,2033,2038,2078
2046,2041,2019,2023,1940,2073,2026,2087
2049,2036,2018,2042,2069,2083,2052,2107
2061,2044,2024,2074,2198,2106,2061,2118
2076,2063,2042,2096,2305,2143,2104,2123
2087,2072,2045,2091,2212,2137,2080,2102
2063,2057,2042,2103,2210,2150,2067,2075
2045,2051,2037,2116,2279,2132,2066,2058
2037,2043,2034,2108,2280,2072,2030,2032
2030,2044,2032,2098,2156,2000,2007,2008
2021,2033,2015,2017,1899,1913,1974,2010
2022,2030,2011,1979,1818,1862,1995,2024
2038,2040,2016,1991,1907,1905,2016,2027
2047,2048,2025,1998,1802,1938,2037,2033
2048,2050,2045,2054,1912,2009,2047,2021
2050,2056,2065,2116,2159,2064,2045,2028
2052,2054,2062,2100,2173,2057,2038,2023
2055,2045,2062,2091,2174,2054,2046,2031
2058,2052,2060,2100,2215,2063,2021,2024
2060,2046,2055,2112,2300,2066,2031,2022
2057,2043,2038,2079,2327,2058,2028,2015
2055,2034,2030,2042,2352,2072,2038,2013
2042,2030,2023,2008,2129,2059,2040,2019
2026,2032,2033,2019,2128,2058,2039,2027
2036,2042,2057,2027,2151,2046,2018,2034
2050,2050,2071,2034,2081,2054,2046,2042
2050,2049,2067,2037,2031,2055,2054,2043
2044,2046,2061,2023,1973,2055,2072,2056
2049,2052,2055,2004,1902,2066,2045,2062
2044,2045,2052,2019,1958,2080,2066,2067
2041,2046,2055,2031,1992,2099,2080,2075
2038,2040,2048,2036,2012,2115,2083,2072
2032,2036,2047,2037,2025,2123,2082,2073
2037,2035,2050,2038,2034,2121,2084,2078
2030,2033,2038,2036,2037,2107,2070,2072
2025,2021,2032,2031,2043,2102,2056,2073
2037,2032,2038,2032,2043,2105,2063,2074
2043,2040,2043,2035,2043,2068,2061,2066
2041,2042,2042,2033,2035,2041,2044,2052
2038,2044,2039,2040,2033,2042,2038,2051
2036,2045,2033,2036,2028,2027,2030,2032
2041,2044,2033,2039,2015,2013,2023,2027
2042,2044,2037,2040,2012,2005,2015,2014
2036,2040,2033,2040,2014,2004,2012,2010
2035,2040,2039,2047,2014,2013,2006,2012
2035,2037,2052,2051,2011,2024,2004,2015
2027,2040,2049,2052,2011,2038,2018,2005
2030,2035,2050,2066,2015,2008,2027,2005
2030,2034,2060,2087,2022,1980,2025,2010
2037,2033,2057,2091,2025,1988,2042,2009
2035,2034,2049,2082,2016,1988,2025,2002
2028,2024,2029,2085,2044,1998,2028,1993
2027,2022,2023,2093,2106,2028,2028,2004
2029,2024,2011,2084,2091,2050,2040,2005
2032,2021,2000,2082,2066,2066,2021,2013
2048,2032,2013,2082,2045,2074,2034,2022
2051,2039,2011,2065,2036,2081,2062,2033
2057,2030,2008,2060,2074,2092,2036,2035
2043,2037,2012,2060,2094,2102,2044,2042
2041,2043,2023,2058,2089,2120,2059,2052
2050,2047,2026,2048,2091,2143,2063,2058
2055,2054,2028,2036,2085,2123,2058,2067
2057,2053,2018,2020,2069,2059,2051,2068
2058,2051,2012,2006,2026,1964,2020,2065
2049,2032,2007,1994,1980,1967,2032,2073
2046,2033,2013,2002,2006,2023,2052,2081
2047,2044,2023,1997,2018,2031,2042,2066
2033,2044,2037,1987,1975,2017,2028,2066
2031,2054,2076,2018,2036,2038,2017,2069
2047,2080,2105,2056,2081,2055,2046,2064
2060,2081,2110,2060,2050,2053,2038,2062
2049,2074,2094,2035,2019,2025,2020,2048
2047,2056,2070,2017,1998,2001,2029,2039
2050,2054,2072,2026,1979,2017,2037,2042
2056,2067,2073,2029,1979,2022,2036,2041
2061,2076,2078,2039,2007,2043,2057,2037
2060,2078,2079,2048,2036,2054,2057,2044
2065,2077,2078,2052,2065,2057,2054,2039
2062,2069,2070,2062,2090,2067,2045,2035
2058,2069,2066,2056,2098,2067,2057,2027
2052,2068,2057,2048,2125,2072,2047,2020
2053,2059,2052,2045,2159,2058,2045,2012
2045,2050,2044,2047,2120,2049,2025,2010
2032,2030,2034,2060,2118,2054,2037,1996
2031,2030,2042,2064,2088,2065,2069,2009
2048,2043,2052,2058,2057,2050,2072,2016
2053,2053,2057,2048,2012,2040,2069,2023
2052,2059,2063,2050,2012,2054,2054,2029
2055,2064,2066,2062,2003,2071,2047,2033
2059,2063,2063,2050,1992,2078,2041,2039
2057,2063,2066,2046,1987,2068,2063,2049
2058,2060,2061,2048,1990,2019,2049,2050
2041,2053,2054,2048,2005,2012,2042,2057
2040,2047,2047,2040,2008,2030,2056,2053
2029,2035,2039,2026,2018,2050,2056,2062
2038,2045,2052,2064,2097,2106,2083,2078
2055,2051,2056,2093,2175,2126,2077,2079
2057,2049,2053,2094,2187,2117,2073,2072
2043,2041,2037,2086,2164,2115,2068,2068
2028,2021,2021,2070,2122,2108,2041,2061
2024,2018,2018,2065,2090,2075,2046,2059
2033,2029,2018,2053,2060,2051,2055,2050
2034,2028,2022,2058,2046,2026,2043,2046
2031,2026,2025,2051,2043,2002,2041,2053
2036,2034,2024,2057,2044,1989,2040,2053
2045,2038,2032,2061,2032,1993,2051,2046
2042,2042,2030,2051,2016,1991,2032,2030
2041,2038,2029,2053,2011,1995,2013,2017
2035,2037,2029,2053,2022,2010,2013,2015
2038,2038,2024,2049,2072,2035,2036,2014
2031,2033,2018,2062,2131,2076,2037,2010
2036,2024,2025,2060,2127,2096,2035,2014
2033,2018,2019,2045,2092,2102,2033,2009
2028,2019,2023,2029,2073,2093,2029,2004
2026,2031,2050,2036,2068,2066,2030,1993
2023,2031,2059,2034,2034,2030,2015,1996
2024,2029,2058,2042,2030,2034,2019,2004
2039,2043,2044,2041,2033,2041,2015,2009
2032,2038,2025,2034,2027,2041,2019,2010
2030,2038,2031,2038,2026,2048,2027,2011
2030,2044,2042,2051,2058,2062,2048,2022
2037,2051,2058,2068,2090,2074,2051,2033
2040,2056,2064,2070,2112,2077,2068,2040
2043,2052,2060,2072,2086,2082,2047,2043
2042,2047,2060,2071,2107,2092,2047,2053
2048,2053,2065,2078,2187,2106,2066,2060
2050,2054,2065,2068,2177,2133,2066,2072
2042,2055,2073,2062,2206,2163,2079,2084
2053,2062,2071,2076,2250,2171,2079,2091
2059,2067,2070,2080,2212,2157,2070,2082
2062,2069,2078,2069,2121,2097,2051,2080
2051,2060,2065,2044,1998,2000,2047,2080
2043,2049,2061,2002,1856,1957,2034,2073
2041,2052,2052,1969,1719,1926,2015,2057
2043,2050,2047,1983,1847,1934,2026,2052
2045,2039,2042,2025,1935,1970,2035,2052
2046,2053,2062,2082,2025,2032,2041,2053
2055,2058,2075,2108,2122,2061,2017,2039
2054,2057,2062,2085,2068,2057,2021,2025
2049,2056,2063,2072,2046,2048,2014,2018
2046,2058,2064,2064,2051,2050,2015,2022
2049,2058,2058,2060,2054,2056,2012,2023
2045,2059,2057,2062,2056,2065,2053,2023
2044,2053,2057,2063,2067,2078,2078,2015
2045,2051,2048,2059,2079,2084,2062,2018
2044,2047,2036,2060,2085,2087,2069,2021
2044,2037,2020,2060,2082,2077,2068,2005
2032,2017,2006,2046,2070,2057,2038,2002
2031,2009,1991,2044,2062,2047,2060,2007
2038,2018,2000,2061,2072,2036,2051,2009
2040,2017,2014,2079,2066,2045,2054,2019
2043,2014,2025,2087,2065,2062,2052,2022
2041,2018,2028,2088,2065,2058,2072,2032
2039,2015,2018,2090,2066,2034,2060,2035
2041,2014,2004,2089,2078,2039,2081,2039
2035,2015,1995,2082,2072,2055,2090,2039
2037,2016,1978,2072,2071,2059,2067,2033
2034,2021,1979,2074,2077,2058,2064,2044
2047,2028,1983,2081,2079,2065,2062,2043
2044,2036,1990,2076,2086,2055,2053,2045
2035,2033,1994,2076,2088,2058,2029,2042
2028,2031,1994,2063,2072,2065,2026,2038
2021,2018,1999,2046,2054,2049,2015,2041
2011,2005,1991,2022,2035,2005,2021,2041
2009,2009,2001,1994,2020,1991,2030,2044
2026,2032,2033,1993,2020,2004,2039,2049
2042,2052,2082,2002,2028,2020,2042,2046
2059,2085,2129,2023,2039,2030,2043,2064
2071,2106,2143,2028,2055,2043,2050,2065
2073,2094,2124,2029,2057,2045,2040,2061
2071,2088,2119,2042,2057,2047,2037,2053
2074,2085,2120,2051,2068,2050,2041,2045
2070,2080,2112,2064,2069,2054,2031,2025
2053,2065,2112,2068,2077,2053,2044,2013
2050,2065,2109,2072,2074,2038,2049,2015
2052,2066,2100,2070,2072,2033,2041,2016
2045,2067,2097,2060,2064,2029,2052,2016
2047,2066,2090,2059,2051,2030,2059,2025
2044,2069,2080,2060,2054,2048,2050,2025
2045,2050,2068,2049,2045,2062,2043,2013
2045,2055,2064,2048,2045,2075,2059,2022
2052,2063,2073,2060,2055,2086,2068,2024
2059,2066,2077,2062,2060,2094,2068,2028
2054,2066,2077,2058,2056,2088,2058,2030
2053,2060,2077,2063,2057,2085,2056,2026
2053,2065,2078,2069,2064,2076,2059,2027
2050,2064,2069,2064,2067,2080,2059,2024
2044,2057,2063,2066,2060,2074,2050,2020
2039,2054,2062,2066,2058,2063,2052,2029
2039,2051,2064,2060,2054,2044,2026,2033
2040,2044,2059,2061,2053,2026,2032,2048
2041,2042,2056,2057,2050,2021,2044,2053
2048,2041,2059,2060,2055,2027,2043,2062
2048,2051,2063,2058,2063,2042,2048,2073
2064,2059,2061,2060,2054,2045,2039,2067
2043,2044,2052,2046,2045,2044,2029,2065
2043,2039,2042,2046,2047,2046,2037,2068
2048,2050,2055,2050,2050,2054,2044,2060
2051,2057,2053,2048,2045,2057,2046,2055
2054,2053,2050,2046,2033,2047,2046,2051
2054,2054,2052,2046,2020,2031,2040,2048
2051,2055,2050,2045,2013,2022,2027,2034
2056,2059,2052,2047,2012,2017,2012,2023
2052,2051,2047,2032,2007,2024,2021,2019
2045,2054,2046,2039,2039,2047,2044,2015
2051,2049,2055,2058,2072,2054,2046,2010
2043,2048,2054,2064,2072,2051,2036,2016
2049,2058,2055,2056,2076,2065,2039,2021
2052,2056,2057,2059,2085,2073,2052,2016
2052,2052,2050,2064,2086,2084,2070,2017
2052,2054,2056,2065,2082,2074,2056,2010
2046,2045,2044,2054,2069,2065,2060,2008
2043,2034,2040,2054,2073,2073,2057,2018
2053,2052,2055,2062,2085,2087,2059,2023
2046,2054,2056,2058,2080,2084,2069,2026
2044,2054,2059,2064,2083,2082,2050,2027
2046,2052,2059,2059,2081,2079,2059,2030
2046,2054,2062,2060,2085,2078,2044,2032
2042,2053,2055,2061,2081,2080,2056,2041
2042,2049,2052,2062,2077,2078,2039,2038
2046,2056,2057,2059,2073,2079,2053,2049
2049,2058,2057,2057,2066,2064,2062,2054
2046,2046,2061,2055,2066,2037,2054,2069
2040,2041,2054,2053,2054,2005,2041,2069
2042,2042,2047,2048,2043,2000,2037,2065
2040,2041,2048,2051,2045,2018,2045,2068
2041,2048,2054,2050,2052,2024,2037,2061
2034,2037,2044,2043,2044,2036,2002,2057
2031,2035,2038,2042,2049,2042,2018,2061
2039,2046,2043,2045,2049,2046,2041,2061
2042,2040,2042,2044,2044,2049,2053,2051
2040,2041,2037,2047,2045,2045,2049,2044
2047,2040,2040,2043,2052,2053,2039,2043
2046,2038,2036,2042,2052,2067,2051,2035
2041,2042,2037,2046,2058,2076,2044,2033
2050,2039,2031,2041,2053,2082,2043,2029
2042,2036,2027,2040,2057,2080,2050,2026
2042,2045,2023,2049,2059,2080,2059,2019
2040,2044,2030,2044,2059,2067,2027,2022
2041,2038,2030,2047,2060,2061,2035,2016
2043,2041,2033,2051,2054,2059,2050,2009
2049,2038,2034,2049,2062,2060,2064,2012
2043,2038,2038,2056,2056,2062,2049,2000
2034,2027,2030,2049,2057,2056,2051,2006
2033,2026,2034,2052,2064,2049,2054,2020
2048,2044,2051,2061,2066,2036,2053,2018
2049,2051,2066,2060,2054,2029,2046,2017
2055,2059,2070,2066,2053,2048,2059,2019
2044,2062,2074,2067,2055,2065,2062,2025
2052,2056,2076,2068,2064,2082,2059,2026
2043,2056,2077,2067,2068,2089,2055,2029
2046,2053,2070,2061,2060,2067,2054,2041
2044,2052,2058,2059,2058,2008,2052,2045
2046,2050,2046,2057,2054,1998,2053,2056
2044,2040,2037,2052,2052,2020,2060,2056
2038,2040,2035,2043,2049,2042,2052,2059
2028,2046,2037,2038,2044,2055,2071,2067
2035,2050,2057,2046,2048,2070,2055,2065
2036,2063,2068,2047,2050,2072,2060,2071
2035,2053,2068,2035,2038,2091,2042,2071
2038,2046,2064,2045,2049,2129,2049,2076
2040,2061,2067,2047,2060,2141,2052,2073
2038,2059,2066,2046,2054,2096,2056,2069
2041,2048,2058,2046,2039,1998,2029,2052
2043,2046,2058,2047,2045,1988,2031,2050
2045,2053,2064,2049,2043,2021,2038,2049
2049,2054,2066,2046,2046,2039,2050,2041
2051,2058,2073,2040,2036,2050,2050,2039
2052,2053,2068,2039,2039,2056,2052,2027
2051,2057,2069,2043,2048,2063,2061,2030
2046,2051,2073,2046,2045,2056,2052,2023
2051,2054,2069,2043,2052,2050,2031,2022
2047,2052,2062,2048,2045,2037,2036,2014
2044,2055,2062,2043,2052,2024,2043,2008
2046,2052,2058,2045,2048,2036,2052,2008
2037,2040,2058,2039,2036,2044,2056,2016
2035,2039,2050,2042,2038,2066,2059,2019
2044,2054,2056,2042,2033,2074,2046,2017
2044,2043,2052,2039,2020,2058,2047,2016
2043,2046,2051,2039,2020,2048,2049,2017
2046,2041,2048,2041,2020,2059,2055,2022
2040,2042,2050,2036,2022,2047,2077,2034
2043,2041,2056,2040,2036,2020,2077,2047
2054,2046,2066,2055,2068,2016,2072,2062
2056,2052,2065,2062,2093,2032,2071,2060
2056,2052,2060,2067,2093,2032,2078,2060
2047,2046,2055,2074,2102,2035,2054,2062
2052,2045,2057,2068,2093,2010,2046,2069
2052,2044,2060,2068,2079,2010,2060,2073
2056,2045,2059,2068,2066,2022,2040,2078
2045,2044,2059,2066,2048,2022,2028,2066
2027,2027,2047,2043,2045,2036,2038,2068
2032,2026,2040,2045,2043,2038,2066,2078
2041,2036,2056,2050,2061,2032,2049,2075
2037,2035,2053,2050,2064,2026,2064,2061
2039,2037,2050,2050,2062,2015,2058,2059
2035,2040,2049,2046,2060,2007,2036,2052
2036,2040,2050,2044,2049,1996,2042,2045
2033,2041,2048,2040,2048,1991,2025,2034
2039,2040,2051,2042,2042,2008,2027,2030
2037,2047,2053,2043,2044,2032,2039,2029
2038,2042,2050,2038,2052,2064,2050,2018
2036,2043,2047,2032,2048,2081,2053,2017
2045,2050,2037,2029,2050,2085,2041,2019
2047,2050,2041,2032,2049,2074,2021,2014
2040,2049,2033,2030,2051,2065,2008,2004
2040,2043,2030,2031,2054,2062,2002,1998
2029,2028,2025,2027,2047,2041,2014,2004
2028,2030,2032,2039,2055,2056,2053,2011
2050,2054,2053,2050,2068,2063,2056,2029
2054,2065,2055,2053,2070,2057,2067,2036
2059,2060,2061,2052,2074,2064,2070,2038
2058,2064,2066,2057,2070,2069,2063,2045
2061,2064,2069,2056,2068,2072,2083,2053
2062,2065,2070,2066,2074,2085,2087,2058
2062,2061,2083,2076,2076,2098,2099,2060
2058,2056,2089,2078,2075,2089,2085,2067
2054,2047,2087,2082,2074,2065,2073,2067
2049,2043,2075,2072,2060,2034,2057,2062
2046,2036,2069,2070,2055,2023,2058,2073
2048,2041,2069,2076,2058,2021,2055,2077
2048,2038,2064,2066,2056,2011,2032,2077
2047,2034,2049,2061,2056,2008,2023,2070
2034,2023,2031,2040,2049,2008,2015,2067
2032,2018,2020,2045,2045,2021,2044,2082
2049,2038,2033,2054,2056,2042,2064,2081
2047,2039,2035,2049,2050,2057,2052,2075
2056,2039,2029,2050,2032,2053,2036,2063
2056,2046,2032,2033,2016,2044,2032,2059
2055,2044,2025,2021,1997,2023,2046,2053
2051,2049,2042,2006,1992,1987,2050,2047
2058,2050,2040,2017,2009,1959,2052,2042
2056,2054,2039,2018,2016,1974,2042,2036
2050,2053,2036,2008,2025,2003,2041,2023
2048,2048,2023,2000,2033,2034,2045,2022
2052,2050,2031,2005,2034,2048,2045,2022
2048,2051,2036,2015,2030,2062,2058,2018
2046,2046,2034,2015,2029,2048,2057,2018
2045,2045,2041,2020,2036,2033,2050,2014
2040,2035,2044,2026,2043,2034,2054,2008
2036,2035,2049,2025,2031,2037,2073,2015
2044,2046,2077,2041,2015,2037,2066,2025
2050,2064,2095,2043,1990,2044,2079,2035
2062,2074,2093,2042,1985,2061,2081,2042
2070,2068,2083,2042,1990,2086,2095,2048
2060,2065,2069,2036,2001,2096,2092,2041
2059,2061,2071,2054,2054,2110,2080,2052
2066,2063,2079,2076,2093,2106,2089,2061
2068,2060,2080,2085,2115,2119,2087,2070
2066,2061,2082,2083,2118,2111,2066,2072
2064,2052,2071,2066,2092,2092,2092,2072
2048,2046,2053,2054,2059,2072,2087,2073
2041,2040,2048,2044,2063,2068,2080,2075
2042,2029,2043,2029,2086,2065,2072,2085
2050,2042,2047,2031,2072,2062,2058,2082
2042,2037,2038,2029,2065,2047,2049,2078
2038,2036,2046,2035,2074,2060,2050,2082
2049,2054,2055,2040,2081,2074,2052,2073
2057,2054,2054,2041,2075,2069,2037,2067
2052,2056,2056,2037,2071,2032,2045,2061
2051,2061,2061,2045,2062,2012,2054,2050
2053,2053,2054,2045,2026,2023,2048,2038
2050,2051,2054,2040,1984,2040,2036,2032
2050,2046,2045,2033,1937,2068,2042,2020
2036,2039,2037,2027,1973,2064,2038,2024
2043,2042,2038,2029,1989,2024,2050,2024
2048,2049,2054,2051,2034,2021,2057,2029
2057,2052,2068,2062,2049,2047,2062,2031
2047,2057,2068,2053,2040,2062,2067,2031
2054,2050,2064,2047,2029,2068,2069,2032
2054,2050,2059,2038,2013,2055,2079,2020
2050,2038,2034,2000,1967,2022,2042,2012
2033,2024,2018,1980,1998,2041,2043,2015
2036,2037,2040,1995,2071,2074,2062,2018
2051,2050,2047,2030,2141,2100,2068,2024
2064,2058,2052,2039,2157,2127,2058,2026
2052,2056,2050,2046,2160,2139,2061,2034
2054,2059,2054,2057,2147,2127,2062,2044
2063,2063,2053,2058,2120,2020,2056,2043
2058,2067,2062,2059,2092,2008,2054,2053
2060,2069,2076,2060,2061,2041,2076,2059
2055,2056,2069,2054,2008,2075,2080,2062
2047,2045,2065,2042,1934,2081,2081,2068
2045,2050,2072,2045,1948,2077,2064,2075
2049,2056,2082,2052,1960,2059,2046,2074
2055,2064,2084,2054,2003,2047,2056,2080
2051,2059,2084,2065,2058,2014,2050,2078
2048,2053,2064,2053,2050,1992,2043,2077
2051,2053,2058,2060,2058,1988,2062,2078
2057,2059,2059,2075,2103,2012,2066,2070
2056,2054,2053,2068,2094,2028,2063,2057
2044,2046,2042,2055,2088,2013,2054,2045
2047,2050,2032,2046,2081,1999,2043,2050
2039,2049,2042,2048,2088,2018,2050,2047
2054,2066,2062,2047,2106,2031,2059,2047
2070,2072,2075,2032,2095,2045,2040,2043
2065,2065,2059,2008,2093,2054,2063,2038
2061,2056,2050,1996,2073,2051,2062,2039
2054,2046,2036,1969,1939,2032,2052,2019
2040,2038,2031,1971,1924,2028,2045,2013
2038,2042,2029,1992,1945,2021,2052,2022
2042,2047,2036,2002,1987,2034,2064,2031
2054,2053,2046,1997,1975,2036,2043,2021
2049,2039,2026,1983,1963,2050,2044,2010
2045,2045,2040,2008,2010,2076,2058,2026
2064,2061,2047,2018,1988,2074,2077,2024
2064,2058,2042,1990,1838,2052,2065,2033
2060,2054,2036,2004,1889,2058,2069,2035
2058,2057,2049,2016,1939,2047,2062,2039
2062,2058,2050,2030,2025,2058,2053,2051
2056,2053,2047,2036,2110,2085,2054,2058
2060,2057,2042,2045,2150,2100,2066,2057
2054,2055,2041,2054,2161,2117,2064,2071
2062,2055,2041,2062,2158,2094,2052,2066
2048,2053,2039,2064,2142,2061,2047,2075
2044,2048,2041,2058,2101,2042,2019,2072
2036,2040,2032,2049,2064,2049,2036,2083
2045,2037,2036,2051,2068,2055,2039,2084
2054,2030,2018,2048,2059,2050,2009,2074
2039,2013,1998,2036,2049,2043,2005,2076
2028,2008,1997,2041,2048,2060,2031,2074
2047,2034,1999,2046,2048,2088,2042,2064
2041,2035,2001,2047,2030,2122,2041,2042
2036,2035,2006,2041,2005,2133,2031,2046
2041,2037,2011,2045,1974,2122,2026,2049
2046,2049,2016,2043,1969,2117,2033,2040
2051,2047,2017,2044,1996,2095,2037,2052
2054,2055,2015,2057,2045,2041,2045,2057
2053,2055,2017,2070,2070,1957,2055,2044
2051,2048,2010,2068,2063,1966,2056,2044
2052,2050,2023,2049,2041,2008,2053,2041
2045,2040,2027,2028,2033,2024,2035,2039
2040,2031,2026,2014,2035,2012,2043,2031
2044,2035,2046,2024,2039,2000,2037,2037
2049,2053,2096,2041,2043,1993,2040,2024
2044,2060,2102,2050,2058,2004,2045,2022
2047,2053,2115,2065,2074,2021,2049,2033
2055,2066,2112,2069,2082,2013,2059,2036
2054,2059,2096,2065,2052,1997,2043,2033
2046,2056,2082,2065,2031,1994,2030,2033
2042,2054,2076,2074,2029,1988,2028,2031
2051,2060,2080,2067,2026,1980,2033,2038
2050,2069,2080,2046,2029,1994,2046,2047
2046,2068,2067,2035,2022,2027,2044,2053
2043,2059,2062,2029,2021,2070,2044,2056
2046,2050,2054,2027,2026,2086,2037,2057
2045,2043,2050,2029,2049,2077,2031,2064
2046,2042,2034,2018,2061,2079,2030,2065
2046,2038,2029,2015,2052,2077,2031,2074
2050,2047,2033,2019,2074,2103,2033,2076
2045,2041,2016,2016,2115,2110,2015,2069
2033,2024,2015,2012,2112,2103,2014,2064
2037,2026,2019,2022,2123,2110,2014,2069
2045,2042,2023,2027,2103,2112,2028,2074
2049,2041,2024,2034,2082,2096,2017,2072
2050,2044,2017,2035,2059,2068,2026,2055
2041,2040,2015,2021,2025,2035,2025,2045
2042,2028,2007,2002,1966,2006,2013,2039
2041,2025,1998,1992,1958,1989,2012,2027
2033,2020,2002,1989,1959,1988,2040,2033
2039,2014,2002,1995,1985,1990,2059,2034
2041,2016,2006,2027,1999,1998,2059,2034
2044,2025,2015,2041,1995,1999,2044,2038
2049,2024,2025,2052,1985,2011,2042,2024
2047,2032,2039,2060,1975,2006,2037,2018
2043,2031,2036,2056,1971,1998,2021,2006
2032,2028,2035,2062,1985,2007,2021,1998
2027,2023,2042,2088,2028,2031,2030,2005
2031,2036,2061,2123,2089,2061,2035,2018
2042,2050,2058,2127,2123,2078,2047,2031
2050,2049,2052,2124,2114,2091,2047,2035
2043,2043,2042,2102,2083,2102,2049,2032
2043,2050,2047,2085,2056,2089,2046,2033
2046,2056,2054,2082,2031,2064,2042,2037
2045,2060,2044,2070,2027,2052,2044,2036
2049,2053,2042,2061,2033,2058,2053,2044
2043,2056,2047,2048,2040,2051,2054,2057
2046,2061,2061,2033,2027,2045,2043,2061
2038,2063,2077,2037,2030,2068,2033,2073
2035,2063,2092,2055,2058,2097,2031,2077
2041,2079,2104,2051,2074,2115,2038,2075
2045,2080,2086,2027,2099,2121,2065,2082
2056,2065,2061,2012,2111,2098,2053,2089
2044,2052,2049,2030,2149,2068,2071,2101
2055,2070,2061,2058,2182,2105,2097,2106
2062,2075,2058,2053,2169,2115,2074,2092
2057,2066,2055,2045,2133,2122,2074,2077
2057,2071,2058,2045,2111,2122,2066,2072
2054,2065,2058,2038,2076,2110,2079,2060
2051,2062,2057,2009,1974,2057,2051,2054
2059,2059,2051,1987,1867,1994,2049,2054
2058,2067,2067,1989,1912,1999,2035,2053
2068,2073,2076,1998,1980,2023,2024,2053
2071,2077,2077,2027,2074,2039,2028,2046
2068,2071,2069,2043,2138,2049,2028,2039
2064,2058,2054,2024,2061,2030,2039,2028
2052,2054,2059,2021,1948,2026,2030,2035
2058,2058,2081,2039,1932,2001,2016,2035
2052,2043,2074,2035,1930,1953,2014,2020
2046,2047,2074,2062,1991,1968,2058,2028
2049,2064,2083,2084,2014,2009,2077,2032
2060,2067,2080,2070,1960,2017,2045,2025
2050,2057,2075,2073,1982,2014,2032,2028
2046,2057,2069,2082,2067,2039,2053,2035
2049,2058,2064,2089,2096,2059,2047,2041
2051,2057,2052,2076,2078,2066,2054,2035
2049,2057,2033,2064,2061,2055,2060,2032
2046,2048,2022,2058,2052,2053,2065,2045
2049,2049,2018,2054,2042,2072,2056,2057
2049,2052,2006,2030,1995,2058,2070,2060
2049,2044,1992,2004,1910,2015,2025,2066
2046,2047,1978,1979,1874,1981,2034,2063
2036,2041,1972,1968,1880,1986,2035,2066
2039,2044,1974,1975,1888,1999,2014,2062
2034,2033,1960,1955,1868,2003,2022,2061
2029,2018,1945,1950,1890,2011,2017,2062
2040,2034,1960,1985,1960,2008,2049,2076
2048,2048,1987,2030,2072,1998,2052,2088
2056,2056,2012,2050,2120,2011,2057,2085
2060,2060,2034,2042,2106,2022,2056,2079
2059,2056,2043,1999,2027,2025,2025,2065
2054,2053,2064,2007,2005,2027,2014,2046
2057,2063,2079,2020,2035,2020,2031,2041
2058,2062,2091,2039,2054,2028,2039,2038
2064,2065,2099,2051,2062,2038,2049,2042
2067,2063,2094,2062,2060,2050,2062,2054
2065,2053,2077,2053,2051,2049,2068,2051
2054,2044,2049,2044,2064,2048,2064,2033
2046,2037,2036,2043,2059,2053,2040,2026
2042,2035,2031,2055,2045,2066,2053,2026
2034,2025,2033,2056,2033,2057,2024,2017
2033,2026,2033,2059,2032,2058,2036,2025
2037,2035,2037,2071,2070,2065,2057,2035
2050,2037,2041,2073,2075,2060,2072,2047
2059,2046,2041,2078,2056,2054,2066,2049
2057,2045,2038,2083,2036,2057,2055,2039
2060,2043,2037,2085,2031,2055,2037,2044
2054,2044,2045,2085,2050,2058,2042,2042
2051,2044,2053,2071,2045,2054,2052,2039
2049,2034,2043,2045,2026,2039,2031,2045
2042,2033,2039,2011,1994,2022,2017,2055
2052,2050,2061,2012,2003,2015,2021,2063
2054,2057,2084,2026,2033,2033,2040,2075
2058,2067,2092,2018,2015,2042,2050,2091
2072,2071,2077,2005,2021,2042,2074,2088
2061,2064,2074,1995,2007,2028,2049,2088
2060,2053,2064,1993,2030,2016,2033,2079
2049,2048,2062,1992,2032,2017,2041,2079
2056,2051,2054,1993,2032,2034,2050,2081
2057,2052,2050,2008,2015,2038,2053,2064
2050,2044,2043,1999,1928,2049,2050,2057
2053,2054,2045,2040,1989,2079,2054,2054
2061,2057,2047,2066,2034,2091,2051,2058
2064,2058,2054,2036,1985,2053,2050,2049
2069,2052,2050,2027,1991,2036,2055,2059
2072,2057,2070,2058,2049,2045,2056,2058
2077,2067,2090,2080,2052,2055,2049,2059
2074,2074,2102,2094,2063,2066,2053,2049
2073,2075,2107,2101,2056,2077,2060,2040
2062,2071,2099,2090,2040,2078,2032,2035
2052,2064,2090,2080,1998,2076,2028,2034
2062,2071,2078,2076,1955,2061,2030,2047
2061,2064,2062,2043,1901,2022,2008,2037
2052,2050,2049,2025,1880,2021,2024,2030
2055,2060,2054,2036,1924,2006,2029,2045
2066,2067,2063,2059,2030,2010,2057,2051
2073,2071,2065,2057,2119,2050,2044,2040
2063,2056,2050,2034,2163,2070,2066,2047
2056,2040,2036,2017,2133,2043,2053,2039
2046,2040,2038,2026,2138,2071,2072,2043
2047,2051,2038,2040,2156,2084,2078,2043
2043,2056,2040,2044,2160,2099,2062,2045
2063,2055,2041,2065,2185,2109,2063,2055
2064,2057,2043,2080,2227,2073,2061,2061
2059,2049,2035,2080,2257,2087,2071,2073
2051,2040,2030,2080,2254,2081,2055,2073
2044,2025,2017,2064,2187,2066,2039,2057
2029,2010,2010,2045,2139,2065,2038,2055
2027,2003,1995,2041,2147,2059,2024,2050
2022,1998,1992,2036,2101,2051,2035,2053
2031,2007,1992,2029,2021,2050,2047,2059
2041,2018,2000,2032,1899,2031,2043,2063
2049,2026,2005,2028,1840,2020,2043,2055
2045,2028,1999,2026,1917,2025,2032,2046
2043,2027,1993,2036,1977,2034,2032,2044
2042,2028,1992,2040,2018,2041,2042,2040
2046,2020,1992,2038,2015,2041,2049,2042
2049,2024,1994,2025,1999,2016,2040,2040
2043,2021,1990,2005,1968,1986,2017,2030
2037,2022,1991,1999,1962,1996,2028,2026
2043,2038,2022,2012,1980,2017,2024,2027
2053,2069,2052,2033,1999,2037,2042,2025
2064,2079,2073,2041,2002,2037,2040,2031
2070,2080,2068,2042,2012,2042,2042,2032
2054,2058,2045,2030,2009,2035,2013,2029
2053,2047,2036,2034,2010,2036,2022,2030
2055,2055,2050,2053,2027,2050,2027,2035
2059,2066,2066,2069,2040,2061,2054,2043
2059,2074,2086,2087,2054,2062,2051,2047
2054,2067,2077,2078,2050,2061,2030,2046
2055,2056,2065,2063,2034,2061,2026,2044
2061,2055,2062,2056,2022,2064,2042,2044
2056,2062,2068,2060,2028,2076,2056,2058
2056,2056,2060,2066,2055,2080,2039,2066
2060,2052,2062,2076,2070,2056,2035,2074
2060,2056,2068,2085,2041,2035,2031,2073
2050,2054,2066,2078,2019,2038,2045,2075
2037,2051,2067,2073,1982,2038,2033,2088
2052,2065,2093,2076,1997,2047,2064,2100
2060,2080,2109,2079,1998,2041,2071,2096
2050,2066,2091,2050,1992,2017,2047,2092
2048,2062,2086,2036,1990,1992,2038,2087
2058,2078,2092,2034,1918,1999,2051,2095
2057,2077,2096,2056,1976,2040,2055,2087
2058,2080,2087,2077,2126,2060,2049,2073
2053,2080,2078,2077,2187,2058,2030,2067
2049,2071,2057,2063,2110,2041,2041,2055
2050,2059,2040,2061,2108,2049,2038,2042
2046,2055,2043,2080,2200,2040,2040,2039
2046,2052,2042,2066,2148,2037,2042,2028
2039,2046,2047,2045,1997,2025,2022,2016
2035,2049,2047,2026,1907,2033,2022,2016
2047,2067,2062,2028,1940,2075,2049,2028
2060,2071,2068,2001,1939,2084,2061,2032
2064,2069,2055,1952,1908,2057,2029,2028
2062,2063,2045,1938,1938,2013,2031,2035
2056,2052,2031,1970,2028,2027,2032,2040
2058,2048,2027,2003,2108,2052,2042,2038
2054,2053,2033,2049,2196,2087,2071,2029
2058,2052,2038,2072,2185,2099,2050,2024
2050,2047,2043,2084,2160,2096,2055,2030
2047,2046,2037,2074,2109,2082,2059,2031
2054,2046,2036,2056,2069,2078,2058,2037
2054,2050,2028,2061,2090,2070,2047,2047
2049,2044,2023,2053,2091,2059,2051,2044
2047,2040,2023,2037,2100,2092,2057,2049
2042,2046,2029,2053,2139,2140,2050,2051
2044,2050,2033,2062,2101,2146,2060,2060
2053,2054,2034,2066,2054,2137,2058,2069
2051,2060,2039,2058,1989,2121,2054,2076
2054,2060,2038,2070,1972,2060,2046,2091
2048,2056,2033,2047,1892,1923,2023,2089
2048,2045,2023,2021,1908,1880,2019,2089
2044,2043,2021,2031,2002,1942,2033,2100
2058,2057,2026,2030,1955,1984,2042,2100
2061,2059,2030,2016,1969,2001,2035,2090
2069,2063,2030,2012,1952,2029,2051,2080
2069,2061,2026,2016,1989,2047,2056,2069
2065,2060,2019,2013,2037,2039,2027,2054
2060,2051,2021,2010,2150,2030,2027,2045
2054,2043,2015,2030,2229,1994,2023,2039
2042,2039,2027,2047,2210,1975,2025,2042
2052,2052,2049,2066,2156,1995,2038,2048
2061,2058,2059,2085,2103,2039,2042,2038
2054,2052,2055,2081,2026,2105,2051,2038
2047,2052,2055,2071,2007,2184,2066,2028
2053,2054,2056,2036,1932,2191,2065,2035
2046,2047,2048,2006,1863,2128,2083,2041
2046,2033,2039,2011,1923,2017,2050,2040
2049,2026,2027,2017,1935,2027,2050,2044
2043,2025,2031,2031,1946,2067,2052,2050
2038,2028,2038,2024,1908,2061,2046,2050
2051,2044,2049,2007,1840,2028,2030,2053
2057,2062,2059,2004,1843,1990,2016,2044
2049,2046,2042,1962,1810,1945,1989,2026
2031,2036,2032,1973,1926,1987,2023,2049
2044,2049,2056,2064,2212,2039,2035,2050
2052,2053,2058,2053,2155,2017,2037,2049
2046,2055,2048,2018,2051,2022,2044,2057
2041,2062,2057,2036,1957,2088,2062,2072
2059,2075,2065,2043,1901,2109,2064,2076
2059,2071,2066,2033,1852,2110,2051,2085
2050,2061,2054,2015,1776,2074,2084,2092
2045,2043,2045,1981,1669,1965,2051,2099
2044,2026,2031,1978,1792,1943,2026,2110
2043,2026,2031,2027,2060,1993,2051,2123
2064,2057,2053,2088,2261,2061,2093,2133
2068,2062,2058,2126,2444,2090,2085,2125
2062,2061,2058,2147,2501,2110,2077,2098
2046,2050,2064,2168,2494,2112,2068,2071
2021,2040,2053,2180,2517,2140,2074,2054
2029,2042,2050,2172,2361,2140,2079,2060
2045,2055,2059,2149,2251,2115,2078,2060
2069,2062,2061,2082,2119,2064,2072,2050
2062,2046,2033,1950,1774,1999,2036,2029
2058,2043,2024,1928,1741,1979,2004,2017
2055,2033,2024,1970,1915,1941,1981,2019
2050,2031,2031,2009,2027,1929,1971,2006
2043,2038,2035,2003,1977,1937,1991,2000
2048,2047,2047,2026,1990,1985,2005,2008
2033,2026,2032,2027,2002,2015,2007,1998
2017,2020,2028,2021,2002,2036,2018,2001
2029,2041,2054,2037,2017,2053,2044,2013
2044,2061,2059,2046,2020,2056,2024,2038
2049,2061,2058,2042,2022,2051,2051,2049
2060,2065,2056,2038,2014,2042,2053,2050
2063,2065,2054,2035,1999,2027,2050,2048
2061,2057,2054,2041,2000,2034,2052,2049
2048,2050,2047,2040,2003,2040,2048,2045
2035,2050,2046,2040,2004,2064,2047,2056
2043,2047,2054,2043,2010,2081,2044,2059
2041,2051,2052,2056,2062,2100,2066,2070
2043,2048,2055,2060,2056,2108,2070,2076
2043,2042,2049,2059,2047,2102,2052,2082
2040,2038,2053,2063,2062,2111,2066,2088
2037,2046,2047,2070,2089,2114,2049,2092
2041,2042,2039,2063,2120,2101,2050,2081
2035,2038,2037,2034,2046,2057,2051,2081
2047,2041,2044,2024,1994,2063,2054,2081
2049,2047,2042,2023,1967,2079,2066,2072
2054,2058,2053,2025,1979,2082,2031,2070
2054,2056,2047,2036,2043,2060,2053,2056
2046,2046,2037,2049,2076,2021,2024,2044
2046,2044,2048,2050,2049,2049,2041,2052
2058,2057,2063,2064,2058,2072,2061,2058
2064,2066,2071,2078,2080,2083,2067,2058
2062,2076,2077,2093,2085,2059,2054,2057
2065,2083,2080,2093,2078,2049,2079,2056
2060,2074,2066,2067,1980,2059,2080,2050
2049,2066,2057,2056,2038,2079,2077,2057
2064,2069,2066,2053,2042,2064,2087,2059
2068,2068,2056,2016,1969,2005,2065,2049
2057,2058,2043,2012,1974,2001,2053,2055
2059,2058,2041,2009,1914,2026,2065,2062
2066,2065,2056,2025,2025,2068,2075,2054
2050,2050,2050,2045,2232,2071,2038,2040
2041,2049,2057,2081,2308,2017,2041,2034
2036,2049,2054,2048,2079,1985,2027,2026
2039,2033,2038,2015,1887,2014,2031,2040
2049,2037,2040,2039,1986,2076,2041,2044
2047,2048,2053,2063,2093,2111,2038,2048
2053,2060,2064,2051,2018,2085,2065,2060
2050,2061,2064,2014,1825,2015,2029,2056
2049,2057,2057,1983,1602,1914,2033,2068
2046,2053,2059,1990,1739,1887,2030,2089
2051,2061,2064,2018,1835,1981,2051,2091
2064,2060,2071,2037,1865,2105,2104,2110
2074,2063,2069,2062,2033,2174,2074,2111
2059,2048,2050,2070,2182,2171,2047,2100
2063,2050,2061,2092,2307,2141,2071,2122
2065,2071,2065,2088,2323,2053,2041,2094
2053,2048,2039,2022,2148,1917,1990,2057
2029,2028,2019,1956,1846,1917,1983,2038
2036,2032,2030,2004,1960,1991,1985,2038
2042,2047,2050,2058,2065,2004,2015,2047
2053,2046,2054,2084,2096,1983,2032,2036
2033,2030,2041,2058,2048,1970,2028,2023
2026,2031,2042,2044,2036,1996,2027,2016
2035,2043,2036,2051,2094,2051,2065,2021
2031,2039,2036,2062,2129,2089,2056,2025
2037,2040,2050,2064,2139,2103,2046,2026
2039,2044,2053,2058,2108,2060,2018,2023
2041,2040,2049,2050,2098,2041,2033,2009
2035,2041,2044,2047,2091,2041,2026,1999
2025,2028,2031,2042,2120,2055,2030,2003
2029,2029,2034,2047,2127,2080,2041,2013
2042,2048,2046,2063,2107,2092,2052,2035
2046,2047,2053,2063,2090,2082,2071,2033
2047,2050,2050,2062,2087,2066,2055,2037
2050,2053,2052,2060,2083,2046,2047,2040
2046,2056,2053,2053,2063,2045,2053,2045
2052,2052,2051,2043,2019,2052,2072,2058
2061,2063,2068,2049,1956,2051,2065,2069
2056,2062,2068,2056,2008,2048,2060,2073
2050,2061,2061,2058,2079,2062,2058,2068
2045,2045,2056,2055,2118,2077,2059,2070
2045,2051,2053,2051,2081,2069,2051,2084
2046,2053,2049,2051,2043,2046,2052,2080
2041,2050,2056,2048,2056,2016,2018,2077
2035,2052,2047,2035,2048,1994,2004,2066
2025,2030,2030,2010,2009,1983,2014,2064
2026,2035,2029,2031,2016,2033,2046,2081
2043,2053,2055,2061,2067,2087,2041,2094
2050,2053,2056,2071,2107,2111,2081,2089
2055,2046,2051,2076,2079,2117,2064,2072
2047,2047,2044,2057,1997,2112,2064,2063
2043,2057,2039,2053,1997,2104,2066,2052
2043,2049,2032,2050,2079,2117,2045,2045
2045,2047,2028,2032,2102,2064,2034,2036
2042,2041,2018,1993,2061,1999,2011,2030
2034,2038,2019,1991,1982,1961,1998,2027
2035,2046,2034,2011,1889,1967,2002,2037
2040,2054,2040,2033,1881,1982,2005,2040
2052,2052,2046,2055,1934,2002,2014,2034
2049,2056,2053,2058,1934,2005,2032,2031
2045,2056,2041,2028,1911,1985,2006,2017
2040,2044,2035,2016,2056,1983,2006,2024
2039,2045,2036,2031,2140,2006,2034,2035
2052,2066,2049,2066,2203,2050,2047,2044
2046,2058,2047,2068,2241,2064,2061,2041
2048,2053,2042,2075,2277,2056,2046,2029
2047,2046,2044,2076,2335,2053,2048,2028
2041,2042,2035,2085,2273,2057,2051,2029
2041,2038,2028,2039,1982,2029,2033,2027
2040,2034,2034,2030,1915,2039,2029,2043
2039,2039,2045,2035,1953,2022,2047,2058
2044,2043,2044,2034,1974,1999,2054,2060
2041,2039,2038,2029,1976,1999,2057,2062
2040,2036,2036,2036,2028,2018,2058,2071
2043,2036,2041,2051,2066,2032,2057,2071
2050,2047,2051,2058,2048,2043,2043,2083
2054,2047,2046,2051,2027,2053,2078,2080
2035,2028,2034,2042,2041,2081,2072,2072
2035,2032,2027,2048,2039,2126,2087,2080
2050,2052,2040,2048,2037,2143,2071,2084
2051,2046,2039,2038,2043,2089,2054,2077
2052,2055,2046,2047,2050,2044,2045,2071
2050,2053,2050,2049,2055,2037,2047,2057
2043,2054,2052,2052,2065,2053,2045,2047
2048,2047,2053,2052,2069,2066,2042,2039
2042,2045,2046,2050,2060,2066,2002,2027
2034,2040,2038,2046,2068,2063,2015,2018
2036,2035,2042,2046,2076,2060,2002,2020
2033,2030,2040,2049,2078,2097,2007,2010
2034,2028,2038,2051,2078,2148,2021,2020
2034,2026,2040,2056,2080,2167,2052,2030
2049,2026,2042,2062,2091,2119,2082,2042
2044,2029,2041,2057,2073,2025,2085,2026
2026,2011,2025,2034,2020,1999,2051,2014
2023,2009,2020,2032,2002,2021,2083,2026
2036,2016,2021,2038,2027,2047,2097,2017
2032,2016,2019,2038,2022,2053,2088,2017
2032,2015,2020,2044,2006,2051,2071,2020
2033,2025,2024,2045,2003,2049,2080,2030
2036,2023,2031,2040,2020,2073,2062,2037
2042,2037,2044,2047,2046,2086,2059,2031
2050,2039,2049,2049,2055,2096,2042,2032
2049,2038,2037,2048,2073,2101,2038,2038
2044,2039,2038,2038,2078,2083,2015,2049
2036,2040,2034,2032,2092,2070,2006,2059
2033,2040,2039,2037,2102,2096,2042,2072
2044,2051,2049,2041,2106,2112,2070,2096
2057,2063,2058,2040,2103,2104,2052,2093
2062,2069,2059,2045,2096,2081,2052,2088
2050,2056,2053,2033,2077,2042,2048,2082
2043,2047,2040,2035,2061,2009,2025,2084
2053,2062,2048,2031,2012,1953,2032,2078
2047,2057,2052,2027,1973,1923,2016,2064
2046,2054,2055,2034,1989,1934,2020,2058
2049,2058,2054,2038,2017,1961,2020,2052
2051,2065,2058,2041,2027,2013,2038,2048
2056,2059,2057,2035,2010,2071,2063,2034
2056,2060,2059,2031,2016,2076,2070,2031
2057,2062,2064,2044,2033,2047,2065,2029
2053,2057,2055,2044,2032,2038,2056,2013
2046,2050,2053,2040,2068,2027,2042,2011
2049,2048,2050,2059,2154,2063,2072,2018
2048,2049,2052,2072,2146,2069,2091,2020
2054,2053,2052,2069,2125,2083,2088,2023
2052,2051,2052,2068,2099,2091,2085,2021
2049,2036,2041,2051,2081,2085,2051,2016
2040,2027,2032,2057,2076,2074,2008,2018
2048,2041,2046,2065,2092,2073,2021,2025
2057,2047,2051,2061,2090,2067,2038,2035
2054,2051,2048,2064,2091,2066,2034,2037
2055,2043,2043,2060,2078,2024,2006,2042
2050,2043,2039,2053,2058,1998,2027,2031
2045,2050,2038,2054,2052,2013,2021,2035
2041,2049,2030,2048,2048,2045,2051,2027
2043,2042,2038,2047,2051,2086,2053,2038
2044,2045,2031,2043,2061,2090,2070,2044
2040,2045,2033,2041,2055,2084,2066,2058
2042,2048,2028,2033,2024,2076,2029,2069
2041,2052,2029,2013,1982,2003,2049,2062
2038,2049,2036,2001,1937,1948,2028,2051
2037,2044,2037,2003,1912,1919,1999,2059
2027,2036,2044,2010,1936,1876,2010,2059
2028,2033,2057,2041,2023,1886,2025,2081
2048,2066,2104,2094,2115,1970,2062,2095
2062,2077,2114,2108,2168,2046,2062,2080
2052,2072,2105,2107,2178,2094,2076,2072
2051,2062,2102,2094,2147,2086,2058,2060
2043,2046,2092,2076,2104,2072,2037,2049
2043,2046,2075,2071,2082,2048,2036,2048
2049,2050,2071,2074,2085,2015,2047,2046
2046,2053,2069,2076,2089,2020,2037,2041
2050,2050,2064,2071,2091,2048,2056,2040
2058,2045,2060,2072,2096,2058,2065,2036
2053,2044,2059,2068,2099,2061,2063,2036
2055,2050,2061,2070,2099,2070,2068,2019
2053,2047,2049,2071,2111,2080,2053,2018
2046,2047,2053,2057,2138,2105,2059,2021
2045,2040,2040,2040,2127,2093,2037,2021
2033,2028,2033,2027,2119,2074,2066,2024
2035,2032,2042,2029,2137,2081,2075,2026
2042,2042,2045,2031,2134,2078,2074,2025
2045,2051,2047,2032,2132,2076,2067,2036
2053,2055,2052,2036,2103,2067,2057,2036
2050,2055,2049,2020,1942,2044,2046,2034
2051,2051,2045,2017,1916,2049,2057,2031
2048,2044,2044,2036,1980,2069,2039,2046
2052,2046,2044,2043,2019,2084,2036,2057
2057,2048,2047,2050,2052,2079,2047,2058
2056,2043,2043,2049,2046,2065,2032,2061
2045,2031,2040,2051,2034,2064,2027,2061
2048,2033,2052,2056,2075,2068,2010,2064
2038,2035,2050,2053,2080,2064,2044,2061
2036,2036,2056,2054,2077,2073,2041,2064
2035,2037,2047,2048,2051,2057,2029,2054
2025,2015,2035,2040,2064,2047,2021,2050
2016,2018,2039,2056,2117,2058,2023,2057
2030,2031,2042,2067,2130,2043,2009,2055
2033,2031,2049,2066,2122,2006,2023,2059
2031,2033,2050,2058,2098,1985,2029,2062
2039,2038,2054,2059,2062,1983,2032,2051
2039,2043,2050,2055,2062,1995,2024,2040
2050,2048,2054,2059,2071,2011,2031,2034
2042,2042,2052,2063,2074,2011,2026,2043
2047,2046,2047,2066,2081,2022,2027,2040
2049,2050,2055,2067,2075,2031,2041,2041
2053,2056,2059,2066,2070,2037,2030,2035
2056,2055,2059,2059,2059,2040,2040,2027
2051,2047,2054,2054,2046,2052,2041,2017
2052,2047,2048,2057,2046,2053,2047,2017
2058,2051,2049,2056,2054,2053,2030,2012
2047,2038,2039,2054,2060,2052,2028,2008
2045,2042,2036,2060,2070,2060,2049,2022
2058,2053,2051,2070,2081,2066,2059,2022
2056,2047,2041,2066,2071,2051,2049,2014
2041,2038,2036,2053,2072,2047,2034,2014
2048,2036,2038,2060,2075,2036,2035,2025
2052,2042,2045,2067,2078,2038,2044,2034
2052,2043,2043,2071,2090,2044,2042,2044
2054,2041,2043,2068,2096,2042,2053,2043
2057,2040,2056,2074,2091,2039,2054,2049
2053,2046,2061,2074,2089,2046,2050,2060
2050,2039,2057,2071,2088,2050,2057,2059
2045,2036,2054,2068,2084,2047,2051,2068
2047,2035,2053,2061,2085,2043,2041,2069
2054,2038,2051,2074,2088,2045,2038,2076
2048,2045,2060,2074,2078,2047,2057,2085
2049,2036,2056,2066,2076,2032,2048,2084
2030,2031,2046,2066,2071,2032,2051,2079
2030,2039,2050,2069,2067,2044,2040,2080
2038,2040,2041,2073,2067,2040,2043,2075
2035,2042,2043,2070,2067,2048,2034,2065
2047,2052,2046,2073,2076,2049,2044,2056
2053,2051,2045,2068,2065,2068,2034,2046
2043,2044,2036,2058,2072,2083,2048,2050
2042,2042,2031,2058,2079,2091,2040,2037
2040,2040,2035,2054,2067,2087,2034,2034
2039,2033,2035,2046,2055,2068,2026,2027
2040,2031,2048,2042,2042,2044,2035,2032
2037,2045,2056,2043,2041,2044,2042,2030
2040,2050,2069,2056,2043,2050,2042,2031
2041,2050,2072,2049,2049,2048,2042,2035
2050,2048,2069,2055,2058,2051,2031,2034
2048,2044,2067,2049,2043,2038,2029,2018
2039,2028,2065,2050,2049,2048,2034,2019
2037,2036,2077,2064,2074,2073,2058,2031
2051,2051,2073,2068,2069,2082,2058,2023
2042,2047,2074,2072,2069,2084,2069,2017
2043,2048,2065,2076,2076,2089,2053,2024
2038,2051,2062,2076,2086,2091,2048,2028
2043,2057,2064,2074,2090,2086,2053,2040
2045,2058,2068,2073,2077,2060,2034,2039
2047,2048,2060,2070,2071,2031,2018,2041
2042,2050,2057,2067,2072,2033,2031,2051
2041,2048,2063,2068,2069,2045,2050,2060
2048,2051,2062,2071,2075,2067,2054,2064
2052,2051,2063,2065,2075,2066,2047,2064
2053,2054,2060,2065,2069,2057,2042,2066
2047,2050,2056,2064,2068,2050,2025,2060
2047,2047,2053,2058,2069,2036,2024,2051
2031,2032,2041,2047,2068,2031,2029,2056
2030,2032,2045,2054,2077,2023,2033,2055
2043,2055,2057,2061,2072,2013,2045,2051
2045,2054,2054,2064,2078,2037,2033,2051
2050,2051,2048,2062,2080,2061,2043,2050
2040,2045,2045,2063,2077,2093,2067,2051
2043,2045,2051,2062,2080,2099,2045,2041
2039,2048,2049,2062,2082,2088,2052,2045
2050,2046,2052,2064,2086,2080,2048,2048
2047,2049,2045,2059,2080,2056,2047,2037
2041,2050,2046,2062,2077,2049,2042,2040
2041,2046,2039,2060,2083,2057,2038,2030
2044,2043,2037,2064,2081,2066,2038,2026
2041,2043,2037,2062,2075,2066,2032,2029
2048,2047,2039,2052,2074,2059,2043,2027
2047,2044,2040,2052,2068,2075,2034,2025
2044,2040,2036,2050,2064,2104,2048,2019
2039,2038,2036,2045,2067,2130,2063,2023
2049,2048,2049,2054,2066,2126,2069,2024
2050,2048,2045,2047,2051,2062,2057,2015
2047,2046,2045,2049,2040,1963,2037,2014
2042,2046,2052,2044,2033,1978,2029,2020
2042,2045,2050,2053,2030,2036,2052,2021
2042,2044,2046,2053,2029,2090,2048,2030
2047,2048,2041,2047,2030,2118,2054,2033
2040,2041,2040,2042,2044,2106,2025,2037
2045,2045,2039,2058,2083,2014,2043,2049
2050,2048,2047,2064,2091,1973,2041,2060
2042,2047,2050,2061,2084,2000,2027,2062
2035,2040,2050,2054,2079,2018,2031,2060
2032,2040,2041,2050,2069,2022,2036,2072
2040,2038,2043,2049,2062,2027,2039,2074
2041,2031,2038,2041,2055,2024,2019,2074
2037,2030,2032,2032,2056,2037,2022,2075
2044,2041,2046,2051,2061,2052,2026,2077
2050,2045,2045,2049,2068,2050,2031,2072
2050,2050,2035,2042,2060,2038,2039,2064
2045,2044,2035,2036,2051,2037,2042,2062
2042,2043,2036,2034,2051,2050,2049,2049
2038,2045,2046,2036,2056,2060,2053,2048
2046,2054,2060,2039,2063,2076,2069,2048
2046,2051,2058,2045,2060,2081,2082,2037
2052,2052,2046,2036,2056,2081,2102,2034
2042,2051,2039,2039,2059,2095,2082,2035
2048,2053,2055,2047,2064,2107,2076,2031
2048,2062,2064,2051,2064,2109,2083,2029
2046,2058,2063,2052,2069,2098,2081,2030
2052,2058,2068,2050,2062,2074,2066,2023
2051,2053,2068,2048,2049,2047,2040,2017
2033,2036,2057,2045,2049,2046,2029,2007
2028,2037,2053,2048,2063,2062,2051,2023
2046,2056,2067,2054,2077,2057,2064,2026
2043,2052,2063,2058,2071,2027,2064,2037
2045,2047,2061,2055,2074,2013,2076,2034
2042,2050,2059,2064,2075,2030,2077,2042
2043,2047,2058,2055,2062,2040,2077,2046
2043,2046,2051,2049,2058,2053,2073,2047
2045,2050,2051,2058,2059,2076,2067,2058
2051,2053,2058,2057,2057,2078,2067,2060
2048,2050,2057,2063,2062,2029,2066,2060
2050,2047,2055,2063,2056,2006,2060,2067
2049,2049,2056,2056,2061,2016,2056,2070
2048,2045,2052,2051,2055,2026,2050,2073
2039,2042,2049,2041,2048,2032,2051,2074
2038,2044,2042,2044,2048,2034,2049,2068
2031,2024,2031,2036,2046,2038,2050,2069
2028,2026,2025,2040,2056,2054,2060,2073
2041,2039,2033,2047,2053,2060,2067,2073
2039,2038,2037,2042,2036,2076,2062,2057
2035,2038,2036,2030,1999,2088,2044,2048
2037,2036,2031,2026,1983,2092,2048,2039
2040,2034,2029,2023,1975,2066,2047,2037
2044,2033,2028,2024,1988,2016,2044,2041
2044,2035,2033,2050,2045,1963,2047,2059
2052,2048,2037,2070,2096,1972,2055,2054
2053,2047,2032,2069,2104,2028,2077,2050
2055,2041,2024,2056,2091,2062,2088,2039
2051,2040,2023,2060,2084,2068,2074,2033
2050,2036,2029,2056,2079,2080,2059,2030
2047,2041,2033,2058,2084,2078,2064,2036
2047,2050,2048,2056,2082,2072,2045,2018
2042,2039,2036,2049,2078,2058,2026,2014
2039,2040,2041,2046,2084,2061,2025,2016
2049,2043,2039,2053,2082,2079,2046,2025
2048,2042,2036,2055,2074,2051,2035,2033
2046,2047,2043,2050,2071,2025,2037,2026
2049,2052,2042,2048,2070,2020,2043,2031
2043,2054,2056,2041,2037,2042,2077,2031
2042,2055,2063,2033,2007,2058,2058,2023
2040,2049,2065,2041,2041,2045,2058,2032
2040,2052,2068,2046,2033,2012,2062,2046
2059,2060,2074,2065,2033,1977,2073,2064
2056,2059,2082,2064,2026,1995,2065,2073
2057,2066,2079,2060,2040,2025,2062,2074
2053,2058,2065,2049,2032,2038,2071,2083
2056,2053,2058,2031,2001,2043,2070,2083
2058,2054,2057,2026,2020,2061,2063,2086
2054,2049,2043,2014,2002,2054,2033,2058
2040,2034,2044,2004,2018,2028,2025,2058
2041,2047,2052,2039,2067,2049,2048,2058
2058,2056,2063,2051,2098,2071,2053,2053
2051,2053,2058,2056,2094,2079,2068,2052
2048,2058,2063,2052,2073,2068,2074,2055
2049,2058,2060,2051,2050,2052,2053,2053
2058,2065,2058,2048,2042,2046,2051,2049
2053,2066,2062,2051,2045,2047,2046,2050
2055,2071,2066,2058,2040,2030,2036,2049
2052,2072,2070,2059,2033,2019,2042,2046
2062,2069,2068,2058,2019,2008,2025,2044
2060,2071,2068,2053,2013,2006,2032,2029
2051,2071,2067,2056,1998,2016,2041,2036
2051,2066,2066,2045,2003,2023,2049,2036
2049,2057,2067,2044,2019,2026,2060,2031
2054,2057,2061,2048,2028,2039,2059,2016
2051,2042,2052,2040,2064,2060,2050,2019
2040,2032,2049,2050,2096,2086,2076,2033
2058,2058,2063,2057,2108,2105,2068,2027
2053,2055,2069,2056,2116,2125,2070,2033
2049,2048,2060,2055,2126,2121,2076,2024
2043,2043,2052,2045,2136,2050,2071,2029
2037,2042,2056,2060,2154,2064,2073,2032
2037,2047,2053,2060,2107,2073,2068,2038
2038,2045,2052,2047,1978,2050,2062,2037
2039,2039,2052,2038,1971,2040,2055,2051
2038,2037,2046,2041,2020,2042,2048,2054
2048,2046,2046,2044,2056,2058,2042,2066
2038,2044,2048,2042,2064,2060,2066,2068
2038,2046,2042,2039,2053,2053,2050,2070
2044,2049,2044,2032,2041,2046,2047,2072
2042,2050,2045,2038,2063,2050,2025,2067
2039,2034,2034,2040,2085,2043,2028,2075
2035,2043,2035,2050,2102,2057,2031,2074
2045,2053,2044,2054,2107,2068,2030,2071
2048,2050,2041,2048,2080,2063,2007,2063
2041,2044,2036,2040,2040,2043,2032,2064
2045,2053,2047,2036,2003,2047,2041,2064
2059,2053,2041,2032,1972,2075,2048,2051
2049,2046,2032,2016,1943,2097,2040,2029
2049,2044,2026,2003,1930,2113,2045,2040
2049,2047,2036,2009,1924,2110,2056,2036
2053,2052,2038,2027,2007,2064,2054,2045
2054,2054,2041,2046,2118,2023,2054,2054
2054,2050,2042,2069,2171,2031,2069,2040
2050,2047,2034,2070,2158,2058,2073,2032
2048,2038,2035,2065,2118,2074,2049,2028
2047,2043,2039,2058,2094,2085,2045,2028
2049,2034,2026,2038,2067,2066,2038,2020
2044,2029,2021,2030,2043,2042,2043,2015
2042,2039,2030,2039,2050,2034,2050,2025
2041,2046,2037,2035,2052,2047,2052,2024
2040,2042,2034,2043,2070,2089,2072,2026
2044,2041,2040,2052,2084,2100,2070,2043
2047,2040,2043,2055,2076,2084,2072,2056
2046,2040,2041,2053,2068,2070,2075,2060
2051,2035,2044,2041,2065,2073,2078,2066
2053,2038,2042,2030,2054,2059,2076,2066
2049,2033,2044,2036,2059,2052,2076,2065
2043,2033,2054,2045,2077,2048,2070,2069
2045,2039,2056,2056,2084,2034,2049,2070
2041,2032,2047,2048,2053,2020,2028,2062
2036,2029,2045,2046,2033,2013,2016,2076
2046,2031,2044,2046,2021,2006,2031,2077
2044,2036,2046,2045,2022,2022,2032,2067
2042,2028,2052,2052,2022,2033,2044,2071
2036,2036,2059,2062,2010,2051,2052,2066
2047,2044,2063,2059,2003,2039,2038,2060
2033,2044,2055,2053,1997,2030,2040,2049
2032,2038,2048,2051,1998,2033,2026,2046
2041,2041,2051,2051,2010,2034,2020,2046
2048,2048,2060,2052,2033,2028,2028,2049
2066,2059,2064,2051,2053,2027,2021,2050
2069,2065,2066,2056,2069,2042,2038,2050
2068,2065,2060,2056,2062,2052,2038,2057
2063,2059,2051,2053,2047,2046,2046,2053
2064,2056,2040,2042,2029,2037,2060,2047
2060,2050,2026,2029,2021,2048,2026,2040
2049,2041,2017,2022,2012,2072,2028,2032
2045,2038,2024,2011,2013,2111,2010,2028
2057,2043,2029,2013,2042,2152,1993,2020
2046,2032,2020,2009,2040,2217,2035,2020
2044,2029,2022,2003,2035,2274,2051,2025
2055,2051,2037,2018,2054,2213,2052,2037
2060,2060,2040,2013,2049,1988,2035,2039
2061,2060,2038,2014,2028,1873,2022,2038
2050,2052,2035,2012,2028,1930,2027,2047
2041,2046,2040,2024,2047,1978,2058,2056
2043,2047,2047,2036,2058,2004,2070,2071
2055,2058,2057,2039,2043,2012,2063,2070
2061,2055,2061,2037,2027,2018,2047,2074
2063,2055,2057,2035,2022,2029,2047,2086
2055,2056,2050,2046,2030,2044,2057,2093
2063,2060,2050,2047,2033,2050,2038,2096
2059,2047,2038,2039,2010,2055,2056,2091
2052,2044,2039,2030,2004,2056,2055,2075
2045,2039,2036,2032,2014,2045,2045,2068
2031,2041,2030,2032,2000,2019,2035,2073
2040,2039,2035,2039,2004,2010,2001,2087
2046,2054,2045,2049,2021,2010,2030,2088
2053,2047,2061,2074,2041,2020,2028,2086
2052,2048,2073,2101,2049,2033,2047,2084
2058,2048,2088,2111,2044,2025,2041,2076
2056,2057,2099,2109,2046,2024,2054,2071
2054,2059,2097,2101,2045,2039,2047,2064
2062,2057,2093,2102,2038,2051,2054,2063
2054,2055,2085,2089,2023,2052,2061,2052
2057,2052,2084,2097,2034,2057,2052,2051
2056,2052,2070,2108,2081,2060,2056,2048
2058,2051,2068,2106,2089,2057,2046,2052
2059,2052,2056,2107,2074,2034,2045,2047
2061,2050,2042,2106,2047,2046,2034,2041
2059,2056,2051,2112,2038,2050,2048,2042
2061,2063,2056,2101,2028,2044,2034,2037
2051,2054,2044,2063,1995,2033,2031,2029
2047,2051,2033,2036,1971,2028,2033,2038
2060,2062,2054,2033,1979,2037,2031,2041
2056,2067,2059,2020,1969,2039,2027,2048
2062,2064,2046,2001,1947,2024,2034,2051
2060,2061,2036,1992,1945,2016,2044,2050
2055,2054,2024,1970,1975,2018,2036,2058
2055,2055,2020,1960,1967,2016,2047,2068
2056,2052,2016,1948,1976,2016,2064,2073
2060,2047,2010,1948,2040,2037,2076,2089
2066,2045,2016,1948,2073,2043,2082,2092
2061,2049,2020,1958,2085,2043,2067,2082
2055,2051,2037,1982,2090,2055,2055,2091
2059,2053,2057,2012,2124,2076,2062,2093
2060,2056,2060,2029,2108,2077,2045,2081
2053,2045,2050,2008,2010,2080,2042,2073
2030,2027,2032,1987,1968,2084,2004,2064
2033,2024,2029,1999,1979,2057,1991,2067
2037,2027,2037,2005,2009,2058,2015,2066
2037,2038,2035,2007,2013,2062,2008,2063
2043,2035,2034,1999,1997,2044,2014,2059
2041,2042,2026,2000,1974,2031,2012,2052
2042,2039,2030,1999,1962,2018,2028,2051
2040,2041,2021,1998,1971,1997,2046,2056
2045,2047,2024,2015,2022,2010,2057,2062
2056,2056,2037,2034,2070,2034,2069,2064
2057,2047,2038,2029,2066,2056,2067,2053
2053,2042,2025,2020,2075,2076,2075,2053
2055,2041,2031,2025,2111,2082,2073,2048
2056,2039,2027,2017,2113,2077,2074,2034
2048,2035,2027,2012,2108,2065,2066,2037
2042,2036,2026,2016,2133,2066,2068,2042
2049,2033,2022,2020,2128,2048,2052,2038
2042,2021,2016,2013,2108,2034,2038,2042
2038,2022,2007,2016,2100,2042,2049,2045
2052,2045,2037,2035,2082,2040,2034,2048
2050,2051,2040,2025,1947,2003,2030,2055
2048,2055,2043,2026,1941,2004,2019,2052
2046,2054,2042,2033,1989,2006,2030,2056
2059,2058,2034,2033,2006,2020,2027,2058
2060,2056,2031,2022,1988,2020,2049,2068
2059,2053,2027,2030,1997,2017,2042,2064
2063,2056,2038,2042,2029,2028,2024,2060
2062,2058,2042,2053,2048,2043,2035,2064
2059,2052,2038,2054,2062,2054,2053,2069
2055,2056,2040,2060,2069,2053,2038,2077
2055,2048,2036,2053,2064,2048,2035,2079
2046,2040,2037,2047,2043,2055,2041,2078
2054,2041,2040,2041,2026,2054,2028,2085
2048,2044,2039,2047,2008,2058,2034,2081
2042,2029,2032,2039,2006,2060,2019,2079
2032,2029,2032,2044,2008,2064,2029,2096
2045,2043,2044,2049,2006,2058,2034,2095
2046,2041,2044,2044,1997,2038,2021,2090
2053,2041,2052,2046,2015,2048,1995,2080
2053,2045,2061,2062,2062,2056,2014,2074
2049,2052,2062,2062,2062,2056,2031,2073
2047,2054,2071,2047,2051,2053,2035,2065
2059,2058,2070,2034,2039,2047,2052,2058
2056,2055,2067,2017,2016,2037,2064,2045
2050,2057,2062,2002,2005,2025,2038,2042
2056,2054,2058,2001,1991,2012,2037,2028
2054,2053,2055,1993,1993,2022,2027,2022
2053,2044,2055,2001,1995,2047,2043,2034
2056,2050,2058,2021,2017,2065,2067,2042
2065,2055,2068,2031,2029,2075,2066,2044
2070,2056,2064,2036,2029,2066,2052,2040
2060,2038,2062,2040,2033,2056,2042,2038
2049,2043,2070,2057,2048,2058,2063,2046
2055,2055,2067,2060,2051,2052,2057,2042
2052,2052,2065,2056,2045,2043,2064,2043
2047,2053,2062,2047,2038,2053,2065,2052
2060,2054,2068,2048,2052,2067,2059,2050
2057,2049,2059,2044,2055,2083,2053,2049
2058,2045,2057,2037,2050,2078,2060,2057
2054,2050,2055,2034,2038,2074,2051,2061
2059,2052,2051,2032,2023,2078,2070,2065
2058,2051,2053,2031,2025,2050,2068,2081
2061,2048,2054,2039,2040,2043,2059,2087
2054,2049,2051,2046,2051,2067,2071,2090
2055,2053,2049,2033,2044,2076,2056,2088
2058,2051,2044,2035,2025,2069,2047,2085
2047,2049,2046,2021,2012,2064,2053,2081
2040,2037,2032,2015,2007,2036,2022,2078
2036,2028,2026,2020,2012,2029,2028,2083
2047,2044,2036,2030,2023,2020,2043,2081
2056,2049,2038,2027,2028,2001,2038,2084
2060,2043,2038,2031,2023,2001,2032,2074
2056,2043,2037,2036,2029,2018,2029,2064
2056,2035,2031,2027,2020,2031,2040,2062
2044,2032,2027,2027,2023,2016,2025,2049
2044,2028,2024,2031,2016,1976,2008,2041
2041,2025,2023,2033,2020,1984,2030,2041
2045,2028,2023,2032,2021,2003,2041,2040
2040,2026,2027,2032,2014,2026,2038,2031
2029,2026,2026,2034,2015,2043,2067,2031
2033,2031,2034,2038,2013,2052,2042,2040
2047,2033,2042,2034,2001,2049,2037,2037
2059,2041,2042,2039,2004,2033,2035,2047
2061,2043,2044,2042,1999,2005,2038,2059
2052,2032,2030,2032,1963,1989,2025,2058
2054,2040,2026,2029,1957,1984,2025,2061
2065,2056,2039,2033,1962,2010,2018,2056
2061,2043,2023,2011,1964,2052,2025,2047
2056,2038,2031,2022,1994,2074,2054,2045
2056,2043,2036,2039,2012,2067,2063,2046
2051,2044,2032,2041,2019,2057,2047,2055
2047,2039,2034,2043,2031,2026,2061,2061
2049,2045,2033,2054,2052,1988,2049,2069
2048,2036,2028,2052,2067,1998,2055,2059
2050,2047,2039,2075,2110,2038,2050,2060
2065,2056,2050,2091,2119,2052,2064,2066
2063,2063,2054,2085,2111,2076,2059,2079
2065,2065,2050,2076,2103,2090,2041,2094
2056,2056,2041,2067,2094,2093,2030,2092
2056,2055,2038,2064,2078,2118,2035,2094
2056,2052,2031,2053,2059,2106,2024,2080
2047,2037,2017,2046,2052,2080,2031,2082
2048,2033,2022,2046,2050,2060,2033,2082
2050,2043,2028,2050,2055,2038,2022,2086
2059,2043,2028,2048,2051,2038,2031,2081
2059,2049,2036,2045,2050,2038,2041,2069
2054,2046,2032,2050,2046,2025,2029,2061
2051,2047,2038,2046,2030,2020,2030,2064
2055,2049,2034,2042,2028,2025,2024,2057
2056,2043,2032,2043,2038,2041,2049,2051
2062,2047,2042,2040,2037,2055,2059,2054
2058,2051,2041,2041,2031,2060,2055,2052
2057,2053,2038,2050,2032,2063,2052,2046
2058,2051,2047,2050,2031,2059,2045,2044
2059,2056,2045,2048,2031,2057,2047,2041
2056,2055,2049,2056,2025,2058,2050,2042
2062,2055,2051,2048,2033,2052,2036,2038
2058,2041,2039,2046,2018,2020,2034,2028
2053,2040,2039,2054,2060,2006,2030,2028
2057,2053,2050,2068,2074,2000,2038,2041
2063,2064,2057,2069,2050,1993,2034,2043
2063,2064,2052,2065,2032,1983,2031,2045
2058,2059,2049,2058,2010,2010,2014,2037
2058,2056,2045,2062,2038,2068,2033,2044
2062,2065,2060,2082,2079,2110,2062,2056
2064,2061,2058,2076,2063,2104,2056,2051
2060,2054,2051,2053,2016,2094,2033,2058
2058,2047,2043,2048,2008,2084,2045,2069
2061,2049,2049,2056,2004,2054,2049,2073
2064,2050,2046,2042,2014,2058,2043,2073
2051,2049,2043,2032,1988,2055,2033,2067
2051,2038,2036,2027,1973,2054,2051,2073
2051,2041,2037,2023,1962,2048,2046,2087
2054,2048,2045,2030,1985,2015,2052,2090
2054,2037,2035,2040,2025,1992,2023,2095
2048,2037,2038,2062,2074,2026,2039,2097
2052,2052,2055,2090,2114,2094,2068,2093
2048,2054,2055,2097,2120,2126,2074,2072
2046,2046,2054,2088,2102,2124,2055,2064
2045,2046,2052,2084,2068,2126,2047,2070
2055,2051,2062,2086,2058,2119,2068,2071
2066,2058,2068,2079,2046,2093,2046,2071
2071,2055,2069,2082,2052,2044,2035,2063
2071,2056,2071,2077,2045,2007,2052,2050
2070,2058,2069,2080,2046,1988,2065,2049
2074,2064,2062,2072,2031,1979,2062,2053
2070,2060,2063,2079,2016,1994,2051,2046
2066,2060,2063,2075,2010,2006,2048,2035
2055,2049,2066,2072,2023,2044,2045,2026
2059,2056,2059,2072,2029,2068,2058,2026
2061,2054,2059,2066,2021,2089,2059,2022
2051,2033,2046,2048,2015,2123,2054,2027
2052,2034,2041,2045,2022,2156,2072,2043
2061,2043,2041,2037,2018,2120,2068,2039
2059,2042,2040,2027,2026,2029,2058,2041
2059,2048,2039,2028,2068,1996,2063,2048
2058,2050,2041,2033,2077,2032,2073,2052
2069,2055,2045,2027,2045,2043,2075,2053
2065,2051,2037,2020,2039,2042,2064,2058
2062,2046,2037,2025,2041,2045,2061,2064
2058,2054,2032,2035,2036,2036,2070,2070
2053,2073,2036,2056,2047,2028,2050,2075
2057,2082,2049,2070,2080,2032,2058,2079
2056,2074,2052,2064,2084,2036,2064,2088
2061,2071,2052,2041,2056,2027,2044,2082
2056,2055,2042,2029,2044,2011,2063,2083
2057,2020,2043,2027,2029,2004,2039,2082
2053,1992,2029,2011,2028,2007,2025,2063
2040,1975,2021,1994,2019,2040,2014,2059
2041,1977,2025,1988,2020,2032,2026,2072
2046,1991,2025,1981,2002,1987,2006,2056
2039,1996,2022,1984,1997,1964,2010,2046
2035,2001,2029,1997,2009,1979,2027,2039
2041,2006,2033,2020,2028,1996,2029,2036
2044,2014,2043,2024,2030,2023,2053,2036
2039,2018,2046,2028,2022,2041,2046,2028
2032,2017,2046,2030,2011,2059,2072,2024
2021,2020,2042,2046,2032,2061,2050,2025
2029,2018,2046,2057,2055,2070,2046,2027
2034,2028,2044,2061,2072,2097,2055,2043
2038,2028,2044,2049,2085,2147,2056,2036
2043,2029,2039,2049,2105,2183,2055,2037
2040,2032,2045,2054,2104,2149,2044,2033
2052,2046,2048,2060,2108,2049,2035,2034
2048,2036,2036,2055,2119,2033,2041,2033
2044,2016,2028,2057,2114,2071,2068,2040
2052,2033,2051,2059,2011,2081,2068,2052
2054,2036,2052,2065,1983,2057,2060,2054
2061,2038,2051,2060,2011,2018,2057,2049
2062,2048,2053,2060,2028,1989,2054,2057
2062,2053,2055,2054,2026,1960,2049,2046
2056,2055,2050,2044,2022,1936,2029,2048
2051,2052,2050,2031,2015,1942,2021,2040
2055,2051,2050,2025,1999,1964,2035,2044
2062,2060,2058,2028,2009,2001,2038,2057
2066,2051,2059,2033,1994,2047,2053,2049
2058,2049,2048,2028,1971,2067,2058,2052
2050,2037,2036,2032,1975,2095,2067,2060
2047,2048,2040,2049,1974,2091,2063,2059
2050,2054,2047,2068,1982,2044,2066,2068
2054,2063,2053,2084,1992,2007,2041,2075
2057,2057,2048,2087,2033,2005,2057,2083
2058,2056,2048,2102,2067,2028,2068,2088
2074,2077,2066,2116,2093,2057,2059,2090
2075,2081,2077,2117,2062,2064,2059,2081
