CH1,CH2,CH3,CH4,CH5,CH6,CH7,CH8
2066,2042,2032,2110,2104,2067,2046,2055
2066,2041,2029,2122,2141,2069,2035,2059
2067,2040,2035,2114,2161,2063,2018,2070
2062,2042,2025,2091,2167,2059,2026,2066
2054,2032,2015,2087,2169,2059,2028,2064
2040,2021,2025,2080,2153,2054,2038,2068
2039,2026,2031,2071,2126,2045,2034,2081
2036,2033,2031,2045,2096,2036,2023,2079
2030,2018,2005,2009,2054,2029,2038,2081
2032,2016,2002,1996,2011,2027,2047,2093
2036,2019,2004,1975,1908,2016,2058,2097
2043,2034,2032,1961,1904,2012,2055,2092
2055,2059,2058,1966,1959,2031,2055,2096
2058,2068,2086,1957,1983,2030,2046,2090
2052,2070,2091,1940,1980,2031,2056,2085
2053,2071,2086,1957,1997,2032,2076,2086
2068,2075,2090,1994,2017,2046,2066,2073
2064,2078,2084,2015,2038,2055,2062,2059
2059,2065,2059,2026,2072,2061,2070,2051
2060,2052,2034,2034,2085,2067,2052,2034
2051,2045,2025,2044,2063,2062,2070,2026
2033,2043,2013,2051,2038,2047,2047,2022
2032,2031,2005,2040,2038,2047,2058,2019
2032,2034,2002,2042,2039,2043,2036,2017
2036,2039,2009,2052,2047,2048,2047,2013
2039,2044,2010,2050,2056,2049,2057,2020
2045,2050,2008,2043,2054,2053,2050,2025
2053,2045,2016,2037,2059,2048,2051,2028
2048,2039,2013,2033,2067,2049,2038,2030
2042,2030,2032,2020,2056,2044,2060,2011
2037,2027,2058,2022,2053,2047,2052,2027
2045,2041,2092,2024,2048,2047,2049,2028
2041,2051,2097,2029,2053,2047,2047,2039
2047,2049,2090,2048,2050,2044,2045,2052
2051,2048,2090,2053,2055,2046,2057,2057
2042,2055,2093,2054,2064,2056,2054,2075
2044,2062,2094,2051,2063,2056,2065,2090
2049,2064,2105,2047,2055,2054,2045,2099
2058,2067,2102,2052,2053,2054,2063,2104
2058,2061,2089,2044,2038,2047,2049,2101
2052,2046,2057,2033,2030,2032,2045,2099
2044,2047,2053,2027,2020,2039,2041,2107
2048,2053,2061,2036,2016,2038,2052,2105
2058,2068,2072,2050,2017,2040,2025,2092
2053,2073,2086,2062,2003,2032,2032,2088
2048,2072,2081,2041,1978,2018,2035,2079
2046,2065,2068,2027,1972,2011,2035,2061
2044,2062,2063,2009,1969,2009,2029,2051
2047,2060,2060,1998,1988,2022,2043,2039
2052,2061,2055,2015,2032,2045,2046,2039
2051,2062,2061,2035,2074,2058,2059,2032
2058,2060,2064,2051,2097,2077,2056,2032
2051,2066,2061,2048,2106,2088,2037,2022
2043,2060,2046,2043,2099,2090,2045,2018
2049,2063,2038,2045,2094,2092,2054,2010
2048,2063,2046,2044,2078,2090,2040,2005
2037,2051,2032,2037,2083,2086,2040,1998
2033,2045,2035,2044,2094,2076,2065,2008
2041,2054,2035,2057,2105,2059,2068,2011
2052,2053,2041,2062,2092,2060,2072,2015
2045,2048,2035,2066,2056,2057,2065,2020
2050,2049,2030,2061,2027,2041,2063,2022
2042,2042,2029,2053,2007,2027,2051,2034
2041,2038,2034,2055,2002,2023,2050,2033
2048,2036,2034,2040,1968,2022,2047,2035
2039,2024,2029,2034,1961,2036,2058,2036
2034,2031,2031,2034,1958,2042,2056,2054
2038,2035,2035,2043,1985,2049,2055,2067
2038,2027,2032,2054,2036,2047,2057,2082
2043,2034,2033,2056,2067,2051,2079,2090
2049,2048,2049,2057,2044,2051,2041,2096
2052,2060,2060,2056,2028,2047,2046,2084
2037,2044,2056,2054,2028,2046,2062,2079
2036,2040,2046,2057,2014,2043,2047,2085
2038,2042,2043,2040,1982,2034,2050,2085
2034,2032,2014,2034,2022,2036,2034,2082
2035,2029,2011,2044,2067,2042,2052,2074
2032,2031,2020,2046,2110,2047,2053,2068
2037,2037,2027,2066,2124,2053,2066,2057
2045,2055,2045,2083,2146,2057,2072,2055
2051,2055,2046,2092,2163,2063,2062,2051
2053,2056,2048,2088,2143,2064,2070,2040
2051,2047,2042,2079,2125,2056,2070,2027
2035,2043,2045,2081,2112,2052,2074,2020
2044,2050,2046,2072,2097,2053,2075,2011
2040,2040,2046,2070,2088,2054,2039,1998
2028,2034,2042,2064,2073,2050,2044,1993
2034,2028,2034,2068,2076,2056,2047,1999
2036,2017,2015,2048,2038,2047,2048,2006
2035,2016,2000,2026,1980,2038,2060,2017
2046,2025,2004,2009,1972,2033,2066,2012
2052,2042,2029,2030,2021,2047,2074,2016
2053,2071,2072,2065,2072,2063,2070,2014
2050,2077,2077,2072,2106,2064,2060,2015
2049,2076,2064,2063,2102,2061,2076,2028
2050,2078,2068,2068,2096,2059,2050,2035
2063,2087,2073,2067,2080,2057,2050,2048
2061,2082,2065,2067,2080,2057,2053,2054
2058,2067,2056,2061,2080,2052,2051,2060
2049,2059,2049,2065,2076,2050,2062,2066
2053,2059,2056,2067,2072,2052,2067,2076
2054,2056,2044,2065,2064,2048,2063,2088
2048,2047,2044,2059,2065,2043,2062,2094
2052,2045,2029,2060,2060,2038,2049,2092
2036,2026,2018,2062,2056,2043,2042,2089
2035,2029,2025,2071,2061,2045,2053,2082
2038,2057,2045,2089,2067,2050,2050,2080
2046,2065,2050,2075,2065,2051,2052,2079
2053,2065,2041,2041,2058,2048,2045,2080
2052,2054,2029,2024,2051,2043,2038,2080
2060,2052,2026,2030,2056,2044,2036,2076
2058,2051,2018,2045,2063,2055,2047,2061
2058,2044,2019,2056,2069,2070,2059,2047
2054,2042,2011,2056,2077,2083,2067,2034
2049,2039,2017,2060,2072,2084,2060,2024
2052,2038,2006,2049,2064,2082,2052,2016
2046,2032,2005,2047,2052,2078,2054,2014
2037,2027,2004,2052,2046,2086,2048,2013
2050,2037,2026,2063,2061,2099,2060,2015
2055,2051,2039,2075,2072,2080,2056,2014
2050,2036,2030,2066,2064,2011,2057,2010
2041,2026,2031,2053,2059,1994,2054,2014
2050,2041,2040,2053,2044,2006,2071,2018
2058,2054,2047,2055,2034,2018,2061,2018
2049,2046,2036,2040,2022,2011,2066,2009
2049,2042,2038,2035,2025,2020,2066,2011
2051,2058,2055,2046,2032,2021,2056,2017
2045,2054,2048,2044,2041,2030,2042,2021
2044,2060,2034,2051,2053,2039,2043,2034
2050,2057,2041,2067,2054,2044,2035,2050
2056,2056,2050,2077,2070,2052,2053,2055
2060,2051,2047,2081,2061,2056,2073,2071
2048,2051,2040,2070,2066,2052,2074,2081
2048,2045,2041,2072,2061,2057,2070,2090
2049,2058,2051,2071,2065,2052,2070,2092
2053,2062,2059,2072,2065,2040,2052,2084
2050,2052,2048,2063,2055,2040,2028,2093
2044,2053,2047,2065,2052,2039,2044,2098
2055,2061,2041,2066,2046,2031,2026,2087
2047,2056,2034,2065,2044,2030,2027,2088
2042,2055,2041,2059,2043,2033,2035,2081
2044,2057,2052,2055,2036,2033,2029,2073
2049,2061,2063,2047,2032,2035,2028,2065
2050,2062,2065,2033,2016,2033,2020,2055
2044,2050,2042,1998,2011,2037,2033,2049
2047,2042,2007,1983,2020,2045,2045,2042
2043,2040,2010,1985,2028,2056,2040,2044
2049,2049,2029,1997,2027,2050,2056,2035
2056,2049,2039,2010,2038,2054,2060,2032
2057,2050,2032,2026,2044,2054,2071,2026
2050,2045,2029,2036,2054,2058,2064,2014
2047,2038,2021,2033,2054,2059,2057,2013
2044,2028,2019,2032,2038,2057,2040,2005
2042,2027,2018,2028,2040,2056,2026,2006
2043,2034,2030,2037,2051,2057,2030,2004
2046,2049,2037,2048,2071,2063,2042,2008
2049,2055,2040,2058,2071,2056,2033,2015
2046,2048,2036,2058,2067,2048,2030,2014
2052,2038,2030,2056,2069,2039,2014,2015
2045,2038,2031,2060,2068,2045,2032,2023
2038,2041,2033,2063,2065,2052,2044,2032
2036,2042,2035,2054,2066,2049,2043,2043
2047,2041,2035,2053,2067,2038,2041,2060
2048,2036,2031,2048,2057,2042,2039,2064
2046,2032,2035,2049,2063,2044,2044,2076
2049,2028,2038,2043,2055,2047,2042,2084
2041,2028,2031,2048,2056,2048,2049,2086
2038,2041,2040,2052,2055,2048,2045,2082
2033,2028,2030,2041,2047,2033,2027,2072
2024,2015,2024,2046,2050,2027,2030,2085
2032,2024,2032,2053,2053,2034,2035,2081
2040,2029,2037,2056,2057,2041,2022,2083
2039,2041,2044,2057,2061,2036,2030,2064
2036,2044,2049,2065,2103,2041,2024,2066
2047,2048,2064,2075,2129,2039,2031,2054
2052,2052,2061,2081,2144,2050,2055,2057
2059,2052,2070,2095,2156,2062,2054,2053
2060,2062,2073,2102,2162,2064,2060,2056
2072,2066,2078,2114,2157,2071,2070,2053
2072,2068,2072,2107,2142,2070,2067,2050
2067,2060,2060,2096,2092,2053,2045,2037
2055,2053,2054,2094,2035,2045,2019,2022
2054,2043,2053,2093,1967,2028,2028,2012
2064,2054,2053,2083,1904,2013,2038,2018
2061,2048,2042,2079,1936,2011,2015,2010
2058,2051,2032,2078,1955,2012,2024,2002
2049,2041,2020,2071,1978,2018,2030,2001
2045,2033,2012,2060,1996,2029,2048,1998
2047,2044,2025,2056,2011,2037,2022,2008
2063,2050,2035,2044,2015,2041,2040,2014
2050,2057,2031,2024,2019,2047,2049,2028
2062,2068,2044,2020,2033,2052,2067,2039
2060,2071,2047,2023,2049,2058,2027,2049
2052,2058,2030,2010,2060,2060,2037,2046
2038,2050,2028,2003,2066,2060,2037,2050
2036,2053,2034,2018,2068,2049,2038,2056
2038,2053,2038,2014,2056,2040,2045,2066
2038,2054,2037,2007,2049,2043,2052,2080
2046,2057,2041,2020,2049,2052,2049,2094
2052,2060,2049,2029,2061,2055,2035,2097
2050,2054,2046,2029,2050,2054,2043,2104
2038,2047,2046,2026,2042,2055,2059,2109
2050,2062,2055,2040,2051,2058,2058,2106
2059,2069,2056,2038,2039,2045,2044,2086
2051,2065,2047,2029,2029,2042,2035,2091
2055,2060,2046,2036,2022,2045,2050,2074
2051,2059,2048,2036,2019,2046,2035,2056
2040,2053,2036,2034,2021,2049,2040,2050
2037,2045,2027,2030,2036,2054,2042,2045
2042,2048,2031,2032,2039,2059,2042,2042
2048,2046,2029,2027,2043,2058,2055,2039
2049,2044,2024,2031,2046,2057,2045,2027
2045,2043,2024,2029,2047,2054,2051,2020
2043,2050,2034,2028,2051,2061,2030,2017
2041,2049,2042,2030,2043,2053,2028,2011
2052,2048,2041,2033,2041,2043,2030,2006
2044,2049,2045,2029,2045,2040,2035,2001
2040,2041,2037,2034,2069,2036,2050,1996
2039,2038,2033,2059,2088,2051,2043,2008
2041,2038,2028,2065,2086,2056,2058,2014
2042,2047,2034,2061,2078,2048,2049,2012
2043,2046,2030,2062,2064,2051,2062,2007
2039,2050,2032,2066,2064,2050,2063,2011
2048,2049,2036,2073,2068,2050,2039,2022
2043,2037,2029,2067,2081,2044,2053,2026
2046,2034,2022,2058,2072,2047,2047,2032
2044,2036,2018,2060,2064,2051,2055,2042
2053,2035,2026,2059,2064,2044,2040,2057
2045,2028,2016,2055,2064,2050,2045,2058
2044,2021,2021,2048,2052,2042,2036,2068
2038,2026,2030,2048,2042,2038,2044,2085
2039,2023,2037,2042,2033,2035,2039,2094
2042,2018,2038,2030,2015,2023,2038,2092
2031,2007,2031,2025,2015,2017,2015,2066
2020,2011,2062,2041,2033,2041,2031,2069
2021,2044,2095,2078,2081,2071,2044,2074
2026,2044,2101,2094,2086,2071,2045,2078
2029,2039,2100,2082,2074,2061,2052,2079
2032,2053,2099,2082,2074,2059,2058,2071
2048,2058,2097,2072,2056,2054,2055,2061
2041,2066,2083,2041,2039,2051,2027,2054
2038,2062,2064,2027,2036,2045,2031,2044
2033,2052,2060,2022,2041,2045,2046,2037
2045,2056,2060,2034,2046,2053,2057,2031
2050,2058,2057,2037,2043,2050,2050,2020
2046,2047,2032,2023,2031,2031,2044,2015
2036,2032,2006,2005,1988,2020,2042,2014
2041,2032,2003,2003,1981,2018,2043,2014
2056,2044,2033,2021,1998,2013,2031,2002
2047,2049,2046,2024,1989,2002,2033,1994
2050,2057,2063,2031,1982,2009,2031,1991
2050,2072,2086,2060,2014,2036,2052,2005
2051,2085,2090,2082,2034,2044,2056,2022
2058,2081,2090,2094,2052,2053,2037,2025
2053,2081,2089,2093,2079,2072,2060,2022
2051,2072,2089,2074,2058,2075,2046,2026
2048,2058,2073,2048,2028,2054,2039,2029
2045,2055,2065,2039,2082,2061,2064,2039
2044,2046,2058,2036,2116,2066,2065,2043
2053,2059,2060,2041,2110,2072,2053,2054
2050,2066,2067,2049,2109,2070,2067,2064
2058,2058,2056,2048,2098,2070,2067,2079
2051,2048,2055,2053,2086,2060,2058,2086
2036,2050,2058,2055,2078,2056,2062,2091
2039,2051,2058,2061,2072,2052,2043,2092
2040,2048,2050,2051,2062,2047,2029,2088
2042,2043,2041,2043,2067,2051,2051,2102
2040,2037,2039,2035,2076,2048,2051,2105
2043,2042,2034,2030,2082,2052,2049,2094
2052,2056,2049,2040,2094,2047,2045,2088
2053,2068,2062,2053,2088,2044,2061,2084
2058,2058,2057,2049,2073,2040,2057,2079
2050,2056,2058,2045,2061,2037,2038,2064
2051,2051,2046,2035,2053,2037,2043,2057
2045,2049,2031,2029,2057,2031,2043,2040
2046,2042,2027,2028,2044,2030,2053,2030
2045,2042,2027,2032,2052,2028,2041,2028
2045,2045,2034,2031,2060,2044,2055,2032
2053,2047,2027,2029,2069,2048,2041,2029
2054,2041,2016,2025,2071,2052,2042,2012
2053,2038,2017,2030,2070,2067,2043,2008
2044,2032,2024,2033,2055,2072,2044,2008
2039,2027,2020,2031,2052,2068,2043,2012
2042,2029,2021,2044,2045,2078,2034,2002
2048,2039,2036,2045,2050,2081,2056,2006
2045,2034,2029,2050,2052,2058,2042,2007
2038,2033,2040,2048,2031,2051,2042,2008
2048,2028,2045,2037,1980,2051,2043,2009
2040,2028,2053,2031,1919,2029,2045,2011
2042,2033,2046,2032,1948,1987,2035,2027
2047,2035,2062,2050,2018,1991,2032,2034
2055,2048,2096,2090,2069,2026,2043,2043
2053,2069,2126,2127,2083,2061,2047,2064
2046,2068,2124,2114,2059,2065,2036,2064
2050,2058,2103,2113,2040,2072,2069,2076
2051,2050,2083,2094,2021,2067,2048,2085
2049,2053,2062,2086,2026,2052,2040,2085
2051,2055,2066,2094,2062,2047,2027,2080
2034,2041,2058,2088,2101,2046,2074,2081
2035,2034,2050,2082,2118,2052,2049,2093
2043,2047,2048,2083,2116,2065,2043,2088
2040,2045,2045,2076,2105,2056,2062,2083
2047,2041,2040,2058,2075,2029,2057,2070
2038,2032,2035,2026,2046,2023,2064,2066
2035,2029,2020,1990,2046,2018,2056,2054
2035,2031,2012,1962,2047,2033,2058,2047
2041,2036,2015,1977,2034,2039,2050,2045
2048,2027,2027,1998,2021,2028,2067,2036
2045,2034,2042,2021,2034,2034,2040,2024
2045,2041,2056,2040,2057,2040,2068,2023
2037,2042,2060,2042,2069,2046,2065,2020
2038,2035,2052,2044,2058,2047,2072,2021
2037,2038,2046,2042,2055,2044,2064,2020
2039,2037,2041,2043,2061,2044,2066,2002
2023,2024,2031,2037,2061,2042,2041,2003
2032,2024,2044,2045,2059,2040,2052,1997
2040,2037,2062,2063,2070,2056,2076,2009
2049,2047,2070,2066,2072,2049,2063,2010
2053,2048,2072,2070,2073,2050,2056,2020
2063,2052,2071,2067,2071,2054,2069,2026
2053,2055,2073,2070,2074,2047,2043,2033
2050,2042,2061,2065,2064,2039,2061,2027
2045,2037,2055,2056,2065,2045,2065,2030
2054,2041,2046,2058,2065,2054,2062,2049
2053,2046,2047,2064,2066,2053,2057,2049
2049,2041,2041,2056,2062,2046,2062,2055
2044,2028,2024,2042,2049,2038,2060,2055
2033,2023,2012,2039,2052,2041,2035,2066
2024,2032,2016,2044,2061,2044,2042,2083
2036,2039,2021,2040,2060,2047,2053,2087
2029,2025,2008,2021,2051,2043,2052,2095
2038,2021,2003,2016,2060,2042,2075,2102
2044,2028,2000,2020,2055,2049,2079,2096
2047,2030,2006,2020,2054,2060,2081,2095
2049,2032,2027,2028,2054,2064,2078,2090
2050,2038,2045,2037,2056,2062,2075,2081
2050,2042,2052,2041,2058,2066,2082,2072
2047,2041,2060,2047,2050,2070,2084,2064
2051,2047,2074,2051,2046,2068,2082,2059
2053,2045,2068,2048,2041,2056,2055,2047
2049,2046,2071,2047,2044,2055,2071,2038
2049,2050,2072,2053,2049,2065,2062,2033
2055,2055,2075,2050,2051,2068,2061,2024
2059,2048,2079,2055,2051,2064,2057,2023
2059,2053,2090,2063,2060,2056,2058,2018
2064,2048,2092,2067,2054,2046,2067,2015
2053,2042,2083,2065,2050,2033,2054,2009
2047,2030,2074,2061,2045,2029,2056,1996
2051,2041,2084,2068,2056,2034,2058,2004
2054,2046,2086,2073,2058,2041,2064,2010
2055,2049,2080,2069,2052,2041,2071,2016
2056,2054,2069,2073,2059,2046,2060,2012
2051,2050,2070,2080,2060,2042,2056,2028
2052,2047,2062,2082,2066,2044,2063,2032
2049,2050,2048,2080,2061,2045,2065,2041
2051,2041,2040,2065,2053,2045,2064,2048
2047,2026,2028,2033,2041,2037,2045,2052
2041,2032,2018,2024,2036,2030,2046,2058
2041,2040,2040,2036,2045,2038,2043,2066
2047,2056,2049,2037,2051,2044,2054,2081
2049,2056,2041,2037,2055,2054,2062,2096
2056,2059,2034,2040,2059,2053,2075,2103
2057,2051,2026,2043,2054,2041,2059,2111
2052,2040,2008,2034,2047,2038,2062,2103
2058,2043,2019,2042,2051,2039,2063,2107
2059,2046,2020,2029,2037,2031,2061,2097
2057,2038,2004,2023,2035,2034,2062,2084
2054,2028,1996,2028,2034,2035,2061,2077
2054,2027,2007,2033,2046,2034,2051,2066
2047,2024,2013,2039,2045,2038,2060,2052
2044,2034,2022,2045,2051,2046,2047,2043
2034,2043,2024,2052,2053,2050,2053,2034
2047,2048,2031,2061,2056,2050,2059,2029
2050,2044,2029,2058,2057,2049,2051,2028
2048,2046,2035,2056,2055,2048,2046,2022
2057,2047,2037,2054,2057,2044,2035,2023
2069,2050,2039,2054,2054,2048,2053,2015
2071,2043,2036,2049,2053,2043,2053,2013
2056,2031,2021,2046,2045,2032,2026,1988
2024,2010,2011,2036,2030,2028,2026,1987
2023,2019,2028,2047,2042,2041,2042,2007
2031,2027,2049,2054,2047,2046,2051,2013
2046,2045,2072,2064,2056,2051,2060,2021
2056,2061,2099,2076,2067,2055,2053,2017
2058,2071,2108,2071,2061,2058,2049,2016
2052,2074,2104,2063,2072,2061,2057,2023
2050,2068,2108,2064,2075,2053,2058,2028
2059,2065,2110,2070,2080,2054,2056,2044
2062,2069,2105,2070,2079,2058,2060,2051
2060,2068,2086,2070,2074,2059,2041,2061
2058,2064,2080,2065,2075,2061,2067,2074
2052,2061,2080,2061,2076,2058,2058,2085
2052,2064,2074,2059,2064,2057,2066,2092
2058,2057,2068,2046,2052,2050,2061,2104
2056,2045,2053,2028,2038,2037,2056,2096
2057,2034,2043,2029,2036,2035,2048,2091
2053,2045,2048,2034,2036,2040,2066,2085
2050,2045,2044,2038,2080,2042,2057,2074
2045,2042,2047,2038,2096,2039,2042,2072
2044,2038,2048,2032,2102,2042,2038,2072
2059,2041,2047,2029,2094,2045,2048,2064
2065,2038,2045,2024,2104,2046,2051,2059
2058,2032,2044,2030,2101,2043,2052,2048
2057,2038,2046,2039,2098,2048,2067,2048
2062,2044,2051,2050,2095,2044,2050,2046
2069,2049,2053,2044,2050,2043,2061,2049
2065,2041,2049,2033,1955,2040,2058,2038
2065,2044,2053,2028,1887,2029,2062,2020
2062,2051,2059,2033,1916,2036,2038,2011
2065,2050,2065,2036,1964,2043,2052,2018
2072,2047,2050,2040,1991,2045,2059,2016
2067,2040,2049,2048,2008,2040,2060,2013
2069,2037,2054,2051,2015,2047,2043,2014
2072,2043,2056,2056,2009,2040,2034,2021
2072,2037,2055,2060,2001,2040,2020,2030
2074,2043,2056,2064,1994,2040,2064,2028
2075,2056,2056,2063,2015,2048,2054,2020
2062,2047,2051,2066,2043,2049,2061,2029
2059,2048,2041,2063,2058,2042,2057,2026
2058,2037,2031,2054,2055,2046,2051,2041
2059,2034,2014,2051,2040,2044,2059,2051
2067,2038,1999,2037,2014,2028,2040,2064
2068,2038,2007,2036,2001,2019,2039,2068
2068,2032,2009,2027,1994,2025,2053,2072
2065,2047,2008,2014,1986,2023,2035,2083
2070,2052,2022,2009,2004,2037,2033,2085
2069,2044,2027,2016,2038,2040,2030,2091
2061,2042,2034,2016,2061,2056,2048,2101
2071,2058,2038,2025,2080,2077,2052,2109
2080,2060,2043,2031,2064,2075,2068,2096
2070,2047,2038,2023,2036,2057,2058,2092
2061,2038,2039,2018,2044,2051,2043,2078
2066,2043,2058,2030,2080,2056,2052,2069
2066,2047,2062,2039,2090,2057,2042,2056
2065,2049,2060,2046,2077,2052,2039,2047
2071,2049,2075,2052,2074,2057,2049,2046
2083,2071,2091,2065,2080,2057,2045,2038
2087,2077,2094,2069,2086,2060,2028,2038
2077,2067,2078,2064,2070,2070,2048,2032
2084,2060,2065,2053,2059,2062,2024,2024
2082,2063,2054,2048,2042,2051,2028,2015
2080,2063,2051,2039,2037,2060,2034,2011
2070,2049,2028,2029,2035,2041,2024,2006
2072,2044,2020,2025,2037,2026,2041,2014
2087,2052,2018,2027,2047,2049,2061,2019
2089,2046,2016,2028,2065,2055,2059,2018
2088,2044,2016,2025,2068,2045,2063,2030
2071,2044,2025,2016,2054,2037,2041,2036
2077,2048,2027,2019,2036,2032,2051,2039
2080,2049,2041,2036,2020,2037,2064,2039
2082,2057,2056,2053,2021,2050,2063,2049
2076,2062,2063,2055,2029,2049,2070,2054
2077,2057,2062,2047,2024,2042,2060,2055
2073,2048,2068,2036,2016,2029,2057,2058
2066,2046,2082,2036,2042,2037,2053,2063
2066,2043,2089,2046,2052,2056,2059,2085
2072,2044,2081,2055,2054,2064,2070,2094
2070,2038,2073,2050,2061,2070,2065,2100
2069,2038,2052,2045,2058,2069,2058,2100
2064,2036,2042,2046,2058,2069,2072,2090
2073,2041,2049,2050,2060,2081,2069,2091
2079,2047,2060,2049,2064,2091,2051,2092
2082,2045,2054,2042,2060,2092,2067,2080
2089,2048,2058,2038,2069,2096,2041,2087
2091,2056,2048,2032,2068,2073,2051,2081
2090,2054,2046,2033,2066,2026,2053,2072
2096,2059,2051,2038,2060,2024,2058,2064
2097,2051,2059,2045,2068,2040,2051,2053
2094,2047,2073,2052,2067,2052,2062,2049
2097,2057,2074,2067,2070,2063,2056,2044
2101,2061,2079,2070,2072,2066,2056,2028
2097,2062,2073,2060,2057,2054,2055,2013
2084,2055,2060,2058,2029,2045,2024,2002
2075,2054,2057,2057,1988,2051,2030,2002
2080,2047,2046,2051,1983,2052,2023,1991
2071,2038,2033,2046,2001,2057,2024,1990
2077,2047,2041,2050,2004,2055,2024,1995
2072,2039,2034,2051,2018,2000,2036,2002
2075,2053,2046,2069,2063,1991,2044,2025
2085,2055,2053,2073,2079,2010,2052,2029
2085,2060,2060,2066,2076,2036,2056,2029
2083,2048,2057,2056,2081,2048,2057,2034
2080,2047,2039,2052,2086,2051,2055,2050
2087,2047,2033,2040,2080,2050,2056,2057
2092,2049,2035,2031,2040,2046,2051,2063
2085,2052,2040,2008,1991,2038,2059,2074
2083,2046,2039,1972,2002,2026,2055,2090
2084,2046,2044,1974,2007,2035,2048,2096
2075,2050,2048,1984,2013,2033,2045,2088
2068,2049,2051,2009,2048,2047,2053,2088
2068,2051,2050,2020,2058,2041,2036,2084
2068,2044,2047,2020,2045,2040,2032,2082
2070,2049,2051,2027,2037,2040,2015,2082
2076,2050,2050,2023,2041,2033,2012,2083
2068,2042,2040,2024,2036,2029,2020,2082
2070,2046,2045,2024,2039,2034,2033,2076
2062,2047,2043,2028,2047,2031,2025,2061
2061,2043,2045,2032,2048,2029,2018,2048
2069,2050,2053,2040,2044,2032,2042,2037
2073,2047,2058,2052,2045,2030,2027,2038
2063,2048,2052,2050,2044,2031,2029,2036
2060,2051,2063,2050,2053,2040,2033,2032
2060,2042,2065,2045,2046,2042,2030,2023
2058,2039,2054,2037,2043,2039,2016,2016
2056,2041,2054,2039,2038,2038,2036,2007
2056,2044,2060,2045,2049,2044,2020,1999
2054,2048,2055,2051,2052,2055,2032,2000
2053,2048,2049,2053,2052,2048,2031,1997
2062,2047,2054,2068,2060,2044,2033,2004
2058,2039,2050,2061,2056,2051,2027,2004
2054,2036,2047,2066,2057,2055,2020,2009
2051,2037,2042,2062,2056,2055,2034,2011
2056,2040,2030,2048,2050,2056,2043,2023
2052,2033,2026,2037,2045,2045,2037,2025
2052,2032,2033,2039,2053,2050,2025,2021
2053,2035,2055,2049,2062,2049,2022,2029
2044,2046,2078,2057,2064,2052,2041,2031
2036,2052,2063,2064,2065,2052,2040,2051
2043,2045,2049,2066,2065,2050,2055,2057
2049,2041,2041,2063,2063,2047,2038,2074
2050,2038,2027,2062,2055,2042,2060,2081
2043,2041,2018,2054,2048,2041,2049,2095
2043,2037,2007,2033,2024,2035,2045,2096
2038,2039,2017,2025,2022,2046,2018,2100
2055,2050,2033,2035,2035,2056,2061,2094
2052,2049,2036,2037,2046,2058,2044,2087
2046,2050,2019,2032,2047,2049,2024,2084
2045,2038,2010,2022,2029,2043,2030,2070
2036,2038,2001,2015,2006,2025,2036,2065
2044,2038,2009,2018,1994,2016,2030,2060
2057,2046,2031,2029,1999,2024,2030,2047
2060,2052,2041,2028,2001,2031,2016,2027
2052,2042,2042,2023,2022,2043,2035,2017
2041,2044,2053,2039,2072,2068,2044,2016
2046,2059,2059,2050,2087,2072,2058,2024
2051,2069,2073,2040,2066,2063,2037,2018
2053,2073,2080,2042,2038,2050,2028,2018
2056,2072,2079,2041,2010,2036,2019,2013
2053,2065,2078,2037,1980,2021,2014,2010
2050,2053,2064,2022,1963,2012,2010,2001
2048,2045,2059,2022,1977,2029,2027,1998
2043,2044,2058,2036,2013,2047,2020,2004
2037,2041,2064,2048,2035,2048,2034,2018
2050,2045,2060,2051,2065,2058,2038,2030
2051,2051,2062,2054,2087,2080,2050,2028
2053,2053,2061,2046,2058,2080,2048,2023
2052,2048,2056,2030,2022,2063,2041,2021
2041,2048,2056,2040,2022,2070,2050,2029
2037,2054,2060,2047,2034,2082,2063,2042
2041,2055,2066,2060,2060,2057,2054,2061
2030,2042,2059,2074,2088,2011,2047,2084
2042,2048,2064,2077,2087,2020,2052,2089
2047,2050,2068,2068,2080,2034,2054,2082
2041,2047,2066,2055,2076,2034,2035,2077
2039,2042,2065,2054,2072,2046,2034,2081
2026,2037,2065,2066,2109,2052,2023,2077
2021,2038,2070,2084,2146,2073,2054,2079
2020,2036,2075,2089,2156,2073,2050,2074
2022,2040,2070,2082,2126,2071,2050,2076
2037,2046,2066,2085,2119,2073,2053,2074
2050,2052,2063,2091,2117,2069,2051,2062
2047,2044,2049,2093,2112,2066,2052,2054
2039,2044,2053,2099,2093,2063,2037,2048
2040,2039,2066,2094,2070,2059,2041,2039
2046,2031,2059,2083,2005,2042,2038,2032
2040,2033,2056,2068,1924,2023,2015,2028
2042,2036,2050,2066,1962,2047,2033,2014
2041,2038,2045,2069,2007,2065,2036,2020
2040,2039,2044,2063,2021,2069,2034,2017
2048,2047,2030,2043,2019,2072,2049,2009
2042,2036,2005,2005,2000,2042,2037,2003
2030,2026,1995,1999,2003,2014,2025,1999
2029,2036,2004,2010,2023,2028,2029,2013
2047,2055,2032,2025,2030,2053,2040,2011
2051,2052,2033,2006,2023,2032,2040,2029
2052,2057,2047,2021,2024,2002,2027,2032
2043,2069,2060,2040,2035,2005,2040,2028
2034,2074,2060,2054,2043,2028,2046,2031
2046,2066,2046,2053,2053,2056,2054,2036
2049,2062,2052,2058,2050,2075,2068,2039
2046,2059,2051,2058,2056,2074,2072,2049
2050,2050,2047,2048,2074,2091,2061,2048
2036,2047,2041,2041,2075,2085,2048,2062
2027,2042,2044,2040,2058,2079,2036,2062
2031,2042,2047,2039,2048,2073,2030,2063
2026,2033,2042,2046,2050,2055,2046,2081
2035,2043,2047,2046,2045,2029,2028,2075
2033,2034,2045,2030,2044,2032,2022,2084
2027,2029,2041,2028,2036,2042,2041,2078
2030,2040,2042,2034,2034,2043,2046,2081
2041,2044,2048,2051,2049,2047,2056,2083
2042,2051,2051,2047,2043,2054,2018,2072
2043,2046,2040,2045,2028,2046,2051,2063
2032,2040,2037,2036,2021,2044,2049,2056
2029,2040,2034,2029,2021,2042,2026,2047
2035,2035,2034,2037,2034,2044,2032,2039
2041,2048,2046,2049,2061,2047,2047,2030
2047,2057,2043,2054,2077,2055,2040,2023
2048,2051,2045,2055,2098,2056,2053,2025
2043,2050,2043,2052,2092,2056,2042,2019
2042,2049,2035,2052,2093,2050,2029,2010
2042,2052,2044,2047,2093,2057,2029,2014
2045,2058,2051,2057,2081,2052,2032,2000
2040,2049,2044,2048,2065,2038,2048,2003
2041,2047,2045,2051,2061,2035,2056,2005
2046,2052,2043,2047,2055,2038,2039,2011
2045,2046,2044,2045,2055,2032,2028,2012
2042,2048,2043,2044,2055,2036,2043,2015
2042,2050,2046,2041,2040,2044,2031,2005
2041,2046,2044,2038,2013,2058,2039,2019
2042,2047,2050,2035,2004,2061,2026,2027
2039,2048,2039,2033,2001,2066,2048,2032
2040,2040,2044,2037,2000,2074,2049,2042
2034,2043,2050,2039,2025,2049,2055,2054
2030,2046,2052,2054,2072,2043,2050,2071
2029,2046,2046,2060,2093,2070,2056,2073
2045,2057,2057,2067,2105,2103,2057,2089
2052,2063,2050,2067,2098,2118,2064,2098
2044,2048,2042,2049,2076,2099,2062,2092
2034,2033,2032,2032,2051,2062,2039,2092
2033,2034,2037,2040,2071,2046,2051,2101
2047,2053,2053,2060,2101,2053,2066,2106
2048,2057,2054,2066,2090,2061,2064,2106
2040,2059,2054,2062,2079,2059,2076,2090
2040,2055,2051,2058,2061,2043,2094,2073
2038,2056,2046,2049,2043,2042,2084,2068
2030,2046,2047,2048,2028,2037,2088,2056
2034,2045,2040,2045,2018,2022,2063,2049
2028,2047,2043,2045,2023,2012,2050,2043
2032,2045,2051,2053,2002,1996,2055,2036
2034,2049,2047,2044,2006,1988,2036,2025
2041,2046,2044,2036,2000,1970,2033,2025
2042,2053,2042,2037,1979,1967,2034,2020
2040,2049,2041,2035,1985,1979,2045,2008
2037,2046,2041,2030,1996,2004,2052,1990
2024,2033,2037,2040,2049,2033,2050,1992
2037,2036,2045,2073,2116,2058,2051,2007
2049,2056,2058,2086,2127,2068,2077,2009
2040,2046,2050,2066,2084,2056,2054,2016
2029,2049,2054,2061,2066,2059,2056,2024
2039,2056,2058,2068,2070,2055,2073,2023
2047,2052,2055,2074,2066,2059,2054,2030
2039,2052,2054,2068,2069,2061,2073,2034
2046,2047,2044,2049,2033,2058,2072,2040
2035,2038,2036,2030,1981,2038,2064,2040
2034,2029,2034,2021,1960,2027,2058,2051
2035,2030,2028,2018,1980,2017,2049,2058
2030,2030,2021,2004,1975,1997,2035,2062
2022,2029,2028,2001,1950,2002,2040,2068
2029,2035,2031,2020,2012,2023,2052,2085
2036,2036,2041,2052,2091,2053,2065,2085
2029,2031,2044,2066,2136,2070,2062,2075
2026,2035,2048,2073,2140,2089,2065,2086
2049,2054,2059,2074,2116,2089,2077,2093
2057,2055,2052,2066,2084,2071,2062,2097
2054,2060,2058,2059,2061,2070,2074,2096
2049,2054,2050,2054,2059,2085,2038,2083
2043,2042,2038,2049,2057,2084,2038,2062
2035,2048,2049,2048,2057,2085,2032,2050
2039,2049,2053,2052,2052,2083,2031,2045
2036,2049,2052,2052,2051,2075,2034,2040
2038,2042,2045,2051,2069,2082,2042,2042
2040,2048,2046,2052,2082,2084,2054,2038
2045,2054,2055,2063,2086,2098,2067,2030
2046,2053,2048,2058,2070,2105,2054,2025
2043,2056,2049,2056,2055,2098,2030,2021
2044,2057,2047,2046,2027,2089,2028,2012
2037,2037,2033,2020,1968,2075,2021,2004
2026,2035,2027,2013,1947,2029,2009,1999
2032,2047,2031,2023,1947,1998,2003,2000
2041,2050,2035,2029,1951,1986,2009,2006
2044,2051,2042,2042,1970,1951,2021,2038
2056,2060,2053,2054,1966,1963,2041,2050
2055,2062,2056,2060,1991,2007,2054,2046
2053,2057,2053,2057,2051,2061,2050,2039
2049,2045,2047,2060,2091,2098,2052,2038
2035,2038,2039,2057,2099,2101,2061,2051
2035,2032,2033,2048,2092,2088,2060,2058
2032,2027,2031,2044,2091,2057,2043,2073
2039,2025,2035,2062,2103,2006,2036,2095
2037,2039,2051,2070,2109,2003,2061,2100
2037,2038,2057,2072,2097,2018,2062,2098
2031,2046,2061,2069,2083,2030,2057,2092
2030,2039,2049,2049,2061,2016,2040,2087
2019,2028,2039,2052,2052,2000,2032,2085
2023,2034,2047,2054,2060,1993,2017,2079
2028,2040,2048,2054,2041,1981,2011,2074
2029,2047,2057,2054,2033,1974,2021,2069
2038,2050,2056,2057,2033,1993,2037,2068
2038,2052,2056,2058,2075,2020,2053,2069
2040,2052,2052,2057,2054,1988,2031,2060
2040,2048,2050,2054,2049,1982,2044,2052
2041,2042,2043,2048,2040,2038,2056,2049
2043,2047,2043,2042,2015,2074,2071,2050
2052,2054,2045,2022,1978,2081,2063,2048
2047,2046,2039,2010,1945,2080,2051,2036
2037,2045,2035,2007,1943,2047,2044,2024
2034,2046,2036,2031,1976,1992,2070,2038
2048,2060,2061,2063,1989,2010,2049,2048
2059,2066,2068,2063,1952,2037,2100,2069
2067,2062,2059,2066,2001,2081,2117,2126
2079,2061,2059,2077,2052,2125,2109,2148
2069,2056,2055,2064,2069,2110,2090,2129
2060,2045,2038,2058,2113,2061,2076,2102
2053,2040,2033,2051,2162,1996,2054,2099
2060,2051,2038,2054,2129,1958,2077,2112
2063,2053,2043,2058,2113,1947,2111,2099
2069,2052,2039,2056,2079,1923,2108,2096
2066,2052,2046,2046,2033,1894,2125,2089
2067,2051,2044,2047,2010,1931,2110,2067
2048,2043,2041,2045,2009,1997,2081,2053
2035,2028,2038,2038,2028,2060,2052,2054
2040,2033,2036,2036,2036,2089,2002,2062
2030,2031,2034,2038,2034,2085,1904,2015
2027,2033,2046,2045,2039,2088,1939,1999
2028,2046,2058,2049,2044,2085,1972,2018
2023,2042,2052,2046,2043,2072,1972,2029
2013,2048,2055,2051,2053,2074,2017,2026
2013,2049,2054,2058,2066,2086,2068,2040
2022,2061,2061,2060,2072,2102,2093,2056
2044,2061,2056,2062,2075,2113,2097,2048
2043,2054,2059,2060,2074,2122,2098,2052
2051,2056,2052,2063,2072,2132,2099,2050
2048,2059,2057,2066,2077,2120,2074,2037
2040,2050,2052,2060,2070,2111,2058,2021
2029,2041,2050,2052,2060,2100,2041,1997
2017,2034,2042,2050,2052,2088,2030,1983
2016,2038,2038,2055,2054,2056,2005,1980
2024,2035,2041,2053,2061,2043,2047,1983
2026,2040,2046,2050,2061,2035,2056,1983
2036,2041,2050,2056,2057,2047,2055,1994
2037,2032,2044,2046,2043,2021,2038,1988
2025,2021,2035,2036,2045,2004,2035,1980
2025,2029,2045,2043,2061,2026,2026,1983
2034,2045,2052,2049,2065,2053,2012,1978
2030,2048,2048,2049,2065,2072,2044,2001
2033,2045,2052,2050,2052,2074,2041,2003
2031,2039,2042,2043,2042,2056,2034,2002
2039,2038,2042,2044,2050,2044,2031,2015
2035,2048,2049,2054,2072,2045,2065,2021
2044,2057,2064,2060,2076,2069,2050,2025
2026,2048,2058,2054,2075,2087,2038,2026
2013,2044,2050,2044,2061,2095,2064,2034
2014,2032,2042,2050,2084,2074,2045,2054
2020,2027,2037,2049,2057,2043,2054,2062
2030,2036,2051,2060,2079,2042,2063,2060
2037,2050,2065,2076,2104,2057,2055,2070
2036,2052,2062,2068,2103,2066,2056,2071
2029,2038,2052,2071,2104,2075,2069,2082
2025,2035,2052,2065,2091,2102,2060,2078
2024,2032,2053,2062,2079,2134,2077,2080
2021,2027,2047,2055,2056,2143,2065,2070
2012,2023,2038,2039,2001,2096,2042,2049
2006,2026,2036,2023,1912,1986,2035,2036
2011,2035,2043,2003,1905,1939,2010,2034
2046,2050,2044,2008,1919,1975,2010,2037
2066,2059,2055,2014,1923,2004,1992,2023
2052,2069,2063,2015,1921,2016,2006,2006
2043,2060,2051,2018,1914,1999,2009,1997
2039,2064,2060,2029,1951,1978,2026,2006
2048,2056,2060,2036,1980,1991,2049,2019
2050,2058,2061,2041,2031,2029,2036,2012
2051,2058,2064,2051,2054,2054,2036,1996
2033,2051,2057,2047,2074,2066,2011,1977
2014,2031,2043,2041,2064,2056,2036,1980
2018,2026,2041,2038,2036,2043,2027,1988
2028,2039,2044,2021,1996,2025,2020,1993
2023,2040,2040,2016,1966,1995,2015,1993
2017,2046,2039,2011,1945,1973,2005,2002
2021,2039,2033,2004,1964,1955,2011,2016
2020,2046,2041,2020,2016,1984,2036,2024
2029,2051,2042,2039,2064,2029,2036,2034
2034,2059,2060,2077,2140,2081,2072,2052
2038,2061,2062,2099,2203,2097,2065,2062
2041,2055,2065,2096,2228,2096,2054,2078
2033,2051,2062,2088,2221,2106,2060,2079
2036,2044,2053,2077,2177,2090,2046,2086
2029,2048,2051,2068,2148,2075,2059,2092
2039,2047,2049,2061,2135,2067,2074,2096
2030,2041,2046,2057,2115,2056,2043,2097
2022,2028,2032,2034,2089,2034,2043,2097
2027,2030,2031,2036,2080,2040,2045,2096
2037,2041,2047,2029,1999,2044,2044,2092
2047,2056,2051,2023,1952,2047,2066,2096
2051,2061,2059,2034,1986,2045,2054,2094
2044,2056,2064,2051,2029,2016,2053,2079
2051,2061,2062,2055,2050,2001,2040,2066
2054,2056,2060,2052,2059,2026,2037,2054
2048,2060,2062,2053,2069,2031,2035,2038
2045,2055,2054,2049,2067,2031,2031,2025
2035,2056,2065,2049,2061,2050,2024,2024
2040,2054,2065,2051,2066,2060,2035,2021
2040,2056,2062,2045,2051,2052,2029,2007
2044,2060,2063,2035,2044,2048,2021,2003
2044,2059,2065,2029,2040,2051,2036,2007
2051,2061,2060,2034,2045,2063,2029,1993
2049,2052,2054,2037,2052,2060,2034,1995
2044,2050,2059,2050,2065,2061,2027,2010
2057,2050,2061,2048,2067,2068,2017,2008
2049,2053,2059,2045,2057,2070,2020,2014
2047,2047,2054,2050,2057,2082,2027,2012
2046,2044,2053,2043,2052,2095,2034,2011
2041,2046,2056,2045,2050,2099,2037,2024
2044,2046,2053,2043,2060,2094,2032,2024
2038,2051,2050,2045,2051,2075,2051,2029
2036,2050,2055,2054,2053,2070,2061,2021
2035,2047,2056,2043,2044,2052,2034,2034
2030,2043,2054,2041,2046,2045,2026,2050
2029,2038,2058,2043,2054,2045,1997,2058
2029,2040,2062,2045,2068,2064,2026,2076
2036,2047,2066,2055,2074,2079,2026,2082
2038,2044,2066,2064,2076,2077,2059,2083
2040,2037,2057,2057,2056,2070,2052,2082
2040,2035,2055,2051,2051,2072,2067,2086
2047,2051,2059,2045,2044,2056,2047,2087
2049,2057,2056,2038,2030,2040,2034,2078
2045,2050,2059,2037,2029,2039,2044,2071
2046,2054,2055,2037,2037,2040,2047,2067
2046,2054,2054,2044,2042,2047,2025,2063
2049,2051,2050,2041,2050,2052,2054,2057
2045,2049,2049,2049,2050,2056,2055,2050
2049,2053,2066,2052,2065,2076,2075,2043
2052,2056,2062,2054,2078,2084,2074,2036
2054,2054,2065,2053,2072,2081,2054,2025
2051,2046,2058,2037,2056,2070,2028,2010
2046,2035,2049,2033,2043,2074,2040,2006
2040,2025,2044,2035,2039,2053,2021,1992
2034,2027,2039,2031,2037,2029,2023,1991
2026,2020,2032,2028,2034,2034,1995,1991
2024,2024,2033,2025,2033,2021,2020,1992
2027,2031,2043,2036,2032,2013,2031,1995
2031,2045,2044,2037,2029,2020,2033,2002
2037,2045,2051,2038,2028,2023,2048,2010
2040,2045,2055,2041,2040,2043,2055,2010
2035,2046,2056,2043,2040,2047,2057,2019
2035,2043,2045,2040,2037,2036,2039,2026
2035,2043,2055,2038,2021,2034,2018,2031
2042,2047,2051,2038,2023,2038,2056,2041
2043,2045,2057,2041,2035,2044,2052,2044
2046,2053,2057,2051,2042,2037,2057,2060
2040,2058,2062,2050,2047,2034,2058,2077
2039,2063,2068,2053,2092,2046,2054,2095
2043,2061,2057,2046,2119,2054,2045,2095
2049,2051,2054,2047,2129,2030,2045,2095
2041,2046,2051,2047,2128,2035,2059,2098
2033,2038,2051,2047,2123,2055,2071,2093
2039,2042,2050,2044,2109,2070,2061,2090
2046,2047,2050,2038,2101,2090,2064,2089
2050,2042,2050,2036,2083,2088,2065,2089
2053,2049,2047,2044,2063,2079,2056,2076
2051,2048,2048,2030,1960,1987,2046,2072
2049,2049,2053,2023,1923,1946,2035,2057
2049,2057,2060,2027,1958,1999,2042,2035
2054,2052,2060,2032,1994,2035,2050,2014
2047,2043,2054,2041,2044,2056,2032,2010
2038,2034,2046,2036,2081,2039,2023,2007
2038,2031,2037,2039,2095,2042,2033,2012
2032,2030,2035,2032,2083,2056,2036,2019
2035,2031,2038,2044,2077,2066,2036,2012
2026,2035,2053,2058,2093,2035,2032,2010
2035,2040,2064,2057,2104,1986,2023,2004
2041,2049,2064,2057,2108,1997,2026,1999
2047,2058,2068,2063,2114,2023,2028,2002
2047,2057,2068,2048,2081,2051,2054,2000
2045,2056,2058,2026,2029,2037,2047,2002
2049,2055,2055,2019,1983,2038,2031,2002
2045,2043,2053,2025,1993,2058,2036,2006
2043,2045,2052,2021,2003,2069,2027,1998
2025,2036,2047,2020,2004,2062,2029,2000
2021,2034,2046,2027,2019,2071,2043,2001
2018,2032,2043,2034,2032,2059,2056,2016
2009,2027,2043,2028,2031,2041,2048,2030
2021,2026,2035,2025,2046,2041,2034,2050
2031,2028,2034,2035,2054,2037,2039,2064
2028,2026,2031,2039,2059,2036,2042,2076
2027,2024,2021,2029,2073,2047,2054,2081
2028,2016,2012,2026,2062,2059,2043,2072
2024,2015,2009,2024,2059,2070,2026,2076
2028,2023,2016,2024,2046,2083,2060,2081
2029,2028,2009,2026,2049,2103,2058,2081
2027,2021,2007,2023,2060,2119,2060,2075
2023,2016,1999,2021,2049,2142,2057,2059
2023,2013,1992,2019,2040,2174,2061,2047
2017,2004,1986,2014,2034,2166,2052,2028
2015,1993,1977,2008,2023,2097,2038,2021
2013,1989,1979,2007,2020,2022,2028,2017
2018,1988,1981,2004,2018,2039,2033,2012
2015,1990,1983,2002,2017,2073,2033,2008
2026,1999,1978,2001,2022,2091,2047,2007
2033,2010,1998,2013,2030,2086,2052,1998
2032,2031,2026,2026,2054,2027,2044,1989
2032,2038,2039,2028,2046,1966,2015,1993
2032,2030,2029,2021,2037,1991,2017,2003
2041,2033,2035,2029,2036,2027,2033,2013
2051,2055,2047,2043,2044,2054,2046,2015
2044,2059,2056,2055,2033,2044,2057,2014
2039,2060,2059,2055,2064,2000,2032,2032
2037,2061,2060,2063,2083,1997,2028,2023
2035,2059,2055,2059,2087,2007,2016,2008
2034,2050,2061,2060,2053,2006,2023,2008
2035,2050,2069,2059,2049,2006,2016,2017
2036,2060,2077,2061,2078,2036,2016,2030
2039,2059,2081,2059,2085,2069,2014,2044
2042,2056,2080,2042,2050,2052,2028,2039
2040,2058,2080,2034,2046,2033,2021,2040
2041,2062,2084,2038,2056,2042,2039,2065
2051,2072,2086,2050,2048,2021,2043,2064
2044,2079,2086,2045,2029,1986,2024,2070
2031,2079,2085,2039,2021,1945,2026,2070
2036,2072,2086,2040,2055,1956,2039,2063
2045,2084,2100,2060,2088,1987,2050,2058
2038,2084,2101,2059,2076,1998,2053,2041
2033,2067,2089,2042,2041,2009,2005,2032
2024,2044,2065,2024,1998,2027,2027,2015
2013,2030,2050,2009,1970,2058,2016,2009
2010,2036,2053,2001,1956,2075,2015,2001
2006,2036,2041,1984,1930,2066,2023,1999
2014,2047,2037,1989,1940,2032,2043,1998
2034,2064,2055,2018,2044,2037,2040,2003
2048,2071,2060,2042,2140,2072,2045,2000
2036,2060,2052,2042,2188,2115,2038,1995
2029,2061,2051,2051,2166,2108,2034,1986
2032,2072,2050,2043,2101,2074,2043,1985
2030,2069,2049,2026,2051,2085,2043,1975
2027,2055,2040,2003,2017,2078,2049,1985
2031,2042,2036,2012,2024,2075,2050,2011
2036,2050,2044,2028,2049,2113,2066,2024
2055,2063,2054,2042,2057,2110,2068,2019
2058,2062,2064,2056,2088,2063,2071,2030
2064,2068,2077,2078,2134,2055,2064,2016
2058,2072,2081,2075,2138,2076,2071,2008
2058,2065,2070,2063,2110,2086,2067,2011
2056,2064,2064,2066,2109,2102,2065,2016
2039,2052,2056,2058,2101,2114,2063,2022
2039,2055,2046,2053,2093,2111,2055,2027
2028,2048,2052,2049,2092,2103,2048,2042
2038,2055,2054,2052,2096,2096,2072,2058
2042,2063,2060,2053,2103,2085,2067,2073
2045,2057,2049,2040,2110,2083,2076,2079
2043,2046,2049,2028,2087,2080,2056,2079
2035,2028,2035,2020,2036,2059,2057,2069
2025,2012,2020,2007,2013,2054,2032,2066
2016,2016,2025,2016,2021,2045,2043,2059
2024,2029,2031,2024,2021,2018,2051,2058
2030,2035,2030,2038,2051,1995,2030,2059
2030,2040,2035,2055,2086,2008,2034,2052
2035,2053,2041,2064,2091,2013,2040,2051
2046,2061,2044,2058,2082,1983,2038,2044
2049,2066,2045,2052,2068,1968,2030,2025
2047,2059,2036,2048,2061,1960,2021,2016
2041,2053,2039,2042,2039,1961,2035,2018
2037,2055,2039,2042,2038,1976,2039,2018
2046,2056,2037,2041,2058,2000,2052,2012
2042,2060,2030,2054,2071,2038,2052,2001
2041,2064,2039,2049,2061,2044,2040,1996
2040,2061,2031,2046,2047,2041,2030,2001
2041,2055,2030,2034,2038,2027,2028,1989
2024,2039,2026,2030,2042,2033,2022,1984
2028,2043,2034,2037,2047,2061,2038,2000
2052,2055,2044,2047,2040,2068,2015,2000
2057,2073,2046,2052,2031,2077,2010,2010
2062,2070,2057,2049,2046,2077,2028,2014
2053,2066,2058,2057,2065,2068,2032,2013
2045,2074,2068,2064,2073,2065,2024,2017
2066,2084,2069,2059,2071,2054,2022,2023
2055,2076,2071,2056,2069,2050,2028,2023
2060,2076,2058,2052,2062,2055,2032,2036
2050,2071,2065,2060,2064,2054,2044,2042
2045,2069,2054,2051,2069,2046,2021,2047
2039,2054,2045,2046,2060,2045,2025,2055
2039,2055,2051,2048,2050,2042,2030,2066
2049,2055,2049,2048,2049,2044,2024,2070
2048,2057,2052,2044,2046,2041,2012,2065
2047,2054,2037,2037,2030,2044,2019,2072
2048,2051,2035,2039,2030,2038,2015,2078
2047,2047,2039,2030,2021,2025,2004,2068
2042,2038,2030,2027,2007,2016,2017,2064
2032,2042,2028,2034,2018,2022,2007,2062
2033,2055,2044,2045,2026,2037,2020,2046
2022,2061,2054,2034,2024,2055,2032,2035
2031,2058,2041,2036,2057,2078,2032,2020
2033,2056,2045,2053,2112,2093,2011,2018
2039,2068,2050,2060,2127,2090,2042,2010
2038,2063,2045,2059,2120,2059,2044,2009
2040,2058,2048,2058,2128,2035,2057,2012
2045,2063,2050,2067,2129,2046,2055,2010
2050,2068,2048,2053,2038,2062,2071,2008
2049,2061,2043,2043,1972,2081,2068,1993
2040,2049,2034,2029,1892,2050,2055,1989
2031,2042,2024,2021,1904,2043,2045,1977
2031,2044,2030,2035,1975,2057,2064,1987
2041,2062,2038,2060,2051,2069,2068,1998
2035,2056,2037,2070,2087,2081,2070,2004
2038,2056,2036,2068,2081,2074,2062,2024
2049,2051,2036,2067,2056,2071,2053,2034
2044,2056,2033,2063,2042,2076,2050,2034
2042,2056,2037,2059,2033,2079,2065,2038
2043,2059,2041,2049,2030,2095,2048,2047
2055,2053,2046,2057,2040,2107,2050,2058
2054,2052,2046,2060,2054,2102,2028,2051
2046,2046,2041,2062,2064,2084,2018,2058
2046,2045,2044,2055,2074,2087,2046,2072
2049,2046,2038,2054,2072,2063,2051,2080
2055,2055,2041,2049,2052,2006,2060,2078
2050,2060,2035,2046,2017,1986,2017,2072
2033,2040,2026,2045,2014,2000,2007,2069
2026,2036,2016,2042,2035,2010,2013,2081
2035,2039,2025,2045,2047,2020,2026,2075
2024,2035,2033,2054,2063,2060,2031,2072
2014,2041,2028,2058,2059,2077,2025,2058
2011,2036,2030,2058,2059,2094,2030,2057
2016,2044,2035,2055,2066,2084,2040,2052
2025,2044,2031,2047,2057,2077,2038,2041
2026,2031,2029,2029,2053,2088,2042,2027
2024,2036,2025,2030,2063,2095,2055,2014
2021,2028,2026,2030,2057,2121,2043,2019
2019,2031,2033,2034,2062,2142,2058,2024
2018,2037,2033,2040,2084,2179,2062,2028
2036,2040,2032,2039,2061,2214,2059,2022
2039,2045,2036,2040,2055,2213,2033,2007
2038,2052,2039,2045,2058,2078,2007,2006
2042,2049,2035,2051,2038,1886,2003,2002
2048,2049,2037,2042,2031,1868,2001,2011
2057,2055,2038,2044,2030,1926,2010,2008
2054,2054,2041,2047,2037,1974,2016,2017
2060,2060,2039,2049,2035,1989,2025,2025
2057,2060,2036,2039,2029,2010,2044,2028
2059,2057,2037,2048,2037,2020,2046,2022
2047,2052,2048,2044,2042,2010,2050,2019
2045,2051,2046,2040,2045,1998,2057,2026
2047,2050,2047,2056,2073,2022,2053,2044
2045,2054,2055,2061,2102,2028,2038,2045
2033,2053,2049,2062,2100,2046,2050,2061
2028,2042,2041,2059,2093,2056,2055,2069
2036,2037,2038,2060,2100,2041,2057,2084
2036,2048,2044,2062,2099,1999,2025,2076
2030,2039,2038,2060,2092,1981,2024,2074
2006,2029,2029,2041,2073,2021,2023,2083
2002,2028,2028,2042,2061,1980,2007,2091
2017,2047,2036,2045,2052,1970,2019,2083
2021,2048,2039,2047,2046,2002,2018,2060
2010,2036,2030,2043,2046,2016,2016,2043
1992,2029,2030,2042,2044,2015,1988,2031
1987,2031,2034,2040,2043,2019,1980,2008
1979,2033,2045,2039,2043,2045,2005,1995
1977,2024,2035,2036,2034,2080,2028,2005
1970,2034,2038,2037,2021,2099,2030,1992
1985,2037,2042,2041,2019,2090,2055,1989
2054,2053,2038,2038,2023,2063,2035,1986
2089,2049,2038,2026,1984,2034,2006,1981
2064,2044,2035,2023,1964,2028,2028,1994
2049,2045,2040,2025,1960,2001,2050,1991
2044,2047,2036,2017,1962,1970,2012,1983
2031,2035,2034,2041,2032,2008,2044,2006
2039,2046,2049,2070,2090,2033,2028,2021
2055,2060,2059,2089,2131,2057,2049,2032
2060,2060,2065,2081,2123,2080,2074,2028
2052,2057,2048,2064,2064,2090,2063,2016
2052,2054,2048,2052,2044,2082,2082,2031
2054,2056,2050,2057,2048,2077,2060,2039
2058,2059,2052,2057,2062,2076,2052,2038
2053,2061,2046,2061,2068,2076,2061,2039
2050,2052,2046,2063,2072,2073,2064,2038
2041,2053,2049,2070,2085,2088,2062,2041
2029,2047,2047,2068,2078,2085,2072,2060
2031,2039,2043,2061,2066,2078,2066,2072
2033,2037,2040,2056,2051,2088,2064,2071
2027,2040,2039,2044,2023,2096,2061,2072
2026,2041,2032,2035,1994,2089,2060,2081
2026,2029,2024,2028,1964,2083,2048,2079
2020,2026,2022,2018,1955,2066,2036,2080
2028,2043,2038,2033,1978,2035,2037,2081
2041,2055,2048,2057,2052,2034,2062,2086
2048,2062,2056,2065,2104,2058,2058,2082
2048,2059,2050,2079,2140,2082,2058,2078
2043,2055,2049,2082,2134,2088,2059,2069
2044,2056,2053,2072,2121,2074,2064,2061
2046,2054,2046,2074,2102,2035,2070,2051
2047,2047,2053,2076,2093,2031,2057,2054
2056,2054,2048,2074,2090,2048,2065,2052
2056,2054,2041,2070,2083,2069,2066,2042
2056,2053,2040,2053,2053,2064,2064,2029
2047,2054,2039,2036,2028,2051,2058,2013
2041,2054,2042,2042,2033,2043,2067,2004
2043,2059,2047,2049,2032,2040,2024,2010
2039,2053,2042,2047,2035,2026,2036,1993
2041,2049,2038,2048,2035,2019,2036,1996
2046,2053,2046,2053,2027,2039,2068,1997
2048,2049,2045,2050,2037,2055,2056,1994
2045,2050,2045,2049,2034,2047,2053,2000
2037,2038,2033,2036,2021,2038,2040,2001
2041,2035,2031,2042,2027,2012,2029,2026
2050,2043,2042,2050,2049,1984,2033,2041
2062,2052,2049,2057,2054,1980,2018,2047
2054,2051,2044,2057,2056,1982,2011,2042
2048,2040,2045,2050,2060,2021,2016,2042
2042,2039,2042,2050,2055,2057,2030,2041
2031,2036,2043,2052,2057,2067,2035,2052
2035,2033,2038,2045,2047,2065,2042,2064
2035,2037,2040,2053,2065,2074,2048,2074
2021,2041,2044,2054,2068,2064,2042,2078
2015,2033,2039,2053,2063,2045,2039,2073
2010,2024,2036,2048,2060,2041,2059,2077
2019,2031,2045,2056,2075,2059,2044,2088
2025,2037,2042,2058,2096,2078,2059,2085
2037,2049,2041,2060,2093,2081,2038,2080
2040,2051,2050,2057,2069,2082,2061,2080
2049,2058,2059,2059,2063,2100,2061,2074
2048,2056,2054,2048,2041,2106,2070,2063
2038,2052,2045,2048,2034,2102,2055,2056
2043,2048,2046,2048,2025,2082,2056,2045
2051,2047,2047,2053,2027,2053,2053,2039
2047,2051,2045,2053,2049,2047,2062,2033
2047,2044,2046,2049,2058,2027,2034,2016
2038,2043,2043,2052,2046,2028,2036,2010
2036,2044,2050,2052,2031,2029,2056,2002
2035,2038,2040,2043,2013,2018,2033,1996
2027,2036,2036,2036,1996,2019,2043,1988
2021,2029,2032,2032,2001,2027,2054,1986
2027,2031,2034,2038,1999,2032,2062,1997
2032,2034,2042,2039,1997,2021,2056,2002
2034,2043,2045,2056,2023,2024,2059,2011
2043,2046,2051,2062,2055,2039,2061,2020
2050,2051,2054,2063,2072,2046,2061,2027
2054,2060,2063,2061,2076,2057,2072,2036
2055,2052,2058,2065,2044,2048,2064,2040
2054,2054,2054,2060,2049,2046,2050,2045
2052,2043,2044,2062,2101,2059,2044,2052
2047,2031,2043,2066,2114,2059,2036,2050
2046,2033,2039,2060,2119,2048,2063,2056
2037,2025,2042,2057,2110,2047,2049,2063
2026,2025,2045,2062,2089,2056,2058,2080
2028,2033,2055,2064,2072,2049,2064,2089
2035,2043,2058,2066,2064,2042,2065,2096
2034,2039,2047,2056,2055,2040,2065,2095
2039,2044,2052,2056,2068,2049,2067,2107
2047,2056,2048,2056,2068,2058,2063,2105
2049,2055,2050,2051,2064,2055,2054,2101
2046,2049,2048,2046,2065,2062,2070,2095
2056,2036,2047,2049,2049,2060,2062,2093
2052,2038,2039,2049,2053,2063,2052,2068
2053,2038,2044,2050,2053,2064,2060,2057
2053,2044,2044,2055,2064,2072,2062,2040
2047,2045,2042,2055,2057,2077,2048,2046
2047,2035,2042,2049,2048,2086,2030,2036
2044,2039,2041,2055,2049,2090,2052,2032
2038,2042,2043,2046,2050,2083,2051,2023
2038,2050,2044,2050,2045,2034,2048,2018
2048,2052,2044,2046,2054,2011,2036,2016
2054,2056,2050,2052,2062,2029,2030,2016
2048,2043,2046,2054,2051,2036,2037,2008
2040,2034,2042,2045,2052,2032,2038,2014
2042,2041,2037,2050,2049,2028,2029,2023
2052,2051,2053,2063,2058,2044,2060,2019
2053,2057,2067,2069,2061,2062,2064,2024
2054,2059,2068,2065,2054,2072,2069,2031
2054,2053,2063,2058,2045,2069,2067,2036
2051,2048,2050,2052,2052,2068,2056,2038
2044,2043,2046,2047,2023,2058,2057,2032
2038,2043,2039,2048,2009,2041,2072,2049
2038,2026,2041,2046,2050,2044,2069,2053
2029,2021,2035,2049,2084,2070,2067,2067
2036,2017,2032,2054,2111,2077,2055,2076
2036,2017,2026,2057,2110,2080,2067,2077
2021,2023,2023,2056,2117,2086,2067,2079
2028,2019,2029,2052,2124,2067,2057,2081
2029,2010,2018,2045,2100,2056,2062,2090
2027,2006,2015,2040,2079,2051,2041,2093
2041,2034,2032,2042,2071,2061,2040,2097
2050,2039,2033,2030,1966,2042,2034,2089
2036,2036,2029,2011,1933,2061,2018,2080
2026,2031,2028,2015,1946,2071,2037,2057
2028,2035,2028,2016,1946,2058,2027,2047
2038,2038,2029,2014,1956,2033,2031,2046
2042,2041,2036,2019,1957,1987,2039,2049
2049,2052,2043,2040,1995,1961,2063,2053
2060,2055,2056,2063,2074,2015,2064,2051
2056,2052,2054,2064,2094,2041,2062,2039
2059,2051,2055,2060,2100,2061,2076,2038
2063,2052,2055,2051,2094,2053,2077,2027
2055,2045,2059,2057,2075,2038,2049,2015
2048,2050,2060,2055,2061,2045,2044,2014
2048,2034,2050,2049,2053,2056,2061,2020
2053,2033,2049,2047,2051,2048,2061,2019
2066,2047,2061,2048,2055,2037,2068,2015
2061,2052,2065,2064,2064,2049,2067,2014
2056,2055,2059,2062,2085,2058,2063,2009
2050,2048,2053,2062,2080,2042,2052,2012
2044,2046,2052,2056,2071,2039,2053,2027
2054,2042,2052,2053,2065,2055,2056,2034
2059,2048,2065,2057,2067,2060,2049,2037
2059,2055,2063,2059,2067,2058,2042,2052
2063,2058,2065,2063,2076,2072,2033,2064
2067,2053,2064,2058,2075,2081,2046,2077
2062,2050,2055,2059,2061,2061,2062,2078
2054,2043,2053,2050,2054,2039,2048,2073
2048,2045,2049,2047,2056,2013,2051,2086
2055,2044,2056,2048,2054,2010,2062,2097
2048,2037,2045,2050,2061,2006,2046,2098
2059,2036,2051,2050,2049,1992,2042,2098
2051,2041,2051,2054,2045,1974,2042,2078
2040,2042,2051,2047,2030,1951,2043,2082
2056,2041,2058,2045,2024,1951,2041,2083
2056,2048,2051,2044,2022,2008,2051,2076
2060,2048,2053,2042,2029,2045,2076,2064
2060,2045,2047,2052,2036,2058,2064,2062
2056,2039,2048,2040,2038,2056,2056,2046
2055,2034,2039,2036,2028,2053,2056,2034
2052,2028,2033,2050,2052,2041,2059,2036
2057,2026,2035,2054,2061,2089,2055,2037
2046,2025,2034,2054,2056,2110,2057,2026
2052,2029,2032,2050,2042,2100,2056,2012
2052,2022,2035,2050,2038,2099,2067,2013
2056,2020,2030,2051,2041,2122,2072,2012
2042,2018,2033,2048,2028,2136,2080,2014
2039,2020,2037,2050,2032,2156,2080,2020
2055,2031,2039,2056,2034,2130,2065,2005
2044,2026,2032,2044,2028,2030,2034,1992
2037,2018,2031,2042,2025,1943,2024,2004
2036,2015,2026,2037,2047,1965,2024,2009
2034,2015,2030,2041,2045,2006,2017,2022
2049,2032,2042,2044,2020,2038,2033,2026
2058,2042,2039,2044,1991,2010,2035,2032
2052,2037,2036,2036,1988,2017,2023,2037
2046,2035,2041,2035,2003,2008,2032,2052
2046,2040,2043,2051,2068,1991,2045,2070
2051,2037,2051,2074,2113,2010,2062,2079
2042,2034,2048,2074,2118,2038,2070,2081
2040,2022,2033,2061,2110,2061,2057,2100
2049,2016,2035,2059,2114,2075,2054,2108
2056,2015,2045,2052,2088,2078,2044,2113
2056,2034,2048,2046,2054,2085,2057,2113
2065,2043,2058,2038,2038,2094,2063,2111
2063,2041,2051,2041,2048,2076,2064,2098
2053,2044,2054,2043,2045,2067,2053,2079
2049,2045,2056,2041,2047,2037,2047,2073
2049,2039,2049,2039,2038,2009,2046,2067
2042,2029,2039,2032,2029,2005,2041,2064
2041,2032,2045,2032,2011,1996,2034,2054
2056,2049,2058,2040,2004,2000,2038,2040
2062,2047,2054,2029,1989,2000,2036,2036
2050,2037,2041,2030,1991,2001,2040,2030
2047,2039,2039,2029,2013,2020,2044,2032
2054,2037,2042,2041,2043,2049,2056,2026
2057,2040,2046,2054,2075,2073,2076,2025
2064,2048,2048,2061,2097,2076,2057,2027
2057,2045,2057,2049,2096,2069,2051,2026
2058,2046,2051,2047,2083,2036,2022,2021
2052,2049,2054,2044,2060,2030,2055,2015
2052,2058,2063,2051,2054,2039,2049,2027
2062,2060,2063,2056,2071,2040,2064,2035
2069,2063,2068,2056,2066,2056,2061,2041
2076,2068,2071,2053,2067,2071,2078,2038
2070,2063,2064,2055,2072,2044,2067,2039
2063,2057,2066,2055,2066,2049,2038,2044
2064,2047,2056,2051,2058,2047,2041,2050
2057,2052,2068,2057,2069,2079,2050,2045
2044,2046,2068,2057,2064,2090,2036,2046
2048,2047,2058,2051,2065,2097,2044,2062
2050,2051,2057,2046,2064,2090,2049,2070
2053,2047,2062,2047,2047,2067,2042,2086
2053,2049,2054,2044,2046,2024,2046,2102
2061,2051,2058,2050,2061,2021,2057,2107
2055,2039,2052,2048,2064,2032,2051,2107
2047,2040,2046,2050,2068,2043,2044,2113
2052,2039,2043,2056,2066,2042,2060,2105
2049,2033,2037,2051,2066,2042,2045,2105
2049,2024,2034,2042,2058,2041,2045,2093
2047,2028,2037,2050,2056,2047,2053,2075
2042,2034,2047,2051,2053,2043,2044,2069
2045,2044,2048,2050,2041,2042,2070,2056
2052,2048,2050,2047,2037,2046,2059,2057
2060,2059,2060,2048,2041,2057,2046,2062
2064,2058,2056,2042,2041,2054,2036,2056
2056,2050,2051,2039,2034,2043,2046,2037
2054,2041,2053,2039,2029,2039,2029,2035
2054,2043,2052,2040,2021,2031,2044,2038
2054,2037,2048,2038,2022,2031,2051,2032
2061,2039,2049,2035,2026,2038,2030,2017
2054,2036,2046,2030,2030,2042,2026,2009
2048,2032,2044,2031,2030,2043,2052,2005
2041,2036,2052,2037,2049,2050,2059,2020
2059,2031,2052,2036,2057,2036,2063,2027
2064,2039,2051,2042,2051,2028,2052,2026
2055,2041,2044,2042,2056,2022,2042,2017
2044,2041,2054,2042,2067,2044,2051,2019
2047,2040,2055,2058,2082,2095,2072,2040
2056,2043,2049,2061,2094,2130,2085,2053
2052,2040,2052,2063,2085,2138,2089,2063
2054,2043,2054,2058,2068,2106,2075,2067
2058,2043,2054,2052,2050,2025,2064,2083
2056,2044,2063,2054,2039,1987,2063,2085
2055,2036,2056,2052,2052,2001,2060,2087
2042,2026,2059,2061,2060,2032,2058,2089
2049,2036,2061,2054,2050,2050,2041,2088
2038,2033,2049,2048,2049,2053,2032,2094
2040,2028,2041,2037,2046,2051,2044,2099
2041,2031,2041,2047,2043,2050,2040,2103
2047,2043,2046,2046,2036,2042,2033,2104
2045,2049,2044,2041,2033,2034,2025,2092
2052,2053,2048,2044,2030,2039,2044,2087
2060,2062,2059,2044,2036,2043,2044,2082
2056,2054,2051,2038,2044,2047,2045,2073
2049,2056,2052,2052,2045,2055,2050,2064
2054,2052,2056,2051,2051,2064,2029,2062
2054,2049,2049,2045,2048,2061,2053,2047
2054,2051,2044,2043,2036,2051,2053,2044
2057,2049,2045,2044,2022,2049,2050,2047
2054,2050,2039,2037,2021,2050,2047,2040
2062,2051,2042,2042,2016,2044,2035,2026
2052,2044,2042,2043,2025,2047,2036,2025
2046,2039,2045,2041,2029,2057,2042,2020
2042,2031,2040,2039,2031,2071,2051,2020
2035,2031,2043,2040,2029,2085,2058,2011
2034,2033,2045,2044,2036,2075,2052,2010
2032,2035,2045,2047,2059,2068,2059,2018
2037,2044,2054,2052,2089,2069,2081,2029
2044,2047,2054,2058,2103,2080,2090,2036
2054,2049,2054,2053,2103,2067,2073,2045
2057,2051,2055,2050,2087,2044,2079,2050
2057,2054,2053,2056,2081,2036,2072,2054
2060,2057,2059,2060,2068,2020,2081,2055
2058,2056,2065,2059,2068,2016,2051,2065
2056,2061,2067,2054,2071,2033,2060,2066
2057,2048,2061,2052,2064,2052,2060,2079
2050,2035,2048,2041,2045,2096,2056,2081
2044,2035,2045,2045,2041,2138,2057,2086
2036,2041,2049,2037,2038,2128,2050,2081
2035,2038,2039,2034,2020,2012,2024,2073
2018,2025,2035,2030,2017,1945,2005,2077
2021,2028,2040,2033,2032,1992,2031,2086
2032,2037,2043,2035,2036,2029,2036,2086
2044,2051,2047,2042,2034,2049,2021,2091
2048,2057,2047,2043,2036,2057,2047,2091
2045,2057,2054,2048,2045,2057,2057,2087
2051,2057,2054,2050,2049,2063,2058,2072
2048,2054,2051,2050,2053,2057,2035,2062
2047,2063,2052,2049,2049,2062,2045,2054
2052,2058,2054,2046,2048,2061,2043,2046
2056,2046,2055,2048,2047,2054,2052,2044
2059,2043,2050,2047,2043,2051,2042,2037
2055,2042,2047,2045,2045,2056,2038,2031
2058,2040,2045,2045,2037,2048,2040,2024
2051,2051,2048,2042,2027,2040,2046,2020
2050,2054,2056,2039,2021,2019,2041,2015
2042,2039,2035,2036,2029,2023,2043,2016
2044,2034,2039,2036,2042,2043,2075,2021
2061,2044,2037,2040,2045,2046,2058,2023
2057,2040,2045,2047,2052,2044,2070,2027
2055,2044,2048,2054,2059,2049,2062,2030
2052,2049,2047,2056,2065,2042,2049,2039
2058,2049,2043,2050,2054,2051,2057,2036
2053,2041,2037,2043,2045,2052,2059,2040
2051,2044,2035,2047,2042,2055,2042,2047
2041,2035,2033,2048,2052,2060,2054,2060
2053,2044,2036,2055,2052,2068,2039,2061
2063,2052,2039,2047,2054,2070,2056,2075
2059,2045,2036,2047,2033,2052,2061,2088
2064,2042,2030,2045,2027,2034,2046,2088
2057,2028,2029,2043,2022,2029,2040,2084
2048,2029,2040,2046,2025,2032,2029,2081
2042,2031,2041,2041,2025,2026,2042,2087
2040,2028,2032,2045,2021,2032,2039,2093
2038,2040,2043,2054,2039,2042,2044,2095
2043,2050,2046,2061,2060,2049,2047,2096
2062,2060,2047,2055,2059,2057,2068,2096
2068,2059,2050,2054,2048,2058,2068,2082
2076,2050,2044,2050,2045,2054,2056,2074
2068,2046,2048,2046,2038,2053,2065,2065
2072,2044,2049,2045,2040,2058,2070,2054
2064,2050,2046,2044,2040,2058,2068,2047
2049,2040,2041,2045,2035,2044,2056,2034
2050,2042,2051,2049,2007,2034,2084,2034
2055,2055,2052,2052,2034,2043,2067,2030
2066,2059,2050,2058,2042,2043,2061,2021
2060,2056,2050,2056,2034,2035,2065,2014
2060,2041,2048,2052,2023,2036,2070,2017
2051,2029,2032,2044,2003,2037,2065,2010
2044,2030,2037,2041,2013,2049,2082,2017
2052,2043,2040,2049,2012,2049,2081,2022
2055,2038,2044,2035,1982,2024,2062,2027
2049,2044,2042,2025,2016,2040,2084,2027
2052,2045,2040,2034,2041,2050,2071,2034
2048,2040,2043,2031,2050,2047,2062,2043
2051,2041,2048,2035,2044,2049,2081,2054
2064,2049,2052,2041,2040,2066,2074,2056
2059,2049,2043,2050,2045,2079,2083,2056
2065,2048,2054,2051,2044,2083,2078,2063
2058,2050,2047,2052,2057,2068,2072,2071
2054,2044,2042,2051,2065,2032,2063,2074
2046,2040,2038,2047,2051,1981,2029,2081
2044,2038,2042,2043,2040,1961,1994,2084
2043,2042,2036,2037,2027,1983,2009,2086
2041,2035,2029,2025,2014,2007,2018,2098
2045,2026,2028,2020,2004,2014,2031,2104
2042,2034,2034,2021,2003,2010,2022,2091
2052,2039,2032,2022,2012,1990,2001,2084
2056,2039,2031,2027,2020,1955,2002,2080
2050,2044,2036,2044,2051,1949,2008,2081
2052,2050,2055,2060,2073,1984,2024,2070
2046,2053,2057,2051,2071,2030,2038,2061
2055,2056,2054,2057,2070,2087,2036,2062
2063,2060,2059,2054,2064,2124,2050,2053
2061,2065,2059,2057,2055,2117,2057,2048
2061,2062,2060,2052,2039,2096,2045,2044
2066,2059,2052,2045,2033,2084,2073,2035
2058,2054,2048,2041,2026,2078,2076,2028
2057,2054,2038,2036,2016,2058,2070,2016
2054,2052,2041,2038,2053,2038,2061,2008
2052,2043,2039,2035,2088,2041,2045,2009
2041,2043,2042,2048,2115,2051,2062,2007
2045,2049,2052,2055,2129,2056,2080,2013
2047,2041,2049,2058,2128,2050,2078,2020
2056,2039,2052,2056,2154,2048,2080,2025
2069,2042,2050,2057,2158,2066,2072,2033
2063,2038,2037,2044,2125,2068,2063,2031
2051,2032,2035,2044,2043,2062,2050,2027
2055,2045,2045,2041,1957,2060,2051,2040
2061,2055,2056,2048,1988,2071,2062,2043
2055,2052,2054,2060,2032,2092,2057,2044
2050,2048,2048,2060,2060,2111,2052,2052
2044,2041,2050,2057,2066,2138,2057,2068
2037,2039,2041,2053,2055,2158,2039,2082
2044,2036,2040,2049,2058,2151,2054,2091
2039,2038,2039,2050,2073,2093,2053,2098
2038,2028,2031,2042,2049,1952,2013,2097
2043,2025,2029,2040,2039,1946,2016,2104
2054,2046,2045,2038,2039,2006,2046,2099
2058,2053,2049,2047,2030,2047,2043,2089
2050,2045,2042,2039,2031,2072,2061,2087
2039,2041,2036,2029,2031,2079,2078,2087
2051,2047,2043,2036,2028,2074,2045,2087
2047,2064,2048,2038,2022,2066,2060,2080
2055,2073,2058,2045,2011,2061,2061,2066
2056,2075,2066,2051,2022,2078,2061,2063
2052,2074,2057,2053,2020,2089,2053,2041
2054,2065,2051,2052,2027,2092,2062,2035
2049,2063,2051,2052,2023,2072,2042,2023
2049,2061,2045,2042,2013,2007,2023,2016
2049,2062,2053,2046,2016,1983,2025,2016
2053,2063,2047,2046,2014,1993,2016,2004
2044,2051,2039,2040,2013,2008,2016,2004
2045,2053,2045,2043,2029,2024,2024,2008
2052,2058,2057,2047,2039,2031,2043,2019
2055,2063,2054,2053,2047,2041,2048,2024
2057,2065,2057,2049,2056,2040,2052,2027
2058,2070,2056,2056,2068,2041,2057,2025
2058,2066,2059,2062,2073,2045,2047,2032
2059,2063,2052,2057,2068,2049,2050,2036
2054,2051,2052,2057,2069,2046,2053,2040
2051,2052,2059,2054,2065,2048,2045,2048
2053,2054,2050,2060,2057,2050,2045,2071
2050,2052,2049,2059,2043,2051,2047,2078
2048,2053,2050,2057,2046,2057,2047,2090
2043,2060,2056,2063,2050,2050,2052,2091
2047,2062,2058,2060,2050,2050,2057,2093
2053,2065,2055,2059,2034,2043,2045,2098
2049,2050,2043,2044,2024,2040,2051,2107
2049,2044,2036,2046,2032,2039,2043,2098
2053,2054,2039,2051,2034,2055,2046,2100
2058,2057,2044,2049,2049,2056,2045,2101
2057,2061,2042,2053,2048,2066,2065,2094
2058,2058,2046,2052,2067,2069,2044,2088
2054,2058,2042,2051,2083,2065,2039,2074
2054,2061,2048,2053,2078,2070,2050,2070
2053,2058,2047,2054,2072,2059,2044,2063
2060,2057,2049,2054,2058,2048,2040,2057
2053,2055,2046,2050,2044,2042,2062,2050
2054,2055,2049,2048,2033,2034,2058,2043
2054,2051,2046,2048,2030,2030,2047,2034
2054,2048,2036,2047,2034,2040,2048,2023
2052,2044,2039,2048,2042,2043,2052,2017
2050,2048,2042,2054,2044,2036,2014,2005
2041,2039,2034,2041,2038,2025,2010,1998
2040,2036,2036,2036,2036,2037,2021,2014
2051,2049,2046,2048,2042,2039,2037,2018
2050,2056,2046,2047,2045,2027,2046,2018
2056,2053,2044,2041,2044,2010,2029,2011
2052,2054,2053,2049,2067,2019,2033,2027
2060,2059,2059,2061,2083,2050,2049,2035
2065,2062,2061,2068,2092,2067,2059,2051
2067,2060,2063,2066,2075,2060,2063,2048
2065,2058,2059,2063,2061,2030,2062,2063
2063,2053,2059,2058,2058,2020,2058,2066
2053,2055,2062,2056,2062,2040,2049,2090
2056,2055,2064,2065,2066,2055,2042,2093
2047,2056,2058,2060,2055,2061,2026,2088
2037,2048,2054,2062,2043,2057,2030,2093
2037,2048,2044,2047,2024,2055,2038,2092
2026,2031,2032,2033,1994,2067,2035,2098
2038,2027,2033,2021,2003,2073,2044,2099
2056,2044,2034,2034,2022,2078,2063,2115
2067,2043,2031,2036,2036,2048,2057,2103
2059,2046,2037,2037,2037,1979,2042,2098
2050,2039,2032,2043,2029,1976,2049,2087
2055,2047,2041,2045,2036,2011,2054,2075
2054,2052,2044,2048,2040,2051,2065,2072
2060,2051,2054,2044,2027,2065,2063,2055
2061,2053,2042,2032,1997,2057,2051,2049
2063,2052,2042,2025,1993,2048,2055,2037
2060,2056,2037,2019,1988,2038,2030,2021
2049,2050,2044,2025,2013,2049,2022,2024
2048,2057,2054,2044,2067,2062,2051,2020
2050,2063,2066,2062,2077,2060,2045,2028
2054,2053,2054,2058,2061,2052,2051,2026
2049,2036,2040,2052,2045,2041,2054,2027
2045,2038,2031,2041,2043,2043,2055,2024
2047,2039,2042,2042,2041,2045,2049,2024
2054,2055,2049,2042,2037,2047,2068,2029
2056,2054,2047,2048,2047,2047,2074,2041
2055,2051,2055,2052,2049,2042,2071,2050
2052,2058,2058,2057,2049,2047,2061,2049
2063,2066,2066,2054,2041,2048,2091,2046
2061,2069,2066,2055,2042,2044,2085,2039
2048,2070,2072,2059,2053,2055,2079,2048
2052,2068,2072,2068,2063,2070,2084,2054
2042,2058,2059,2056,2050,2076,2076,2066
2046,2053,2062,2053,2047,2055,2058,2076
2054,2058,2058,2054,2062,2043,2061,2097
2065,2060,2055,2060,2070,2052,2052,2104
2061,2061,2055,2064,2080,2049,2064,2107
2055,2046,2047,2061,2074,2039,2069,2106
2053,2045,2050,2056,2075,2044,2067,2105
2046,2054,2054,2061,2067,2046,2047,2094
2049,2046,2048,2058,2072,2048,2037,2091
2046,2049,2050,2056,2065,2054,2049,2086
2057,2048,2053,2050,2067,2062,2044,2088
2051,2053,2047,2044,2033,2058,2060,2077
2057,2056,2050,2029,1971,2051,2065,2067
2062,2055,2049,2029,1989,2046,2062,2052
2055,2053,2047,2026,1999,2063,2061,2043
2051,2052,2042,2029,2005,2081,2064,2034
2059,2053,2047,2026,2019,2085,2074,2032
2057,2045,2040,2034,2020,2079,2075,2031
2055,2054,2050,2041,2031,2056,2072,2027
2059,2055,2058,2056,2047,1997,2076,2024
2046,2056,2064,2051,2052,1994,2070,2013
2045,2043,2056,2042,2042,2004,2051,2010
2042,2043,2045,2036,2024,2014,2052,2008
2049,2052,2053,2035,2013,2010,2044,2014
2054,2052,2050,2034,2006,2014,2075,2013
2056,2053,2048,2035,2003,2014,2075,2028
2052,2055,2055,2038,2009,1998,2080,2029
2050,2051,2048,2033,2016,1995,2050,2040
2053,2054,2057,2055,2051,2013,2065,2046
2058,2057,2057,2064,2082,1985,2064,2060
2057,2045,2052,2067,2102,1971,2047,2075
2055,2049,2049,2064,2102,1973,2069,2083
2056,2044,2051,2060,2088,1978,2065,2089
2057,2043,2048,2060,2066,1972,2045,2088
2052,2047,2055,2056,2056,1981,2058,2084
2043,2047,2054,2056,2053,1997,2050,2082
2029,2036,2044,2043,2051,2066,2074,2077
2017,2019,2020,2033,2037,2143,2084,2075
2022,2017,2025,2030,2036,2174,2097,2095
2047,2037,2030,2033,2031,2152,2076,2102
2053,2040,2032,2030,2011,2146,2061,2108
2065,2038,2027,2026,2009,2143,2068,2100
2063,2035,2020,2028,1987,2133,2066,2084
2054,2036,2021,2028,1985,2053,2029,2070
2044,2037,2028,2030,1977,2001,2040,2053
2041,2035,2026,2037,1987,2020,2062,2041
2042,2034,2030,2040,2013,2045,2065,2035
2047,2034,2022,2044,2022,2056,2071,2037
2057,2033,2024,2042,2028,2059,2050,2022
2047,2037,2022,2039,2040,2060,2032,2006
2045,2029,2022,2036,2043,2060,2033,1993
2038,2031,2019,2041,2050,2065,2056,2009
2045,2042,2032,2041,2061,2058,2065,2018
2044,2034,2020,2033,2048,2046,2039,2011
2038,2028,2017,2037,2041,2050,2039,2011
2054,2041,2032,2042,2038,2061,2045,2007
2051,2040,2041,2041,2017,2051,2040,2013
2048,2046,2049,2039,1989,2028,2032,2029
2057,2058,2062,2040,1974,2028,2056,2028
2053,2051,2066,2042,2000,2035,2058,2030
2056,2055,2075,2054,2039,2059,2048,2037
2054,2066,2085,2057,2065,2065,2061,2046
2046,2062,2076,2058,2084,2076,2058,2052
2051,2062,2072,2056,2080,2059,2064,2059
2048,2046,2068,2052,2064,2049,2053,2067
2048,2051,2067,2053,2069,2052,2067,2082
2050,2059,2080,2050,2054,2047,2071,2086
2057,2054,2076,2051,2064,2057,2071,2101
2057,2061,2081,2061,2066,2064,2060,2105
2054,2056,2082,2063,2073,2062,2059,2100
2044,2051,2071,2060,2069,2063,2068,2104
2045,2062,2069,2061,2058,2064,2051,2113
2049,2053,2058,2053,2058,2061,2046,2107
2047,2045,2053,2051,2057,2065,2050,2099
2049,2058,2059,2058,2060,2075,2037,2085
2054,2075,2076,2062,2050,2073,2057,2077
2056,2072,2069,2059,2043,2061,2048,2063
2057,2065,2069,2060,2043,2077,2046,2051
2045,2059,2064,2061,2054,2088,2034,2039
2045,2052,2052,2051,2067,2080,2033,2031
2046,2047,2056,2054,2069,2086,2046,2031
2051,2061,2058,2053,2065,2085,2039,2028
2056,2061,2062,2058,2060,2033,2039,2013
2058,2061,2057,2053,2057,2003,2037,2020
2057,2061,2056,2053,2060,2017,2047,2029
2052,2052,2050,2049,2046,2037,2033,2013
2048,2049,2048,2041,2029,2029,2044,2005
2044,2048,2051,2045,2027,2023,2022,2008
2051,2049,2053,2044,2033,2020,2009,2013
2048,2056,2056,2048,2036,2023,2033,2014
2048,2050,2057,2058,2046,2029,2024,2023
2053,2051,2058,2058,2051,2032,2025,2023
2054,2055,2060,2057,2052,2037,2031,2029
2059,2060,2062,2060,2050,2047,2046,2038
2061,2057,2064,2061,2046,2053,2045,2050
2061,2055,2064,2052,2039,2041,2048,2058
2061,2051,2056,2048,2036,2042,2050,2060
2061,2049,2056,2044,2032,2052,2058,2075
2047,2046,2054,2050,2039,2058,2063,2083
2051,2037,2053,2043,2044,2060,2059,2096
2046,2043,2049,2043,2046,2061,2045,2101
2052,2047,2050,2044,2040,2051,2046,2092
2045,2040,2045,2042,2039,2048,2029,2099
2033,2040,2047,2039,2059,2049,2019,2090
2034,2035,2041,2037,2089,2053,2048,2088
2033,2038,2044,2043,2112,2064,2057,2096
2042,2042,2053,2050,2112,2066,2028,2092
2055,2048,2056,2048,2113,2053,2038,2086
2047,2050,2050,2047,2098,2034,2017,2067
2046,2045,2047,2047,2080,2025,2034,2062
2048,2051,2051,2050,2059,2005,2036,2055
2057,2060,2057,2048,2034,2016,2031,2050
2052,2061,2053,2045,1959,2025,2041,2045
2049,2051,2050,2038,1919,2028,2044,2037
2056,2053,2050,2042,1954,2036,2036,2033
2056,2055,2054,2040,1982,2045,2034,2035
2058,2057,2052,2042,1998,2051,2037,2019
2055,2053,2043,2041,2005,2051,2012,2012
2053,2039,2038,2035,2009,2063,2020,2008
2046,2032,2039,2034,2012,2097,2022,2021
2049,2040,2035,2046,2020,2145,2039,2018
2047,2038,2039,2043,2030,2122,2056,2014
2041,2039,2050,2046,2036,2033,2053,2016
2045,2050,2050,2043,2032,1965,2056,2027
2041,2040,2040,2034,2029,1989,2039,2036
2042,2028,2033,2032,2018,2006,2051,2034
2044,2025,2029,2027,2014,2013,2042,2040
2046,2025,2028,2029,2020,2028,2037,2052
2049,2020,2023,2029,2029,2036,2057,2064
2050,2026,2026,2038,2030,2042,2057,2068
2044,2027,2034,2045,2034,2046,2055,2088
