CH1,CH2,CH3,CH4,CH5,CH6,CH7,CH8
2044,2053,2063,2069,2054,2057,2061,2076
2041,2046,2062,2070,2050,2053,2045,2071
2045,2045,2055,2067,2052,2049,2038,2064
2044,2033,2047,2066,2047,2048,2057,2054
2041,2033,2046,2065,2053,2046,2040,2042
2049,2038,2045,2069,2050,2049,2050,2041
2056,2040,2048,2076,2050,2051,2053,2042
2051,2045,2054,2080,2044,2046,2054,2035
2045,2039,2058,2083,2040,2043,2057,2022
2045,2037,2060,2089,2040,2041,2056,2013
2042,2044,2072,2092,2055,2050,2047,2005
2031,2030,2063,2079,2038,2027,2026,1999
2029,2028,2059,2061,2031,2027,2022,2004
2044,2049,2053,2060,2044,2051,2057,2014
2048,2048,2046,2041,2031,2042,2047,2015
2052,2049,2054,2041,2026,2045,2049,2016
2056,2073,2083,2050,2032,2055,2058,2025
2063,2082,2107,2056,2037,2051,2057,2026
2067,2090,2120,2061,2056,2045,2062,2037
2064,2093,2128,2064,2063,2052,2062,2039
2059,2084,2120,2054,2059,2051,2049,2046
2054,2073,2113,2040,2049,2052,2043,2058
2055,2076,2106,2033,2048,2057,2044,2073
2060,2081,2097,2023,2046,2057,2044,2080
2054,2075,2068,2012,2041,2050,2042,2086
2056,2069,2059,2007,2042,2053,2047,2088
2051,2069,2060,2016,2046,2054,2039,2089
2039,2044,2044,2008,2014,2027,2010,2070
2027,2032,2038,2013,2030,2024,2021,2077
2039,2062,2063,2036,2047,2053,2044,2092
2050,2071,2061,2042,2066,2049,2036,2089
2046,2064,2063,2052,2069,2055,2038,2078
2049,2058,2068,2057,2077,2056,2024,2076
2051,2063,2065,2053,2071,2062,2044,2066
2044,2064,2058,2055,2068,2064,2047,2062
2057,2058,2054,2054,2064,2068,2057,2052
2061,2061,2051,2056,2059,2056,2046,2054
2064,2059,2053,2068,2047,2047,2041,2045
2060,2054,2053,2072,2052,2052,2044,2043
2053,2052,2059,2085,2064,2067,2040,2027
2046,2039,2059,2091,2060,2061,2040,2017
2039,2042,2052,2090,2051,2062,2048,2007
2032,2046,2058,2089,2044,2050,2037,2005
2026,2023,2035,2068,2022,2024,2014,1987
2008,2013,2013,2056,2002,2018,2018,1996
2011,2028,2026,2075,2012,2042,2036,2014
2043,2049,2030,2080,2025,2051,2041,2024
2050,2054,2023,2078,2041,2053,2045,2024
2049,2051,2019,2074,2031,2055,2038,2033
2050,2060,2029,2068,2031,2056,2046,2034
2052,2058,2024,2066,2044,2066,2069,2035
2048,2053,2028,2046,2050,2060,2056,2039
2049,2050,2021,2023,2022,2057,2038,2036
2037,2043,2018,2001,2013,2053,2034,2040
2035,2052,2029,1995,2023,2051,2050,2050
2041,2062,2046,2019,2061,2056,2046,2070
2046,2072,2068,2039,2084,2050,2050,2082
2048,2071,2071,2042,2068,2051,2051,2084
2052,2065,2068,2045,2066,2054,2047,2091
2048,2054,2054,2041,2072,2041,2006,2073
2025,2028,2045,2041,2066,2038,2012,2072
2017,2038,2061,2056,2075,2057,2036,2092
2059,2067,2075,2061,2064,2050,2041,2085
2058,2083,2109,2037,2051,2043,2042,2084
2060,2090,2124,2036,2062,2052,2043,2082
2063,2080,2108,2028,2046,2054,2039,2082
2066,2080,2085,2014,1998,2047,2037,2070
2062,2069,2066,2013,2011,2050,2043,2062
2064,2064,2057,2022,2042,2054,2046,2052
2059,2056,2051,2023,2052,2055,2034,2045
2063,2054,2050,2028,2052,2060,2060,2039
2064,2057,2051,2033,2041,2052,2057,2040
2062,2052,2046,2031,2031,2040,2035,2027
2060,2057,2045,2029,2021,2031,2030,2024
2064,2057,2041,2031,2020,2037,2037,2029
2067,2056,2043,2025,1997,2018,2016,2009
2034,2021,2019,2018,1998,2023,2013,1996
2037,2020,2016,2027,2026,2052,2041,2019
2056,2042,2027,2040,2039,2057,2047,2023
2057,2037,2040,2047,2048,2052,2052,2023
2051,2039,2049,2055,2056,2064,2063,2024
2054,2050,2057,2061,2052,2065,2046,2023
2057,2051,2061,2064,2057,2065,2051,2025
2060,2058,2066,2067,2062,2060,2042,2038
2052,2058,2073,2071,2059,2056,2058,2036
2052,2056,2084,2072,2068,2059,2053,2052
2060,2070,2088,2076,2063,2054,2051,2060
2058,2065,2072,2071,2070,2057,2065,2061
2053,2046,2057,2060,2078,2045,2049,2067
2056,2048,2052,2062,2081,2040,2047,2070
2057,2060,2059,2068,2075,2043,2050,2072
2056,2063,2052,2057,2064,2033,2029,2060
2034,2027,2032,2032,2040,2022,2013,2062
2031,2021,2035,2026,2048,2044,2039,2081
2049,2054,2055,2039,2055,2051,2047,2079
2054,2060,2050,2032,2056,2053,2050,2084
2056,2060,2049,2026,2052,2047,2048,2074
2049,2054,2039,2019,2046,2048,2033,2072
2046,2047,2033,2023,2044,2054,2032,2063
2055,2060,2046,2035,2047,2049,2038,2058
2057,2065,2062,2049,2058,2050,2037,2056
2060,2066,2075,2055,2056,2049,2043,2052
2061,2066,2074,2052,2057,2046,2042,2046
2060,2063,2074,2046,2058,2046,2044,2042
2056,2063,2087,2049,2060,2040,2020,2028
2052,2060,2085,2049,2055,2032,2030,2019
2051,2052,2080,2052,2056,2041,2029,2019
2051,2050,2077,2054,2056,2039,2029,2007
2032,2029,2051,2031,2036,2019,2020,2002
2028,2019,2039,2024,2044,2013,2023,2005
2041,2041,2062,2047,2054,2039,2056,2022
2052,2046,2058,2047,2064,2043,2053,2022
2051,2049,2061,2055,2063,2046,2036,2022
2055,2058,2064,2051,2066,2043,2055,2024
2053,2049,2061,2048,2068,2052,2068,2027
2051,2052,2061,2053,2067,2061,2061,2033
2054,2051,2062,2050,2065,2062,2056,2041
2052,2054,2061,2054,2068,2072,2055,2046
2050,2054,2061,2049,2069,2069,2069,2054
2047,2056,2057,2047,2067,2064,2064,2056
2050,2052,2058,2047,2069,2062,2063,2059
2049,2048,2054,2041,2061,2059,2057,2073
2051,2048,2055,2046,2065,2057,2065,2083
2051,2045,2058,2039,2064,2053,2070,2089
2050,2049,2056,2037,2052,2030,2040,2077
2023,2017,2030,2025,2037,2032,2038,2082
2028,2017,2029,2029,2047,2052,2048,2097
2053,2049,2053,2045,2054,2057,2058,2086
2057,2045,2052,2045,2061,2061,2061,2087
2059,2047,2052,2048,2060,2065,2050,2075
2058,2051,2058,2054,2065,2061,2043,2072
2060,2052,2059,2057,2059,2061,2053,2064
2052,2049,2058,2051,2054,2056,2043,2061
2052,2045,2058,2049,2054,2050,2050,2055
2053,2053,2054,2050,2052,2052,2048,2047
2053,2053,2054,2048,2055,2060,2043,2041
2054,2053,2051,2055,2055,2061,2053,2035
2050,2053,2051,2049,2050,2054,2041,2029
2048,2046,2050,2050,2050,2051,2012,2019
2046,2042,2043,2047,2049,2050,2009,2015
2047,2040,2044,2047,2046,2044,1998,1995
2022,2012,2023,2023,2023,2024,1993,1987
2024,2014,2016,2025,2032,2020,2019,2004
2056,2047,2050,2055,2060,2034,2039,2014
2054,2054,2056,2060,2063,2051,2045,2021
2051,2055,2060,2066,2072,2061,2058,2023
2054,2057,2061,2073,2078,2062,2041,2027
2051,2052,2062,2068,2071,2061,2051,2031
2053,2055,2064,2071,2076,2059,2035,2034
2053,2052,2059,2064,2070,2060,2047,2037
2051,2042,2057,2066,2069,2056,2048,2047
2050,2051,2056,2065,2072,2056,2046,2057
2055,2046,2061,2064,2066,2052,2048,2066
2050,2045,2057,2065,2068,2054,2032,2077
2047,2042,2058,2060,2059,2054,2025,2084
2051,2045,2055,2064,2059,2052,2044,2090
2043,2038,2046,2059,2062,2050,2045,2085
2031,2015,2021,2043,2036,2024,2019,2070
2020,2002,2018,2039,2035,2026,2006,2080
2040,2019,2035,2056,2053,2041,2045,2095
2052,2028,2032,2064,2054,2040,2044,2088
2050,2028,2035,2076,2052,2047,2035,2087
2051,2031,2032,2073,2049,2045,2046,2076
2047,2026,2020,2076,2049,2045,2042,2069
2039,2017,2010,2086,2054,2046,2054,2054
2043,2022,2014,2089,2056,2049,2049,2049
2040,2030,2008,2089,2060,2056,2041,2040
2049,2033,2012,2090,2059,2058,2044,2034
2038,2040,2013,2089,2063,2055,2031,2036
2045,2038,2007,2087,2051,2037,2028,2033
2044,2034,2003,2072,2044,2032,2031,2023
2033,2032,2001,2053,2034,2029,2036,2019
2038,2032,1999,2035,2026,2032,2048,2018
2038,2028,1995,2004,1997,2012,2027,1991
2010,1994,1972,1978,1998,2015,2010,1986
2011,2003,1984,1972,2010,2038,2039,2012
2039,2040,2033,1995,2034,2049,2047,2018
2051,2048,2049,1995,2035,2049,2035,2025
2047,2054,2059,2000,2038,2051,2047,2027
2053,2071,2083,2010,2043,2055,2052,2037
2057,2078,2074,2010,2054,2062,2058,2043
2064,2072,2062,2013,2054,2056,2065,2051
2063,2071,2061,2019,2047,2057,2057,2049
2062,2062,2064,2025,2055,2055,2057,2058
2051,2058,2067,2035,2061,2058,2035,2068
2051,2057,2074,2047,2074,2056,2039,2068
2049,2057,2076,2055,2075,2053,2036,2080
2059,2055,2080,2049,2066,2048,2036,2084
2050,2055,2084,2052,2053,2043,2046,2088
2048,2054,2092,2046,2044,2041,2027,2088
2029,2029,2067,2028,2021,2019,2007,2070
2019,2022,2051,2027,2026,2018,2014,2076
2030,2044,2070,2045,2049,2042,2039,2093
2050,2059,2075,2054,2056,2050,2025,2094
2051,2066,2073,2056,2049,2044,2016,2086
2048,2061,2068,2055,2043,2045,2040,2080
2050,2061,2060,2050,2044,2048,2042,2079
2050,2054,2065,2050,2050,2044,2036,2065
2045,2057,2066,2047,2064,2042,2039,2050
2042,2051,2067,2047,2059,2041,2033,2042
2041,2048,2061,2050,2049,2035,2034,2039
2047,2047,2064,2058,2043,2037,2050,2036
2050,2051,2055,2065,2047,2039,2037,2038
2048,2057,2051,2074,2049,2041,2042,2030
2046,2047,2041,2072,2050,2041,2034,2023
2043,2041,2039,2076,2049,2041,2006,2021
2043,2045,2039,2075,2057,2037,2008,2001
2026,2016,2020,2061,2044,2023,2008,2001
2024,2010,2007,2060,2038,2031,2011,2017
2049,2042,2029,2088,2066,2049,2044,2026
2048,2040,2035,2084,2056,2047,2020,2025
2050,2039,2026,2080,2066,2046,2040,2025
2049,2045,2026,2074,2060,2051,2026,2029
2045,2046,2024,2068,2072,2053,2053,2042
2040,2042,2020,2068,2102,2047,2046,2030
2044,2033,2018,2060,2118,2041,2044,2037
2044,2032,2006,2044,2124,2053,2048,2040
2043,2034,2010,2040,2132,2048,2049,2049
2049,2042,2018,2041,2135,2051,2043,2058
2048,2046,2039,2039,2124,2048,2058,2064
2047,2046,2049,2032,2109,2049,2050,2069
2045,2050,2049,2029,2084,2041,2044,2077
2040,2041,2043,2024,2059,2042,2052,2075
2032,2028,2022,2006,2016,2020,2009,2059
2011,1995,2006,1995,1910,2001,2008,2068
2008,1987,2009,2008,1884,2019,2026,2091
2042,2027,2038,2031,1929,2031,2021,2091
2042,2035,2055,2038,1969,2039,2033,2095
2052,2044,2068,2040,1974,2033,2031,2081
2058,2049,2081,2043,1987,2035,2024,2080
2058,2056,2085,2050,2013,2033,2031,2076
2059,2064,2084,2049,2018,2032,2033,2065
2061,2069,2082,2061,2041,2040,2033,2056
2058,2074,2084,2069,2054,2046,2031,2053
2059,2068,2077,2074,2059,2047,2040,2050
2059,2062,2070,2068,2069,2050,2039,2044
2064,2056,2065,2072,2078,2052,2036,2037
2055,2047,2051,2069,2074,2050,2056,2027
2056,2045,2044,2059,2071,2049,2050,2029
2057,2046,2040,2048,2060,2046,2032,2022
2054,2022,2017,2032,2046,2025,1999,2006
2046,2008,2015,2029,2047,2030,2003,1999
2049,2024,2035,2053,2065,2059,2033,2024
2064,2042,2048,2058,2069,2064,2047,2027
2065,2049,2049,2058,2071,2061,2053,2032
2060,2053,2052,2060,2067,2052,2040,2027
2057,2055,2054,2052,2054,2042,2042,2031
2057,2054,2048,2051,2051,2035,2056,2035
2065,2052,2056,2054,2049,2039,2056,2041
2065,2056,2070,2059,2051,2045,2034,2051
2066,2066,2080,2060,2061,2042,2049,2055
2065,2060,2072,2058,2049,2035,2031,2071
2064,2060,2067,2060,2045,2038,2062,2080
2064,2058,2067,2059,2049,2042,2060,2085
2066,2062,2073,2060,2058,2044,2066,2095
2054,2059,2073,2065,2057,2047,2060,2095
2059,2056,2073,2065,2055,2039,2048,2082
2030,2018,2043,2038,2026,2018,2042,2072
2021,2019,2029,2037,2033,2026,2038,2086
2043,2043,2059,2064,2052,2049,2069,2090
2053,2052,2064,2068,2054,2054,2056,2086
2053,2059,2073,2072,2057,2050,2062,2083
2054,2055,2077,2070,2059,2051,2060,2081
2057,2060,2078,2070,2056,2050,2073,2071
2057,2062,2076,2064,2048,2051,2074,2057
2057,2060,2077,2067,2039,2047,2066,2053
2058,2060,2070,2064,2038,2040,2063,2048
2060,2059,2071,2068,2032,2041,2062,2049
2060,2063,2071,2075,2020,2041,2050,2032
2061,2061,2074,2063,2020,2036,2055,2034
2055,2058,2065,2060,2018,2033,2044,2033
2055,2062,2065,2062,2021,2024,2011,2026
2053,2066,2067,2065,2014,2023,2033,2028
2052,2062,2061,2059,2014,2008,2023,2005
2029,2025,2026,2030,2023,2001,2020,2000
2022,2025,2020,2032,2041,2033,2051,2017
2055,2056,2046,2055,2081,2051,2063,2026
2058,2051,2049,2053,2075,2047,2057,2032
2061,2051,2039,2045,2084,2053,2047,2024
2051,2051,2032,2052,2087,2054,2057,2026
2052,2055,2045,2058,2085,2060,2052,2028
2060,2058,2050,2056,2076,2066,2059,2032
2057,2061,2046,2059,2077,2064,2063,2040
2056,2057,2040,2053,2064,2060,2060,2042
2049,2055,2051,2054,2052,2056,2041,2054
2056,2060,2051,2046,2032,2049,2062,2066
2050,2053,2045,2051,2031,2044,2055,2068
2052,2052,2042,2051,2045,2048,2053,2075
2060,2052,2039,2051,2070,2043,2055,2083
2051,2051,2036,2061,2084,2049,2051,2087
2044,2029,2023,2050,2071,2030,2017,2064
2019,2013,2027,2062,2076,2028,2038,2065
2026,2027,2048,2074,2084,2056,2055,2083
2051,2042,2057,2063,2060,2052,2065,2079
2050,2046,2059,2050,2021,2049,2042,2066
2048,2044,2053,2053,1994,2047,2062,2069
2046,2041,2051,2049,2021,2048,2043,2062
2047,2047,2046,2056,2042,2048,2046,2056
2054,2050,2042,2062,2054,2055,2059,2045
2057,2048,2044,2075,2050,2057,2049,2036
2055,2045,2039,2072,2047,2056,2046,2029
2061,2045,2041,2070,2045,2052,2042,2029
2055,2046,2040,2066,2028,2045,2052,2025
2054,2044,2035,2056,2021,2046,2043,2020
2057,2047,2027,2045,2020,2045,2050,2019
2054,2047,2031,2045,2038,2050,2054,2017
2056,2051,2029,2025,2031,2030,2022,1996
2029,2014,1995,2005,2031,2032,2027,1991
2034,2017,1991,2004,2047,2051,2036,2015
2056,2051,2017,2027,2067,2067,2047,2014
2060,2046,2030,2035,2076,2072,2058,2026
2059,2049,2037,2039,2075,2062,2056,2021
2056,2050,2037,2032,2059,2060,2066,2026
2053,2047,2048,2028,2042,2059,2063,2025
2056,2054,2047,2024,2031,2058,2072,2040
2062,2055,2041,2024,2027,2060,2067,2047
2058,2053,2033,2024,2032,2055,2061,2053
2058,2053,2027,2018,2034,2054,2057,2053
2048,2046,2022,2028,2036,2048,2045,2061
2049,2038,2020,2032,2042,2053,2042,2070
2050,2044,2019,2037,2042,2051,2041,2069
2046,2042,2017,2030,2043,2051,2057,2079
2045,2040,2019,2029,2049,2048,2052,2080
2032,2016,2001,2019,2042,2023,2019,2074
2020,2019,1999,2018,2050,2020,2036,2086
2048,2049,2021,2039,2078,2042,2047,2092
2060,2047,2022,2042,2077,2047,2061,2089
2064,2058,2034,2049,2078,2053,2021,2083
2061,2060,2048,2054,2070,2053,2042,2083
2060,2063,2062,2051,2071,2050,2054,2071
2062,2066,2070,2055,2057,2051,2039,2060
2058,2064,2066,2057,2060,2049,2051,2054
2067,2064,2051,2053,2060,2046,2056,2047
2063,2056,2054,2043,2057,2051,2037,2028
2057,2053,2053,2044,2051,2047,2049,2029
2051,2051,2056,2046,2053,2042,2028,2027
2053,2054,2052,2040,2042,2042,2052,2019
2043,2060,2049,2040,2037,2043,2044,2026
2053,2062,2050,2048,2047,2050,2052,2025
2058,2061,2044,2032,2022,2020,2026,2003
2029,2028,2032,2028,2018,2023,2007,2000
2028,2025,2036,2034,2025,2034,2041,2026
2054,2054,2053,2052,2039,2038,2040,2020
2053,2050,2053,2058,2047,2044,2048,2028
2058,2061,2063,2074,2065,2061,2061,2035
2061,2058,2077,2082,2071,2068,2061,2038
2055,2052,2083,2092,2081,2075,2075,2040
2051,2045,2081,2094,2080,2080,2071,2042
2056,2050,2073,2091,2084,2078,2074,2050
2052,2050,2066,2088,2081,2076,2087,2056
2051,2046,2051,2088,2075,2072,2057,2061
2053,2046,2040,2085,2068,2066,2047,2062
2049,2042,2032,2074,2070,2059,2058,2072
2052,2040,2038,2073,2060,2064,2066,2076
2052,2039,2038,2078,2056,2064,2064,2081
2050,2046,2038,2070,2044,2049,2030,2064
2024,2005,1993,2031,2014,2041,2026,2067
2021,2001,1973,2014,2019,2048,2024,2080
2043,2026,1983,2004,2025,2061,2019,2080
2043,2024,1986,1998,2033,2068,2044,2075
2049,2028,1985,1996,2034,2073,2053,2069
2043,2032,1996,1993,2038,2067,2043,2060
2048,2037,2018,2004,2025,2061,2027,2054
2050,2046,2042,2016,2028,2035,2068,2059
2062,2065,2073,2040,2044,2024,2066,2057
2068,2071,2091,2053,2050,2032,2054,2050
2064,2066,2081,2040,2047,2038,2034,2041
2056,2055,2064,2034,2044,2041,2025,2035
2056,2047,2051,2034,2038,2037,2024,2025
2055,2044,2052,2042,2037,2036,2029,2015
2058,2056,2064,2048,2031,2025,2031,2008
2053,2054,2063,2040,1999,2006,1994,1990
2028,2021,2036,2020,1967,1994,2006,1986
2025,2017,2036,2020,1970,1995,2029,2008
2049,2053,2057,2033,1996,2019,2040,2009
2048,2054,2056,2040,2017,2038,2052,2021
2055,2065,2063,2058,2061,2062,2059,2024
2066,2075,2071,2076,2088,2070,2067,2036
2069,2073,2072,2082,2108,2081,2038,2039
2062,2071,2067,2074,2098,2083,2052,2036
2058,2068,2069,2065,2077,2069,2057,2044
2062,2066,2061,2063,2069,2065,2059,2052
2062,2070,2057,2062,2069,2064,2060,2060
2062,2070,2057,2065,2067,2060,2055,2068
2059,2063,2051,2057,2062,2053,2052,2072
2057,2054,2042,2054,2052,2050,2047,2080
2058,2042,2039,2056,2060,2047,2049,2087
2053,2043,2040,2053,2061,2050,2039,2076
2029,2018,2020,2036,2039,2025,2024,2074
2024,2015,2024,2041,2044,2027,2037,2098
2053,2047,2054,2054,2065,2045,2052,2098
2056,2056,2052,2056,2062,2044,2053,2088
2054,2054,2051,2061,2061,2047,2069,2085
2053,2054,2060,2069,2062,2048,2067,2069
2047,2048,2058,2073,2060,2046,2040,2065
2048,2046,2055,2069,2058,2050,2056,2059
2054,2040,2055,2072,2057,2056,2041,2050
2046,2043,2049,2067,2052,2056,2051,2040
2052,2036,2048,2069,2055,2057,2058,2042
2050,2044,2053,2065,2050,2062,2060,2032
2055,2046,2049,2056,2043,2068,2066,2030
2048,2042,2042,2050,2046,2074,2053,2020
2050,2041,2034,2056,2045,2087,2059,2019
2048,2040,2028,2052,2055,2095,2048,2007
2028,2009,1999,2035,2033,2075,2023,1990
2023,2017,2000,2029,2027,2071,2010,2004
2045,2045,2017,2053,2060,2072,2060,2012
2054,2050,2015,2044,2053,2019,2057,2010
2047,2037,2006,2039,2041,2009,2042,2015
2044,2034,2007,2031,2046,2028,2054,2022
2045,2029,2004,2030,2052,2035,2050,2022
2037,2033,2003,2040,2060,2052,2061,2033
2045,2040,2004,2044,2062,2066,2052,2044
2047,2040,2014,2060,2077,2073,2076,2047
2048,2041,2010,2058,2072,2072,2066,2062
2050,2039,2010,2056,2068,2054,2063,2070
2042,2036,2019,2057,2065,2048,2054,2069
2037,2038,2029,2056,2058,2049,2046,2079
2042,2045,2033,2061,2056,2048,2061,2078
2045,2044,2037,2055,2042,2051,2061,2070
2018,2020,2011,2042,2022,2035,2038,2051
2003,1998,2005,2048,2022,2030,2023,2067
2018,2020,2035,2070,2042,2050,2047,2081
2038,2036,2069,2093,2046,2053,2060,2077
2037,2042,2090,2096,2046,2047,2064,2076
2031,2033,2079,2084,2037,2045,2070,2073
2035,2039,2075,2078,2038,2042,2053,2069
2039,2043,2083,2083,2033,2043,2064,2062
2033,2045,2094,2092,2037,2050,2064,2045
2036,2046,2097,2101,2045,2055,2055,2049
2041,2054,2099,2097,2048,2054,2059,2048
2042,2063,2108,2102,2052,2056,2075,2045
2047,2071,2104,2100,2051,2050,2070,2037
2048,2066,2081,2082,2038,2046,2044,2033
2043,2058,2060,2068,2033,2043,2059,2028
2044,2055,2047,2048,2028,2036,2048,2024
2036,2042,2013,2001,2000,2011,2040,2006
2018,2025,2003,1989,1998,2014,2038,2010
2024,2036,2029,2009,2028,2039,2059,2028
2056,2068,2060,2022,2041,2049,2064,2028
2053,2073,2061,2022,2046,2052,2060,2026
2054,2074,2053,2016,2038,2049,2064,2026
2048,2070,2048,2020,2039,2046,2060,2032
2044,2067,2048,2028,2042,2050,2063,2041
2047,2060,2047,2031,2039,2051,2065,2051
2051,2057,2055,2037,2047,2058,2071,2057
2054,2061,2047,2037,2064,2061,2065,2061
2054,2061,2050,2039,2083,2068,2070,2069
2052,2060,2051,2048,2081,2062,2068,2072
2047,2056,2049,2053,2069,2059,2074,2080
2046,2046,2052,2050,2070,2055,2073,2082
2038,2044,2046,2052,2106,2058,2065,2081
2038,2045,2050,2053,2108,2043,2043,2076
2011,2014,2019,2030,2093,2036,2049,2082
2016,2023,2017,2033,2095,2048,2052,2094
2048,2047,2046,2060,2124,2068,2062,2106
2050,2048,2043,2060,2121,2056,2060,2094
2043,2046,2038,2057,2097,2050,2056,2088
2041,2049,2037,2058,2072,2047,2055,2084
2043,2049,2039,2056,2052,2045,2061,2075
2048,2059,2038,2051,2026,2045,2050,2065
2041,2049,2026,2033,1937,2043,2050,2053
2037,2041,2024,2035,1903,2049,2057,2054
2046,2055,2035,2048,1946,2054,2066,2052
2051,2051,2031,2046,1976,2050,2065,2041
2045,2048,2032,2040,1999,2050,2056,2039
2047,2038,2029,2038,2016,2048,2054,2031
2041,2035,2033,2039,2017,2047,2059,2028
2043,2041,2035,2040,2008,2046,2052,2021
2037,2033,2026,2017,1995,2021,2018,1999
2019,2013,2021,2016,1991,2017,2023,1998
2028,2022,2029,2039,2029,2045,2050,2024
2060,2055,2046,2048,2020,2049,2068,2021
2053,2054,2048,2052,2015,2044,2058,2023
2048,2064,2054,2050,2013,2033,2044,2021
2052,2053,2057,2055,2018,2036,2038,2021
2055,2053,2060,2063,2045,2048,2066,2026
2051,2053,2063,2073,2079,2057,2064,2031
2046,2054,2065,2070,2081,2064,2061,2041
2048,2054,2062,2073,2086,2066,2058,2044
2050,2050,2059,2057,2059,2069,2073,2056
2049,2050,2044,2047,2018,2057,2076,2074
2048,2048,2036,2039,1997,2040,2075,2075
2041,2035,2031,2038,1998,2033,2036,2076
2041,2033,2035,2038,1998,2032,2043,2080
2046,2034,2030,2028,1999,2011,2019,2062
2006,1997,2002,2012,1985,1998,2033,2053
1998,1989,2004,2016,2001,2026,2058,2079
2036,2041,2046,2051,2043,2045,2063,2081
2046,2047,2056,2076,2068,2051,2068,2080
2049,2059,2054,2075,2084,2063,2072,2078
2045,2045,2046,2055,2079,2077,2042,2065
2045,2045,2039,2039,2058,2067,2064,2054
2039,2044,2038,2029,2054,2059,2067,2049
2045,2046,2042,2034,2071,2061,2062,2047
2047,2046,2045,2050,2091,2061,2045,2042
2046,2047,2057,2047,2093,2061,2038,2032
2043,2049,2066,2052,2077,2062,2030,2027
2047,2056,2078,2059,2077,2056,2065,2026
2043,2048,2075,2054,2058,2057,2051,2020
2041,2042,2064,2055,2054,2062,2062,2017
2043,2038,2063,2060,2043,2046,2040,1998
2014,2006,2038,2041,2025,2033,2035,1996
2018,2003,2042,2042,2013,2037,2058,2006
2037,2044,2077,2061,2019,2049,2058,2014
2043,2049,2081,2053,1988,2042,2031,2026
2043,2055,2086,2054,1991,2048,2067,2022
2045,2059,2079,2054,2017,2047,2056,2022
2050,2053,2074,2057,2036,2056,2064,2030
2048,2051,2068,2060,2052,2055,2075,2040
2048,2053,2070,2065,2080,2055,2075,2042
2048,2045,2064,2066,2095,2046,2054,2054
2046,2048,2062,2060,2092,2046,2047,2065
2044,2050,2063,2067,2082,2041,2044,2069
2052,2049,2053,2053,2073,2043,2039,2073
2042,2050,2046,2037,2060,2043,2049,2085
2049,2056,2041,2036,2063,2046,2060,2094
2049,2050,2041,2039,2066,2035,2036,2078
2026,2022,1998,2010,2047,2014,2022,2076
2022,2018,1990,2013,2044,2025,2042,2097
2049,2048,2010,2036,2060,2031,2041,2101
2054,2052,2015,2050,2050,2029,2029,2093
2059,2048,2014,2049,2050,2042,2036,2084
2055,2053,2008,2049,2048,2053,2049,2075
2047,2042,2011,2058,2063,2060,2045,2065
2047,2039,2005,2058,2062,2064,2039,2051
2046,2036,1999,2054,2063,2067,2064,2050
2044,2037,2003,2046,2061,2072,2063,2047
2045,2031,2008,2029,2051,2079,2061,2037
2047,2040,2015,2029,2053,2073,2063,2037
2051,2045,2029,2033,2054,2070,2066,2030
2048,2047,2036,2033,2062,2062,2064,2024
2052,2035,2031,2040,2067,2061,2059,2023
2050,2043,2023,2038,2064,2062,2041,2017
2022,2004,2003,2012,2044,2034,2026,1992
2019,1996,2015,2023,2037,2033,2031,2006
2031,2036,2060,2047,2060,2054,2055,2019
2042,2042,2075,2056,2061,2050,2049,2015
2045,2047,2072,2050,2067,2055,2061,2021
2048,2049,2068,2056,2076,2064,2055,2028
2048,2059,2081,2080,2077,2061,2068,2028
2048,2063,2101,2094,2085,2059,2065,2035
2047,2067,2109,2098,2078,2053,2064,2035
2044,2054,2086,2085,2070,2052,2054,2038
2038,2048,2072,2078,2066,2037,2044,2046
2042,2052,2073,2073,2064,2041,2047,2058
2047,2059,2080,2069,2060,2035,2055,2070
2043,2056,2074,2064,2056,2036,2047,2075
2037,2048,2070,2050,2054,2032,2054,2077
2037,2042,2064,2046,2044,2032,2037,2082
2029,2028,2038,2015,2028,2010,1998,2071
2002,2012,2029,2010,2029,2010,2007,2076
2022,2032,2056,2017,2042,2033,2053,2095
2052,2053,2072,2018,2050,2051,2066,2093
2055,2069,2076,2018,2048,2057,2069,2092
2063,2065,2068,2016,2056,2057,2065,2081
2060,2061,2061,2015,2047,2057,2060,2073
2056,2055,2047,2009,2042,2058,2043,2063
2056,2054,2041,2018,2046,2066,2055,2055
2057,2060,2051,2031,2045,2064,2065,2044
2052,2048,2047,2030,2042,2067,2064,2029
2042,2050,2044,2033,2047,2060,2060,2029
2050,2047,2052,2034,2039,2059,2058,2034
2053,2050,2055,2035,2038,2054,2061,2031
2050,2043,2040,2034,2042,2053,2052,2024
2054,2049,2049,2036,2053,2055,2064,2014
2048,2043,2036,2024,2034,2036,2027,1999
2026,2021,2023,2019,2029,2037,2011,1994
2029,2032,2041,2037,2056,2057,2050,2013
2050,2053,2046,2045,2053,2060,2062,2019
2052,2047,2048,2046,2058,2062,2075,2021
2049,2047,2052,2046,2066,2068,2060,2023
2047,2052,2051,2049,2065,2063,2063,2032
2047,2046,2047,2046,2063,2056,2056,2033
2034,2039,2044,2043,2061,2057,2061,2038
2046,2044,2055,2048,2072,2059,2067,2033
2049,2044,2057,2053,2073,2064,2073,2051
2048,2054,2065,2053,2066,2070,2065,2064
2044,2054,2064,2056,2061,2056,2066,2064
2041,2048,2069,2058,2056,2055,2057,2080
2041,2044,2069,2060,2046,2055,2050,2083
2036,2041,2072,2062,2049,2050,2049,2079
2026,2017,2044,2039,2026,2032,2021,2067
2019,2009,2038,2035,2021,2028,2023,2067
2032,2038,2055,2058,2041,2050,2059,2085
2046,2053,2053,2057,2046,2054,2052,2085
2045,2047,2046,2052,2044,2050,2046,2075
2048,2049,2039,2050,2049,2049,2049,2071
2046,2050,2035,2051,2047,2053,2056,2067
2044,2050,2030,2049,2046,2046,2058,2052
2041,2045,2025,2052,2061,2055,2056,2047
2047,2051,2026,2047,2073,2055,2053,2033
2043,2048,2018,2039,2074,2054,2052,2034
2048,2049,2017,2030,2060,2052,2055,2028
2052,2056,2016,2024,2056,2051,2048,2020
2049,2051,2014,2014,2049,2051,2051,2024
2051,2056,2018,2017,2047,2053,2040,2016
2061,2058,2034,2032,2044,2053,2058,2016
2043,2041,2032,2014,2018,2029,2016,1995
2026,2024,2030,2007,2017,2027,2019,1993
2031,2043,2052,2028,2037,2044,2047,2011
2045,2056,2066,2037,2054,2050,2049,2006
2055,2062,2069,2041,2062,2050,2053,2011
2051,2063,2077,2046,2066,2053,2045,2016
2054,2066,2091,2054,2067,2065,2063,2026
2058,2066,2092,2048,2063,2074,2062,2030
2049,2064,2082,2036,2047,2074,2054,2037
2050,2060,2079,2031,2044,2077,2058,2035
2049,2060,2074,2035,2056,2080,2048,2047
2048,2062,2076,2044,2060,2059,2041,2061
2056,2057,2072,2056,2070,2035,2066,2070
2052,2055,2058,2049,2071,2044,2068,2080
2056,2049,2054,2045,2070,2050,2056,2076
2047,2036,2035,2043,2059,2049,2064,2082
2036,2027,2028,2033,2041,2037,2042,2064
2015,2011,2024,2035,2052,2039,2040,2064
2025,2035,2049,2052,2060,2061,2069,2084
2050,2049,2051,2056,2049,2059,2066,2087
2053,2050,2041,2047,2048,2056,2059,2076
2054,2048,2035,2051,2055,2056,2033,2068
2050,2045,2040,2051,2054,2054,2037,2064
2057,2046,2031,2044,2054,2045,2039,2056
2051,2044,2034,2046,2061,2033,2024,2044
2056,2043,2035,2047,2069,2048,2031,2040
2057,2045,2041,2046,2072,2056,2055,2036
2053,2048,2042,2047,2073,2064,2042,2036
2058,2046,2034,2052,2063,2077,2036,2018
2046,2036,2030,2049,2060,2071,2034,2012
2042,2031,2022,2051,2051,2060,2042,2004
2036,2025,2026,2052,2045,2062,2029,2005
2033,2024,2017,2035,2013,2036,2002,1981
2007,1999,2005,2034,2003,2028,1996,1988
2018,2012,2021,2048,2019,2050,2022,2015
2049,2048,2034,2049,2017,2042,2045,2016
2053,2042,2034,2038,2014,2042,2031,2021
2054,2048,2033,2050,2022,2036,2036,2022
2055,2049,2031,2055,2034,2038,2039,2025
2047,2048,2033,2054,2044,2037,2022,2032
2048,2042,2035,2051,2054,2041,2021,2028
2043,2037,2054,2057,2101,2048,2042,2033
2040,2050,2082,2058,2112,2046,2054,2044
2042,2060,2105,2066,2123,2044,2035,2048
2045,2065,2114,2067,2120,2047,2029,2062
2052,2063,2121,2073,2132,2054,2049,2072
2056,2070,2124,2073,2130,2051,2024,2076
2057,2066,2107,2074,2121,2059,2043,2085
2050,2058,2099,2075,2110,2045,2018,2074
2032,2024,2056,2053,2078,2032,2017,2074
2026,2008,2043,2056,2047,2034,2035,2095
2045,2038,2061,2062,1948,2041,2044,2092
2041,2037,2060,2053,1929,2041,2040,2083
2049,2039,2050,2045,1974,2053,2050,2085
2048,2042,2040,2046,2001,2055,2037,2075
2052,2045,2041,2052,2019,2054,2059,2071
2050,2043,2037,2046,2019,2050,2050,2069
2060,2049,2043,2050,2032,2056,2047,2056
2062,2054,2033,2050,2032,2053,2042,2055
2060,2048,2021,2042,2016,2057,2045,2047
2051,2044,2016,2038,1992,2052,2035,2035
2046,2045,2025,2051,1970,2042,2012,2015
2041,2055,2028,2041,1952,2034,2021,2012
2044,2053,2031,2034,1953,2028,2029,2012
2042,2052,2035,2038,1989,2013,2032,2003
2033,2024,2016,2039,2036,2010,2000,2005
2027,2021,2019,2050,2080,2040,2038,2018
2053,2059,2044,2076,2119,2085,2059,2026
2061,2059,2037,2071,2111,2080,2037,2024
2055,2057,2040,2054,2069,2059,2058,2021
2058,2057,2044,2040,2033,2050,2048,2027
2055,2052,2041,2020,2019,2054,2042,2034
2047,2052,2045,2016,2012,2046,2033,2038
2037,2042,2043,2015,2030,2066,2046,2039
2040,2049,2055,2048,2074,2090,2056,2055
2050,2066,2075,2064,2108,2102,2059,2063
2061,2065,2084,2065,2109,2094,2044,2068
2055,2066,2081,2064,2098,2049,2044,2080
2060,2059,2080,2058,2090,2030,2037,2086
2057,2064,2084,2059,2091,2041,2047,2089
2053,2061,2071,2051,2069,2036,2045,2068
2021,2021,2031,2024,2052,2025,2020,2070
2013,2008,2022,2025,2052,2039,2037,2091
2032,2044,2066,2043,2063,2050,2044,2079
2044,2050,2075,2044,2068,2059,2038,2076
2040,2052,2073,2055,2070,2060,2050,2074
2049,2047,2072,2055,2067,2052,2029,2066
2045,2038,2068,2057,2063,2050,2034,2052
2041,2033,2061,2062,2058,2050,2050,2042
2040,2028,2051,2064,2058,2055,2056,2044
2041,2025,2047,2060,2055,2054,2046,2035
2043,2020,2033,2064,2056,2052,2050,2028
2044,2021,2026,2066,2057,2058,2065,2022
2038,2028,2015,2068,2056,2055,2053,2010
2035,2020,2006,2060,2046,2051,2046,2012
2035,2022,1999,2050,2042,2052,2057,2019
2037,2020,1980,2026,2018,2024,2035,1996
2014,1990,1952,2000,2006,2017,2019,1996
2015,1998,1965,2014,2014,2036,2050,2020
2051,2057,2009,2033,2033,2042,2026,2027
2061,2085,2060,2035,2039,2043,2037,2028
2066,2096,2090,2034,2047,2053,2036,2032
2070,2106,2102,2048,2057,2056,2040,2039
2072,2101,2100,2047,2066,2060,2040,2036
2066,2093,2094,2044,2062,2047,2044,2043
2054,2083,2094,2051,2057,2040,2034,2046
2056,2078,2090,2050,2050,2037,2034,2051
2051,2072,2086,2046,2051,2033,2048,2065
2047,2063,2074,2050,2037,2049,2041,2067
2046,2058,2072,2040,2023,2051,2042,2071
2047,2066,2064,2042,2011,2043,2036,2088
2054,2065,2060,2042,2009,2033,2032,2091
2051,2061,2051,2022,1982,1999,2003,2076
2027,2037,2036,2018,1998,1987,2021,2085
2028,2048,2059,2050,2047,2008,2045,2099
2060,2074,2072,2063,2081,2032,2052,2106
2060,2076,2075,2066,2082,2064,2049,2097
2055,2070,2068,2056,2078,2071,2068,2085
2057,2062,2059,2054,2069,2070,2077,2078
2058,2063,2059,2053,2059,2066,2070,2066
2053,2065,2059,2052,2058,2062,2062,2058
2061,2065,2055,2050,2050,2064,2085,2056
2050,2060,2059,2050,2052,2057,2059,2041
2056,2065,2060,2055,2049,2051,2050,2038
2058,2056,2060,2052,2043,2047,2053,2036
2051,2053,2053,2046,2037,2034,2024,2027
2045,2049,2058,2045,2028,2039,2027,2023
2047,2056,2054,2053,2040,2043,2033,2022
2041,2044,2039,2030,2021,2012,1990,2001
2017,2017,2029,2029,2020,2016,2008,2001
2023,2034,2044,2048,2043,2041,2019,2024
2046,2050,2056,2054,2049,2050,2037,2025
2054,2054,2058,2049,2050,2050,2052,2026
2044,2060,2056,2055,2048,2053,2047,2030
2046,2061,2069,2057,2052,2049,2057,2037
2055,2066,2064,2059,2049,2043,2074,2042
2056,2069,2062,2061,2045,2041,2055,2048
2050,2059,2056,2060,2041,2037,2052,2047
2054,2056,2050,2056,2049,2035,2041,2060
2041,2051,2048,2056,2051,2038,2053,2065
2041,2054,2052,2059,2060,2051,2057,2078
2046,2056,2057,2059,2056,2058,2068,2081
2049,2059,2056,2057,2056,2068,2069,2087
2051,2062,2052,2058,2050,2064,2059,2092
2030,2035,2035,2033,2022,2033,2045,2067
2019,2021,2023,2032,2031,2037,2030,2081
2042,2053,2051,2057,2048,2061,2055,2091
2053,2057,2056,2060,2045,2057,2057,2092
2057,2058,2046,2062,2042,2058,2059,2087
2054,2059,2047,2055,2037,2055,2054,2079
2049,2058,2041,2052,2036,2048,2038,2068
2045,2049,2036,2056,2032,2049,2036,2061
2044,2049,2028,2057,2037,2047,2053,2049
2050,2043,2029,2055,2041,2045,2054,2044
2049,2049,2033,2047,2043,2050,2037,2046
2053,2052,2038,2038,2047,2053,2041,2044
2053,2049,2029,2045,2052,2054,2042,2032
2053,2052,2033,2047,2040,2044,2020,2028
2053,2045,2038,2057,2046,2041,2038,2023
2051,2053,2041,2061,2050,2051,2033,2017
2044,2043,2035,2046,2028,2037,2021,1990
2015,2006,2005,2029,2016,2026,2016,1987
2014,2003,2005,2040,2033,2043,2029,2011
2040,2040,2037,2056,2040,2047,2045,2019
2036,2046,2048,2059,2040,2051,2067,2022
2039,2051,2054,2068,2050,2044,2046,2030
2045,2058,2063,2065,2053,2037,2049,2040
2047,2055,2059,2064,2053,2041,2055,2042
2045,2051,2046,2064,2059,2049,2040,2042
2044,2052,2041,2066,2061,2048,2039,2050
2050,2055,2043,2068,2068,2051,2047,2060
2054,2062,2054,2074,2066,2057,2056,2076
2054,2060,2049,2072,2056,2052,2075,2082
2063,2053,2047,2062,2059,2051,2069,2087
2058,2056,2049,2061,2055,2050,2058,2087
2052,2054,2050,2054,2023,2038,2047,2088
2045,2052,2044,2037,1987,2031,2048,2086
2029,2030,2022,2008,1961,2010,2036,2074
2020,2016,2015,2005,1971,2015,2031,2082
2037,2041,2044,2031,1998,2047,2056,2082
2043,2047,2053,2021,1998,2084,2040,2077
2040,2038,2047,2018,2012,2117,2036,2074
2046,2047,2054,2035,2046,2136,2032,2074
2050,2051,2060,2042,2046,2132,2064,2061
2047,2059,2062,2041,2026,2091,2035,2054
2049,2055,2066,2057,2039,2006,2031,2061
2057,2057,2067,2054,2037,1972,2040,2054
2058,2056,2061,2049,2002,1992,2069,2044
2049,2052,2060,2041,1976,1998,2042,2040
2051,2052,2056,2036,1968,2003,2032,2036
2048,2045,2040,2023,1960,1997,2021,2022
2033,2046,2042,2033,1993,2017,2044,2021
2040,2055,2057,2048,2036,2038,2067,2028
2046,2052,2048,2049,2056,2034,2039,2005
2026,2021,2033,2049,2075,2049,2019,2008
2028,2025,2042,2061,2098,2073,2039,2015
2051,2058,2051,2066,2088,2070,2057,2015
2057,2058,2051,2055,2079,2063,2050,2018
2051,2050,2054,2055,2071,2057,2049,2023
2047,2052,2048,2050,2049,2065,2052,2029
2043,2054,2048,2041,2014,2061,2023,2029
2046,2053,2043,2039,2001,2050,2043,2037
2048,2048,2044,2042,2013,2059,2051,2045
2055,2050,2051,2045,2052,2059,2048,2046
2055,2058,2056,2061,2100,2031,2055,2072
2061,2071,2068,2092,2127,2032,2057,2088
2066,2065,2060,2085,2121,2041,2064,2085
2057,2060,2061,2079,2108,2047,2065,2091
2049,2057,2059,2074,2104,2051,2057,2087
2046,2052,2046,2058,2078,2027,2026,2072
2021,2022,2023,2044,2069,2015,2024,2071
2015,2025,2039,2054,2072,2033,2044,2086
2041,2052,2047,2052,2038,2032,2048,2081
2040,2058,2056,2047,2025,2028,2038,2081
2041,2058,2052,2051,2027,2037,2058,2079
2049,2055,2051,2053,2014,2045,2042,2073
2039,2056,2043,2037,1963,2056,2045,2056
2037,2045,2040,2029,1910,2058,2036,2037
2039,2047,2042,2014,1882,2054,2034,2023
2033,2047,2036,2006,1876,2041,2021,2024
2031,2047,2042,2011,1881,2002,2024,2030
2037,2048,2045,2034,1941,1964,2043,2041
2047,2058,2048,2060,2027,1997,2057,2033
2050,2060,2050,2070,2092,2054,2065,2040
2050,2061,2050,2070,2117,2098,2072,2031
2048,2047,2035,2042,2108,2082,2043,2001
2019,2016,2018,2034,2098,2060,2030,1994
2021,2014,2021,2041,2091,2078,2041,2014
2044,2038,2033,2040,2071,2062,2024,2010
2045,2049,2039,2037,2046,2061,2058,2014
2045,2053,2045,2044,2031,2069,2063,2016
2045,2061,2050,2043,2043,2060,2048,2029
2048,2065,2052,2057,2092,2022,2047,2047
2058,2069,2059,2059,2105,2025,2044,2045
2066,2069,2053,2064,2100,2033,2044,2058
2059,2067,2054,2059,2111,2050,2056,2062
2061,2060,2046,2059,2122,2076,2063,2063
2057,2064,2047,2057,2120,2077,2050,2064
2051,2060,2039,2055,2105,2072,2067,2070
2049,2052,2041,2052,2085,2070,2051,2072
2039,2049,2040,2057,2065,2060,2047,2072
2028,2043,2018,2032,1972,2010,1990,2056
2005,2015,2008,2018,1924,2000,2004,2064
2010,2030,2031,2046,1987,2036,2013,2084
2039,2053,2043,2055,2021,2051,2026,2088
2040,2053,2044,2064,2057,2057,2038,2082
2047,2055,2051,2065,2054,2048,2050,2077
2053,2062,2052,2067,2057,2045,2018,2070
2044,2058,2045,2056,2039,2033,2022,2058
2052,2054,2044,2052,2029,2030,2039,2045
2047,2051,2037,2041,2016,2029,2045,2043
2046,2051,2036,2039,2008,2036,2034,2033
2048,2046,2040,2048,2021,2034,2047,2033
2052,2049,2045,2046,2013,2024,2031,2030
2045,2047,2041,2037,1997,2013,2022,2021
2040,2049,2042,2040,1990,2017,2039,2016
2054,2046,2036,2040,1979,2010,2036,2010
2047,2030,2019,2012,1946,1988,1995,1989
2020,2011,2015,2007,1962,2003,2008,1994
2035,2037,2046,2049,2033,2034,2038,2022
2057,2068,2058,2061,2047,2049,2045,2024
2062,2063,2052,2056,2031,2047,2037,2020
2056,2053,2047,2048,2030,2041,2039,2013
2045,2053,2046,2053,2025,2045,2042,2017
2054,2057,2047,2056,2019,2050,2050,2029
2063,2058,2053,2052,2032,2057,2056,2039
2062,2060,2051,2059,2044,2066,2069,2043
2061,2059,2052,2054,2066,2068,2074,2050
2058,2059,2047,2063,2109,2068,2067,2056
2056,2052,2045,2064,2127,2071,2064,2070
2055,2053,2045,2066,2115,2071,2060,2068
2052,2054,2045,2068,2100,2074,2057,2064
2046,2052,2041,2064,2094,2073,2051,2068
2031,2034,2030,2048,2072,2057,2026,2052
2002,2016,2013,2041,2067,2068,2026,2060
2012,2025,2024,2051,2086,2091,2042,2074
2028,2042,2030,2044,2075,2071,2053,2072
2034,2038,2028,2043,2050,2068,2042,2070
2035,2041,2029,2040,2021,2062,2032,2070
2041,2043,2036,2047,2026,2030,2038,2072
2047,2048,2033,2051,2026,2006,2024,2059
2046,2048,2031,2051,2030,2018,2039,2046
2044,2049,2040,2056,2042,2025,2049,2030
2043,2047,2035,2053,2048,2026,2040,2020
2029,2037,2031,2055,2049,2024,2039,2019
2024,2040,2028,2050,2052,2024,2024,2012
2030,2039,2026,2048,2050,2029,2034,2011
2037,2045,2024,2045,2050,2038,2034,2006
2042,2046,2027,2046,2046,2039,2039,2000
2045,2044,2019,2030,2035,2018,2016,1987
2029,2026,2011,2021,2027,2019,2012,2007
2040,2034,2020,2040,2046,2053,2023,2052
2077,2070,2035,2051,2056,2061,2025,2067
2088,2081,2038,2055,2057,2068,2055,2071
2085,2074,2040,2054,2041,2060,2045,2068
2084,2067,2039,2057,2063,2058,2039,2057
2074,2067,2037,2059,2095,2053,2023,2052
2080,2062,2041,2063,2105,2057,2036,2046
2081,2061,2043,2059,2103,2061,2055,2052
2086,2078,2055,2062,2098,2057,2050,2059
2084,2089,2068,2067,2068,2046,2050,2056
2078,2092,2074,2064,2049,2039,2038,2047
2070,2086,2070,2057,2050,2030,2024,2018
2057,2074,2064,2054,2042,2018,1997,2019
2051,2066,2062,2040,2000,1996,1978,2027
2042,2050,2052,2013,1951,1962,1948,2010
2012,2028,2033,2008,1973,1980,1954,2019
2017,2027,2039,2030,1999,2014,1994,2046
2058,2063,2055,2044,2016,2028,2000,2055
2064,2054,2054,2053,2043,2045,2002,2066
2067,2059,2055,2057,2057,2053,2010,2079
2068,2064,2054,2058,2063,2067,2035,2079
2065,2061,2053,2059,2052,2069,2054,2076
2069,2060,2050,2056,2048,2060,2070,2078
2072,2060,2052,2061,2064,2066,2072,2077
2081,2064,2051,2068,2074,2051,2061,2072
2079,2065,2053,2073,2059,2038,2074,2061
2071,2058,2054,2063,2052,2033,2032,2023
2060,2055,2046,2060,2043,2028,2038,1999
2046,2050,2044,2056,2028,2033,2032,1989
2033,2047,2051,2054,2024,2047,2049,1991
2033,2046,2046,2051,2047,2048,2029,1979
2009,2015,2023,2040,2053,2050,2033,1979
2019,2011,2024,2042,2057,2069,2054,2000
2034,2046,2040,2057,2042,2057,2063,2007
2034,2038,2043,2054,2012,2050,2056,2023
2043,2045,2040,2037,1961,2055,2077,2032
2041,2038,2041,2024,1953,2069,2092,2047
2038,2034,2034,2021,1971,2057,2080,2045
2040,2036,2041,2031,2000,2050,2095,2043
2042,2042,2051,2046,2017,2054,2081,2049
2038,2046,2052,2051,2011,2058,2081,2043
2042,2056,2054,2049,2000,2051,2093,2042
2050,2062,2054,2042,2007,2030,2064,2043
2045,2060,2058,2039,2016,2016,2038,2057
2044,2058,2058,2042,2057,1993,2004,2056
2052,2060,2052,2055,2105,2016,2008,2068
2048,2052,2056,2048,2125,2043,2023,2058
2028,2023,2031,2035,2103,2039,2030,2062
2024,2028,2032,2035,2100,2070,2059,2084
2049,2060,2063,2054,2106,2087,2070,2084
2053,2062,2059,2050,2085,2085,2086,2079
2043,2061,2059,2048,2048,2066,2065,2072
2047,2056,2057,2040,2031,2057,2047,2062
2050,2054,2060,2039,2019,2040,2050,2055
2050,2054,2056,2039,2020,2023,2039,2044
2038,2044,2050,2029,2015,2022,2052,2023
2036,2043,2046,2038,2023,2035,2049,2030
2041,2050,2054,2051,2051,2049,2045,2037
2050,2058,2061,2065,2094,2044,2051,2039
2047,2052,2057,2068,2115,2050,2036,2027
2047,2042,2046,2058,2103,2061,2029,2019
2046,2048,2048,2052,2069,2059,2040,2008
2042,2053,2049,2042,2053,2037,2014,1991
2023,2020,2028,2022,2072,2019,2029,1990
2031,2021,2027,2017,2041,2021,2041,2003
2045,2042,2047,2035,2049,2029,2039,2002
2038,2043,2050,2036,2071,2043,2041,2002
2041,2043,2048,2039,2074,2046,2053,2010
2036,2044,2048,2032,2072,2037,2037,2041
2047,2044,2050,2033,2064,2020,2043,2068
2059,2051,2051,2032,2056,1994,2070,2090
2068,2057,2055,2035,2031,1996,2083,2103
2069,2052,2050,2027,1950,2039,2124,2117
2067,2049,2054,2034,1924,2075,2148,2131
2080,2063,2062,2053,1989,2095,2172,2146
2087,2066,2071,2065,2024,2072,2165,2150
2081,2062,2068,2050,2030,2058,2163,2138
2071,2057,2062,2039,2032,2081,2153,2136
2060,2049,2059,2035,2027,2081,2148,2115
2018,2021,2026,2011,2027,2096,2141,2103
2006,2020,2029,2017,2064,2110,2091,2110
2038,2056,2055,2034,2089,2072,2009,2087
2036,2056,2051,2043,2097,2021,1946,2044
2032,2049,2045,2050,2105,2032,1853,2014
2026,2041,2044,2041,2080,2033,1918,1986
2019,2037,2040,2037,2068,2043,1972,1977
2032,2035,2033,2032,2070,2048,2000,2000
2031,2034,2038,2042,2082,2040,2020,2003
2028,2041,2034,2039,2065,2022,2028,1996
2030,2040,2041,2041,2050,2019,2005,1992
2029,2039,2037,2036,2039,2030,1998,1988
2021,2039,2041,2039,2033,2035,1986,1974
2027,2040,2040,2036,2030,2050,2004,1977
2032,2037,2038,2033,2016,2062,2022,1986
2039,2039,2038,2029,2002,2059,2000,1974
2013,2010,2021,2018,2012,2074,2009,1973
2010,2008,2024,2032,2033,2096,2061,1986
2032,2036,2045,2037,2032,2094,2077,1978
2025,2030,2039,2025,2016,2087,2054,1974
2022,2034,2041,2024,2048,2053,2036,1974
2025,2033,2043,2021,2055,2047,2050,1991
2027,2037,2048,2028,2062,2062,2052,2004
2036,2041,2052,2048,2078,2037,2056,2022
2046,2059,2060,2059,2084,2006,2065,2029
2053,2064,2064,2063,2096,2016,2049,2024
2048,2072,2067,2070,2081,2011,2051,2034
2051,2065,2058,2068,2079,1996,2030,2039
2043,2059,2065,2066,2084,2010,2034,2049
2037,2063,2060,2062,2091,2000,2001,2065
2042,2062,2062,2064,2095,2022,2025,2086
2047,2060,2053,2047,2072,2021,2010,2078
2026,2031,2036,2036,2065,2039,2004,2080
2025,2036,2048,2051,2084,2069,2017,2079
2043,2061,2063,2061,2075,2061,2032,2070
2043,2060,2064,2061,2076,2059,2034,2059
2038,2052,2053,2055,2067,2066,2030,2053
2036,2054,2056,2051,2059,2072,2015,2039
2039,2051,2056,2042,2047,2066,2053,2023
2030,2055,2058,2035,2018,2060,2066,2015
2033,2054,2054,2033,2023,2043,2062,2019
2047,2056,2057,2039,2049,2032,2065,2019
2086,2064,2050,2040,2068,2019,2040,2014
2096,2059,2039,2047,2082,2028,2008,1999
2060,2054,2044,2047,2083,2031,1986,2003
2043,2038,2039,2036,2049,2059,2036,2040
2040,2036,2036,2025,2042,2084,2094,2038
2039,2033,2022,2014,2026,2064,2082,2004
2023,2018,2020,2022,2024,2067,2078,1985
2018,2031,2036,2036,2035,2080,2091,1988
2044,2055,2046,2044,2026,2046,2044,1967
2047,2061,2045,2040,2030,2035,2024,1969
2041,2052,2044,2046,2038,2030,2039,1967
2047,2051,2045,2052,2043,2040,2042,1989
2046,2052,2045,2049,2042,2046,2059,1995
2048,2042,2044,2044,2039,2072,2068,1994
2039,2041,2041,2045,2041,2084,2057,1991
2036,2039,2036,2043,2068,2089,2042,1989
2029,2039,2037,2045,2080,2091,2059,1999
2029,2036,2037,2054,2083,2091,2052,2014
2034,2036,2043,2056,2101,2089,2085,2039
2038,2047,2052,2068,2140,2116,2094,2058
2047,2050,2050,2069,2144,2153,2113,2082
2040,2041,2036,2057,2134,2175,2071,2068
2031,2020,2029,2041,2116,2147,2065,2080
2035,2039,2046,2047,2092,2076,2060,2084
2054,2051,2052,2037,2044,1982,2051,2071
2050,2057,2055,2038,2028,1994,2050,2066
2054,2055,2054,2035,2026,2016,2040,2052
2050,2047,2058,2036,2038,2022,2040,2036
2048,2052,2057,2034,2041,2027,2031,2021
2047,2048,2057,2036,2052,2035,2033,2013
2049,2050,2053,2045,2034,2052,2059,2007
2050,2054,2060,2052,2043,2070,2077,2006
2053,2058,2065,2052,2053,2077,2092,2011
2060,2065,2066,2051,2046,2071,2082,2007
2059,2051,2057,2031,1983,2039,2055,1997
2058,2047,2052,2022,1988,2025,2044,1990
2052,2052,2055,2036,2004,2017,2053,1986
2044,2032,2033,2021,2007,1995,2025,1961
2020,2022,2029,2019,2007,2003,2013,1966
2023,2038,2054,2040,2038,2027,2048,1984
2042,2053,2062,2056,2059,2040,2046,1990
2048,2060,2069,2056,2058,2037,2032,1998
2054,2065,2069,2052,2044,2032,2018,2001
2052,2067,2074,2052,2033,2014,2043,2028
2056,2065,2066,2057,2043,2016,2054,2039
2054,2059,2061,2044,2049,2021,2033,2044
2052,2053,2057,2049,2040,2027,2052,2063
2054,2055,2056,2049,2049,2034,2051,2072
2060,2059,2057,2054,2066,2039,2056,2075
2056,2059,2062,2052,2065,2035,2049,2082
2053,2056,2057,2058,2045,2015,2050,2084
2047,2061,2063,2055,2040,2007,2053,2093
2049,2057,2060,2059,2041,2008,2058,2089
2042,2034,2040,2026,2015,1984,2014,2061
2019,2015,2030,2009,1996,2013,2041,2087
2043,2047,2055,2031,2010,2049,2052,2097
2059,2065,2062,2045,2012,2031,2067,2094
2060,2069,2068,2042,2031,2018,2051,2091
2065,2067,2070,2043,2040,2039,2092,2080
2062,2062,2065,2044,2052,2062,2153,2064
2050,2058,2060,2039,2051,2084,2204,2076
2050,2059,2060,2034,2051,2096,2220,2077
2049,2050,2055,2036,2046,2093,2214,2074
2042,2049,2053,2038,2048,2088,2183,2057
2037,2046,2051,2032,2049,2080,2122,2045
2038,2050,2050,2038,2060,2086,2140,2036
2039,2052,2048,2039,2061,2103,2216,2037
2040,2041,2052,2046,2063,2122,2287,2015
2032,2048,2056,2053,2080,2131,2223,1997
2027,2025,2034,2034,2049,2075,2053,1965
2010,2018,2030,2029,2028,2036,1938,1935
2019,2040,2049,2044,2045,2008,1773,1944
2031,2051,2054,2045,2044,1970,1826,1931
2038,2058,2061,2050,2048,2005,1933,1939
2037,2054,2056,2052,2047,2032,1973,1958
2044,2053,2057,2049,2050,2033,1995,1965
2040,2053,2054,2048,2061,2028,2029,1977
2033,2054,2050,2048,2069,2033,2021,1979
2032,2057,2054,2048,2069,2071,2029,1992
2029,2053,2051,2044,2067,2134,2133,2034
2036,2057,2057,2044,2060,2174,2222,2075
2041,2055,2055,2040,2052,2174,2230,2105
2043,2054,2055,2041,2051,2140,2221,2117
2048,2057,2063,2049,2060,2104,2219,2131
2055,2059,2061,2060,2078,2064,2196,2135
2040,2034,2042,2037,2049,2055,2173,2116
2028,2016,2031,2030,2017,2080,2173,2117
2046,2044,2049,2035,2002,2123,2231,2114
2045,2048,2052,2031,1999,2110,2230,2098
2045,2045,2045,2039,2040,2098,2158,2083
2039,2044,2046,2046,2073,2067,1974,2044
2036,2044,2050,2052,2075,2065,1896,2019
2036,2040,2048,2053,2071,2066,1897,1994
2030,2036,2046,2054,2067,2032,1844,1966
2024,2030,2039,2045,2064,1971,1832,1962
2025,2034,2041,2047,2065,1936,1848,1978
2026,2033,2037,2046,2053,1941,1897,1956
2020,2029,2041,2054,2064,1972,1911,1953
2022,2024,2028,2045,2071,2000,1963,1942
2013,2024,2026,2048,2095,2017,2003,1942
2013,2018,2025,2044,2121,1997,1997,1907
1990,1978,1999,2023,2123,1991,1999,1907
1981,1977,1990,2039,2132,2024,2011,1935
2011,2008,2013,2054,2158,2048,2025,1969
2022,2014,2022,2049,2135,2040,2008,1979
2022,2018,2023,2034,2099,2057,2017,1986
2026,2016,2025,2025,2058,2055,2032,2001
2025,2016,2020,2014,2026,2040,1992,2005
2030,2028,2025,2021,1954,2029,1972,2030
2039,2041,2032,2022,1867,1988,1963,2053
2055,2053,2048,2039,1944,1989,1982,2068
2070,2066,2060,2063,2008,2009,1985,2078
2064,2058,2065,2065,2047,2041,1981,2079
2049,2050,2052,2056,2066,2103,2054,2073
2046,2049,2051,2058,2054,2099,2081,2069
2054,2048,2050,2053,2027,2014,2085,2050
2045,2045,2034,2052,2019,1975,2091,2012
2012,2012,2012,2030,1973,1963,2081,1997
2007,2009,2006,2017,1968,1975,2114,2001
2019,2030,2021,2033,1990,2037,2153,1980
2016,2032,2015,2037,2002,2061,2112,1981
2020,2037,2039,2062,2053,2086,2091,1980
2035,2053,2053,2084,2094,2088,2078,1972
2037,2058,2055,2076,2088,2058,1995,1959
2027,2051,2045,2062,2044,2026,1993,1957
2035,2054,2042,2058,1991,1990,1931,1964
2036,2054,2041,2046,1944,1941,1880,1948
2032,2040,2020,2020,1936,1963,1838,1932
2031,2036,2019,2033,2006,2037,1964,1951
2043,2053,2036,2074,2070,2091,2029,1958
2042,2053,2042,2068,2066,2105,2033,1950
2041,2050,2034,2052,2060,2102,2044,1952
2034,2046,2030,2054,2065,2106,2051,1952
2030,2026,2016,2032,2032,2050,2038,1929
2011,2007,2014,2016,2016,2036,2042,1929
2017,2031,2025,2029,2056,2079,2095,1948
2034,2038,2030,2029,2088,2095,2105,1936
2024,2036,2031,2016,2080,2096,2091,1948
2017,2038,2040,2007,2057,2088,2078,1956
2029,2050,2065,2012,2045,2080,2030,1966
2044,2062,2087,2025,2053,2044,1936,1976
2058,2077,2100,2038,2056,1991,1908,1990
2062,2087,2100,2050,2068,1997,1951,2019
2075,2083,2107,2062,2081,1989,1987,2027
2069,2084,2098,2049,2071,2003,1995,2019
2056,2076,2094,2041,2055,2022,2003,2011
2049,2073,2091,2043,2048,2026,1997,2002
2058,2068,2093,2045,2045,2004,1998,1997
2056,2077,2100,2055,2054,1974,2032,2006
2054,2077,2100,2070,2080,1959,2016,2000
2029,2047,2071,2054,2060,1971,2000,1996
2027,2040,2062,2053,2078,2005,2015,2008
2061,2084,2097,2076,2106,2028,2022,2006
2064,2086,2102,2081,2125,2040,2036,2006
2066,2085,2085,2072,2116,2039,2017,2002
2063,2081,2085,2063,2091,2017,2009,2000
2063,2076,2084,2062,2074,1996,2003,2028
2063,2076,2082,2065,2083,1998,1993,2059
2066,2073,2075,2068,2087,1992,1979,2052
2056,2068,2066,2066,2054,1993,1952,2017
2053,2058,2059,2067,2064,2017,1951,1980
2035,2051,2054,2047,2065,2018,1961,1964
2026,2050,2053,2032,1986,2006,1988,1954
2027,2047,2046,2032,1940,2042,2004,1950
2025,2048,2046,2033,1945,2087,2032,1960
2032,2047,2042,2045,1978,2108,2053,1960
2024,2024,2022,2025,1986,2085,2006,1939
2010,2016,2021,2025,2004,2057,2006,1933
2018,2041,2047,2042,2002,2067,2027,1960
2042,2056,2053,2040,1998,2045,2006,1964
2044,2061,2061,2041,1998,2053,1990,1973
2049,2058,2062,2050,2002,2058,1983,1988
2061,2059,2067,2056,2015,2114,2007,1991
2058,2061,2061,2051,2019,2124,1997,1985
2050,2056,2060,2047,2006,2075,1989,1988
2046,2057,2064,2048,2031,2046,1992,1993
2052,2050,2065,2058,2063,2036,2001,2000
2050,2052,2067,2055,2059,2025,2011,2009
2045,2048,2066,2049,2033,2026,2028,2020
2048,2046,2073,2050,2010,2033,2055,2026
2050,2054,2079,2061,2023,2049,2069,2032
2052,2054,2076,2049,2006,2054,2078,2039
2048,2041,2061,2033,1978,2035,2063,2018
2019,2010,2038,2033,1988,2053,2089,2023
2028,2025,2046,2054,2004,2072,2139,2050
2050,2047,2053,2049,1996,2081,2180,2050
2047,2051,2054,2041,1995,2086,2210,2046
2045,2043,2050,2033,1988,2085,2188,2027
2039,2038,2046,2034,1994,2065,2119,2017
2040,2035,2042,2023,2008,2054,2045,2009
2033,2029,2033,2016,2052,2002,1970,1996
2023,2026,2027,2024,2077,2022,1934,2001
2033,2026,2032,2022,2062,2045,2009,2006
2040,2028,2031,2026,2059,2044,2029,2001
2047,2037,2045,2037,2089,2046,2043,2011
2049,2043,2055,2048,2116,2059,2042,2014
2051,2045,2071,2058,2103,2075,2047,2022
2059,2068,2082,2069,2091,2100,2051,2014
2061,2068,2076,2061,2071,2095,2038,1995
2032,2034,2063,2048,2056,2080,2021,1979
2030,2025,2064,2060,2065,2095,2034,1979
2048,2058,2083,2057,2060,2077,2022,1969
2049,2056,2071,2051,2026,2021,1981,1939
2036,2051,2065,2042,1998,1984,1932,1928
2038,2048,2071,2048,2018,1982,1959,1938
2046,2048,2076,2051,2040,1992,2008,1950
2045,2056,2069,2051,2036,1971,2022,1953
2040,2050,2070,2043,2049,1960,1981,1970
2044,2045,2061,2041,2057,1982,2023,1981
2041,2045,2066,2051,2072,2030,2036,2000
2049,2051,2074,2054,2067,2062,2042,2023
2053,2050,2069,2059,2063,2066,2029,2033
2058,2052,2070,2053,2048,2048,2003,2034
2052,2053,2063,2045,2037,2036,1960,2022
2048,2047,2058,2033,2022,2021,1951,2010
2012,2012,2031,2019,2011,2005,1959,2000
2008,2008,2019,2021,2030,2011,1998,2015
2029,2036,2047,2042,2035,2018,2013,2024
2043,2040,2050,2043,2024,2019,2003,2026
2045,2039,2044,2042,1994,2021,2026,2027
2045,2042,2050,2039,1980,2026,2033,2025
2046,2049,2051,2032,1975,2034,2018,2007
2041,2045,2045,2029,1989,2050,2018,1998
2041,2047,2052,2056,2029,2076,2020,1997
2054,2055,2059,2071,2071,2117,2028,2006
2058,2058,2055,2075,2114,2172,2037,2005
2064,2057,2052,2071,2113,2168,2046,2002
2055,2052,2047,2062,2091,2076,2010,1987
2050,2038,2042,2058,2058,1971,1996,1974
2036,2039,2036,2054,2040,1977,2010,1971
2048,2039,2036,2053,2036,1993,2017,1960
2019,2006,2012,2030,2023,1988,2031,1969
2016,2006,2010,2031,2035,2009,2051,1992
2047,2039,2044,2048,2035,2023,2066,2001
2045,2036,2039,2046,2016,2013,2064,2005
2045,2042,2046,2043,2022,2016,2040,2008
2050,2044,2042,2047,2021,2026,2042,2008
2050,2038,2042,2047,2022,2072,2041,2011
2047,2036,2036,2049,2041,2132,2051,2020
2047,2039,2040,2048,2047,2121,2056,2015
2048,2041,2040,2049,2060,2098,2034,2026
2049,2039,2037,2056,2062,2068,2024,2015
2048,2042,2045,2051,2068,2025,2028,2008
2047,2043,2042,2057,2058,2010,2030,2004
2047,2043,2037,2050,2052,2015,2029,2005
2047,2043,2045,2052,2051,2022,2036,1997
2041,2043,2042,2054,2059,2012,2020,2002
2014,2011,2017,2030,2058,1995,2004,2018
2009,2002,2012,2030,2072,2004,2028,2039
2033,2043,2035,2035,2082,2016,2036,2033
2034,2040,2041,2038,2110,2036,2030,2031
2034,2042,2043,2060,2164,2068,2025,2032
2039,2043,2041,2070,2167,2077,2043,2025
2041,2038,2042,2060,2127,2071,2031,2016
2042,2042,2046,2059,2080,2046,2038,2012
2043,2045,2047,2064,1975,1998,2040,2018
2048,2047,2048,2058,1938,1989,2048,2007
2036,2040,2045,2058,1961,2047,2064,1999
2040,2036,2040,2060,1972,2068,2082,1995
2044,2036,2039,2055,1980,2074,2075,1987
2042,2031,2031,2039,1962,2062,2053,1969
2028,2034,2029,2024,1952,2064,2066,1967
2033,2044,2035,2039,1988,2078,2055,1953
2011,2018,2017,2021,1971,2055,2012,1943
1995,2008,2006,2015,1973,2063,2010,1960
2023,2033,2026,2040,2040,2073,2023,1965
2023,2040,2020,2046,2056,2035,2024,1972
2023,2034,2027,2037,2060,2013,2026,1971
2024,2032,2017,2042,2069,2031,2036,1984
2033,2037,2028,2053,2088,2057,2029,1996
2043,2056,2041,2071,2100,2065,2033,2005
2041,2053,2046,2064,2083,2058,2050,2009
2044,2057,2041,2056,2055,2055,2063,2008
2040,2058,2042,2060,2058,2048,2073,2016
2038,2051,2042,2056,2056,2048,2063,2027
2042,2054,2044,2056,2053,2053,2059,2040
2043,2056,2040,2058,2053,2063,2034,2050
2039,2060,2042,2057,2053,2066,2031,2061
2044,2064,2046,2055,2049,2064,2046,2051
2025,2028,2019,2021,2014,2045,2026,2044
2009,2012,2013,2012,1986,2052,2028,2051
2029,2043,2034,2032,1988,2079,2054,2062
2042,2048,2042,2035,1973,2073,2027,2056
2039,2057,2047,2036,1963,2046,2023,2046
2046,2059,2049,2053,1993,2014,2017,2041
2047,2061,2055,2059,2045,2008,2023,2039
2047,2064,2058,2067,2083,2020,2048,2029
2049,2054,2049,2066,2075,2051,2043,2027
2042,2057,2049,2059,2075,2048,2037,2023
2053,2049,2040,2056,2060,2052,2025,2016
2046,2044,2037,2052,2049,2035,2011,2006
2040,2043,2039,2054,2048,2034,2005,1998
2037,2038,2034,2049,2042,2033,2008,1986
2033,2036,2040,2050,2051,2052,2026,2004
2034,2041,2039,2048,2059,2068,2028,2001
2028,2019,2022,2028,2045,2044,2018,1976
2016,2003,2021,2026,2041,2034,2023,1980
2029,2029,2040,2050,2058,2052,2034,2004
2053,2047,2044,2053,2053,2056,2022,2000
2047,2042,2042,2049,2045,2049,2029,1999
2046,2049,2044,2051,2042,2056,2039,2006
2041,2041,2043,2052,2051,2058,2026,2008
2038,2046,2044,2056,2038,2054,2043,2008
2039,2044,2049,2056,2037,2046,2035,2019
2043,2046,2050,2059,2052,2050,2047,2026
2051,2050,2049,2059,2057,2062,2049,2036
2049,2053,2054,2059,2054,2064,2037,2046
2046,2055,2055,2055,2056,2066,2027,2048
2043,2050,2055,2048,2060,2061,2011,2058
2040,2047,2044,2046,2058,2053,2034,2059
2035,2040,2049,2039,2053,2045,2046,2064
2034,2039,2036,2033,2034,2012,2016,2048
2014,2021,2020,2029,2029,2001,2007,2057
2021,2029,2038,2049,2056,2038,2043,2079
2045,2052,2047,2052,2049,2052,2047,2076
2047,2056,2046,2049,2038,2055,2037,2077
2045,2054,2050,2046,2032,2052,2028,2074
2044,2049,2045,2048,2009,2039,2024,2062
2050,2051,2040,2056,2038,2050,2027,2053
2052,2055,2044,2046,2049,2076,2033,2040
2050,2052,2052,2048,2035,2104,2030,2029
2055,2061,2053,2042,1992,2099,2063,2027
2049,2052,2051,2036,1960,2064,2030,2029
2051,2050,2056,2040,1980,1997,2034,2025
2051,2053,2049,2045,2009,1960,2024,2018
2047,2040,2040,2035,2000,1968,2007,2015
2038,2045,2050,2042,2025,2003,2017,2017
2049,2049,2053,2057,2076,2011,2004,2000
2030,2025,2044,2052,2072,2008,1988,1998
2028,2013,2034,2062,2094,2036,2016,2017
2055,2052,2055,2072,2109,2045,2030,2017
2056,2046,2052,2068,2092,2045,2033,2012
2043,2043,2044,2048,2045,2041,2041,2012
2039,2046,2044,2037,1990,2057,2059,2012
2039,2039,2041,2028,2016,2082,2071,2023
2033,2034,2037,2025,2026,2104,2073,2021
2030,2042,2040,2025,2005,2083,2066,2030
2034,2036,2040,2028,1995,2055,2041,2045
2031,2033,2037,2028,2004,2069,2059,2051
2034,2039,2040,2033,2020,2062,2062,2072
2045,2035,2045,2046,2053,2046,2075,2079
2052,2036,2041,2054,2082,2051,2056,2080
2047,2045,2045,2053,2089,2054,2049,2075
2050,2044,2044,2051,2083,2043,2026,2062
2029,2015,2020,2032,2068,2038,2001,2069
2026,2013,2020,2030,2057,2029,2008,2085
2047,2047,2043,2042,2058,2031,2020,2083
2057,2055,2052,2043,2047,2032,2034,2083
2060,2054,2049,2038,2032,2027,2029,2080
2060,2050,2049,2040,2020,2025,2038,2065
2053,2044,2048,2038,2016,2011,2029,2060
2048,2053,2051,2037,2004,2004,2033,2054
2054,2051,2046,2040,2015,2004,2052,2054
2057,2050,2046,2051,2028,2011,2035,2049
2058,2057,2048,2052,2042,2020,2057,2042
2058,2056,2047,2044,2044,2027,2058,2045
2065,2053,2044,2046,2042,2030,2059,2043
2065,2047,2042,2047,2048,2043,2060,2039
2067,2050,2047,2048,2066,2054,2066,2039
2068,2043,2039,2045,2057,2074,2068,2013
2037,2017,2012,2024,2030,2067,2025,2003
2034,2015,2006,2030,2017,2070,2056,2016
2052,2047,2032,2043,2037,2092,2067,2029
2054,2053,2036,2045,2027,2070,2077,2034
2055,2055,2045,2050,2019,2051,2070,2039
2047,2053,2039,2052,1993,2029,2075,2035
2049,2052,2040,2040,1972,2030,2068,2041
2051,2046,2038,2029,1963,2023,2041,2032
2041,2045,2029,2020,1958,2026,2018,2032
2037,2051,2037,2036,2002,2033,2028,2043
2046,2054,2054,2058,2064,2041,2022,2056
2051,2056,2047,2073,2133,2062,2040,2065
2054,2054,2050,2074,2152,2072,2056,2083
2055,2052,2056,2060,2103,2076,2071,2090
2056,2055,2056,2053,2046,2073,2072,2096
2058,2058,2051,2050,2042,2070,2058,2089
2032,2024,2024,2035,2031,2047,2043,2074
2025,2015,2029,2034,2034,2031,2043,2094
2043,2045,2060,2064,2067,2031,2043,2107
2059,2052,2063,2062,2051,2040,2041,2106
2063,2060,2066,2057,2039,2048,2052,2094
2057,2060,2057,2052,2042,2079,2050,2084
2057,2054,2050,2045,2045,2102,2062,2068
2040,2046,2044,2041,2038,2103,2057,2057
2045,2048,2038,2036,2052,2103,2061,2052
2046,2046,2040,2043,2077,2108,2054,2046
2052,2051,2044,2054,2090,2075,2052,2045
2055,2050,2042,2058,2081,2026,2039,2035
2051,2047,2034,2050,2066,2015,2035,2030
2049,2043,2033,2047,2065,2030,2048,2027
2045,2044,2029,2048,2070,2044,2045,2028
2051,2052,2039,2052,2068,2063,2059,2022
2050,2034,2024,2034,2031,2053,2045,2012
2037,2029,2022,2032,2022,2047,2032,2011
2039,2050,2047,2050,2038,2056,2049,2030
2058,2053,2052,2039,2039,2040,2044,2027
2053,2057,2051,2044,2056,2033,2038,2036
2055,2060,2059,2056,2072,2028,2028,2042
2061,2060,2062,2053,2109,2027,2015,2039
2063,2062,2062,2045,2141,2026,2015,2055
2054,2062,2057,2046,2156,2033,2028,2061
2060,2065,2055,2060,2165,2041,2042,2065
2064,2067,2060,2068,2174,2056,2037,2070
2067,2064,2056,2067,2167,2052,2028,2078
2064,2060,2050,2064,2153,2042,2024,2082
2057,2053,2057,2056,2118,2039,2022,2094
2055,2060,2055,2047,2063,2038,2037,2105
2064,2059,2053,2030,1939,2037,2057,2112
2058,2044,2039,2009,1903,2017,2022,2083
2028,2022,2028,2016,1944,2028,2028,2087
2032,2036,2052,2040,2002,2072,2076,2105
2062,2057,2058,2044,2026,2078,2087,2100
2064,2058,2054,2046,2021,2071,2070,2093
2059,2051,2047,2036,2008,2058,2069,2088
2055,2042,2043,2043,2035,2073,2053,2069
2044,2042,2044,2053,2051,2098,2053,2060
2047,2044,2043,2045,2051,2081,2060,2055
2044,2036,2035,2048,2054,2046,2043,2050
2044,2034,2036,2041,2051,2037,2049,2044
2042,2038,2035,2036,2053,2044,2028,2043
2044,2038,2039,2046,2057,2045,2042,2034
2049,2041,2047,2045,2070,2040,2045,2027
2039,2036,2053,2047,2091,2042,2043,2027
2047,2040,2059,2046,2064,2038,2052,2018
2049,2035,2044,2014,1949,2012,2019,1997
2023,2016,2029,1998,1945,2016,2034,1992
2022,2015,2038,2020,1993,2043,2044,2020
2052,2039,2050,2028,2006,2046,2049,2027
2050,2051,2056,2036,2018,2043,2060,2031
2055,2057,2058,2038,2016,2039,2062,2032
2060,2063,2058,2047,2017,2031,2061,2041
2060,2060,2054,2048,2017,2033,2070,2041
2059,2056,2041,2050,2011,2036,2054,2056
2061,2053,2037,2046,2013,2051,2075,2067
2057,2054,2033,2040,2023,2064,2069,2070
2057,2049,2030,2032,2029,2066,2061,2077
2060,2044,2032,2040,2052,2066,2060,2076
2052,2053,2036,2047,2051,2073,2065,2092
2056,2048,2038,2037,2049,2078,2079,2100
2056,2037,2030,2032,2042,2090,2082,2106
2053,2035,2029,2025,2022,2073,2062,2093
2027,2007,2012,2008,2007,2069,2042,2096
2030,2008,2017,2013,2007,2085,2065,2115
2056,2045,2038,2030,2016,2083,2079,2109
2052,2045,2043,2039,2017,2078,2070,2101
2057,2049,2045,2037,2017,2056,2043,2095
2053,2045,2048,2036,2015,2047,2036,2089
2051,2052,2042,2048,2063,2050,2047,2079
2052,2050,2040,2046,2064,2024,2050,2069
2051,2046,2043,2045,2045,2011,2051,2056
2046,2049,2042,2043,2038,2015,2059,2054
2044,2051,2040,2043,2041,2034,2054,2059
2054,2045,2035,2040,2032,2038,2059,2047
2048,2040,2034,2036,2022,2041,2046,2042
2043,2037,2032,2028,2017,2047,2043,2041
2043,2036,2034,2032,2017,2044,2045,2041
2048,2042,2038,2034,2017,2044,2043,2034
2029,2016,2016,2017,1996,2012,2024,2019
2032,2019,2023,2019,2007,2020,2049,2032
2048,2059,2053,2048,2024,2056,2075,2040
2062,2056,2050,2049,2033,2066,2082,2045
2066,2061,2054,2048,2038,2061,2087,2053
2069,2063,2042,2044,2047,2059,2064,2064
2074,2062,2050,2050,2051,2072,2062,2058
2072,2069,2046,2055,2058,2084,2069,2061
2070,2062,2040,2055,2067,2079,2055,2061
2065,2057,2041,2057,2073,2081,2078,2071
2060,2050,2038,2054,2070,2076,2072,2079
2054,2046,2030,2050,2064,2079,2073,2083
2054,2043,2026,2047,2071,2084,2084,2097
2048,2039,2026,2043,2070,2075,2072,2094
2044,2033,2023,2044,2069,2063,2069,2094
2042,2026,2014,2041,2046,2055,2051,2089
2028,1996,1995,2020,1999,2043,2048,2089
2017,1990,1992,2024,2024,2051,2042,2104
2046,2021,2017,2061,2074,2088,2081,2109
2058,2029,2026,2063,2070,2078,2063,2104
2059,2033,2030,2063,2057,2069,2053,2103
2063,2042,2038,2066,2034,2041,2052,2095
2065,2045,2041,2061,2017,2006,2034,2083
2060,2047,2043,2052,2009,2006,2027,2083
2056,2053,2047,2045,2000,2009,2017,2071
2061,2053,2049,2031,1969,2013,2043,2071
2067,2065,2064,2040,2011,2032,2056,2072
2073,2072,2074,2056,2039,2038,2074,2068
2074,2074,2068,2056,2046,2052,2057,2050
2061,2064,2057,2043,2036,2072,2050,2031
2053,2063,2050,2034,2023,2084,2052,2037
2053,2065,2052,2031,2020,2088,2046,2031
2045,2040,2032,2007,1986,2055,2028,2015
2022,2036,2031,2004,1994,2014,2039,2032
2051,2067,2068,2047,2047,2014,2072,2057
2074,2084,2084,2054,2067,2036,2066,2059
2075,2088,2073,2049,2062,2051,2077,2062
2074,2079,2067,2052,2066,2061,2065,2070
2070,2074,2060,2050,2053,2056,2038,2067
2078,2077,2060,2047,2037,2059,2061,2067
2081,2071,2055,2048,2040,2049,2065,2072
2074,2069,2062,2057,2078,2062,2073,2076
2071,2069,2065,2065,2114,2070,2086,2078
2073,2072,2065,2069,2116,2068,2072,2088
2071,2064,2065,2062,2096,2060,2074,2096
2059,2057,2051,2061,2081,2047,2071,2097
2056,2050,2046,2057,2079,2040,2074,2108
2052,2048,2040,2055,2075,2045,2054,2106
2034,2017,2016,2027,2051,2030,2024,2088
2018,2008,2012,2026,2045,2031,2060,2101
2038,2041,2034,2043,2039,2051,2063,2117
2050,2057,2042,2047,2007,2048,2056,2117
2061,2061,2047,2042,2023,2044,2064,2109
2058,2058,2046,2044,2031,2059,2074,2106
2067,2061,2045,2051,2050,2072,2072,2102
2063,2056,2043,2054,2065,2074,2073,2091
2065,2046,2043,2054,2073,2076,2071,2073
2052,2043,2034,2045,2070,2072,2083,2069
2049,2042,2034,2036,2052,2078,2085,2060
2045,2037,2031,2040,2040,2070,2073,2059
2050,2039,2032,2038,2035,2070,2074,2061
2041,2040,2018,2037,2030,2065,2061,2042
2048,2038,2026,2042,2019,2062,2083,2041
2058,2047,2033,2039,2022,2056,2074,2042
2060,2047,2027,2031,2016,2030,2029,2028
2031,2021,2017,2025,2007,2024,2022,2025
2032,2023,2028,2041,2030,2043,2054,2036
2060,2060,2045,2054,2032,2045,2025,2037
2059,2065,2045,2048,2029,2020,2035,2039
2061,2062,2043,2050,2030,2021,2037,2049
2055,2058,2036,2052,2038,2041,2044,2050
2058,2053,2038,2051,2044,2066,2074,2059
2056,2053,2034,2048,2046,2081,2074,2065
2058,2050,2040,2053,2061,2086,2077,2073
2059,2047,2041,2054,2073,2082,2074,2074
2058,2047,2037,2040,2061,2089,2056,2073
2055,2047,2036,2028,2027,2096,2043,2073
2050,2045,2037,2020,2002,2090,2038,2084
2051,2043,2039,2014,1971,2067,2048,2096
2052,2050,2047,2013,1953,2014,2032,2104
2059,2053,2056,2037,1980,1951,2041,2102
2041,2029,2043,2030,2015,1933,2030,2099
2036,2030,2041,2037,2042,1977,2044,2119
2067,2067,2071,2075,2100,2039,2066,2124
2073,2071,2074,2086,2126,2055,2072,2125
2076,2079,2072,2084,2131,2057,2064,2118
2077,2074,2065,2078,2129,2066,2082,2111
2066,2068,2069,2075,2119,2055,2069,2084
2058,2059,2058,2050,2084,2038,2041,2068
2049,2048,2051,2035,2046,2027,2039,2071
2054,2043,2051,2037,2027,2047,2052,2070
2057,2057,2060,2050,2034,2096,2061,2065
2056,2057,2060,2057,2035,2109,2072,2060
2054,2058,2056,2057,2022,2104,2088,2057
2057,2051,2052,2050,2018,2086,2059,2047
2052,2048,2051,2052,2040,2035,2046,2041
2048,2049,2050,2054,2032,2016,2069,2045
2045,2029,2032,2030,2016,2007,2031,2026
2024,2012,2026,2031,2022,2018,2020,2024
2033,2033,2051,2063,2048,2052,2061,2049
2060,2057,2065,2066,2069,2056,2055,2050
2063,2054,2061,2069,2074,2057,2068,2052
2057,2056,2064,2063,2074,2053,2062,2055
2062,2053,2063,2060,2061,2064,2068,2059
2061,2053,2068,2055,2063,2068,2079,2059
2064,2056,2068,2052,2053,2058,2067,2057
2050,2052,2067,2054,2043,2052,2064,2056
2048,2056,2075,2054,2050,2051,2072,2068
2051,2057,2072,2050,2047,2053,2070,2073
2050,2047,2064,2047,2037,2038,2069,2084
2048,2042,2050,2042,2038,2026,2054,2086
2056,2046,2061,2043,2050,2036,2064,2090
2057,2056,2057,2052,2060,2032,2028,2104
2047,2032,2037,2036,2035,2013,2031,2091
2030,2018,2029,2033,2036,2009,2027,2093
2042,2040,2049,2050,2050,2033,2054,2110
2054,2043,2055,2053,2046,2033,2048,2104
2053,2038,2054,2056,2046,2040,2046,2092
2043,2035,2051,2053,2049,2042,2051,2086
2039,2033,2046,2049,2044,2048,2060,2082
2036,2028,2046,2051,2042,2054,2056,2076
2037,2032,2049,2054,2046,2066,2079,2069
2047,2030,2052,2055,2044,2064,2075,2072
2042,2036,2049,2062,2043,2072,2072,2069
2049,2030,2050,2063,2050,2073,2081,2066
2050,2035,2056,2063,2048,2066,2081,2057
2047,2031,2052,2056,2044,2051,2064,2053
2050,2038,2057,2053,2042,2051,2070,2054
2052,2034,2055,2060,2046,2049,2056,2049
2035,2010,2036,2044,2030,2030,2024,2028
2026,2005,2030,2040,2028,2032,2006,2021
2040,2039,2053,2063,2060,2077,2062,2052
2057,2052,2062,2070,2065,2092,2066,2044
2059,2053,2063,2063,2060,2081,2059,2039
2053,2056,2064,2065,2059,2057,2053,2052
2054,2057,2062,2066,2063,2033,2073,2056
2050,2049,2052,2056,2065,2034,2067,2066
2046,2043,2042,2052,2096,2047,2068,2071
2049,2045,2045,2041,2119,2046,2074,2079
2049,2042,2054,2047,2119,2053,2078,2082
2049,2048,2056,2054,2144,2058,2071,2088
2053,2053,2053,2049,2160,2061,2071,2104
2059,2054,2049,2051,2144,2066,2080,2114
2053,2056,2049,2053,2112,2063,2069,2119
2061,2060,2052,2054,2082,2057,2063,2110
2042,2030,2032,2033,1992,2024,2028,2101
2031,2023,2026,2016,1901,2020,2033,2109
2047,2059,2051,2039,1942,2043,2059,2116
2058,2069,2064,2052,1976,2046,2053,2104
2059,2070,2072,2062,1988,2041,2035,2100
2052,2064,2060,2049,1992,2043,2057,2094
2046,2060,2059,2043,1976,2056,2045,2082
2043,2054,2053,2037,1960,2048,2032,2068
2047,2050,2057,2030,1969,2055,2025,2062
2050,2050,2056,2033,1965,2053,2041,2066
2048,2055,2057,2035,1976,2025,2034,2058
2050,2061,2061,2053,2025,2013,2056,2066
2062,2065,2055,2068,2064,2049,2080,2060
2059,2056,2056,2061,2078,2068,2075,2051
2051,2052,2046,2050,2080,2069,2059,2052
2056,2047,2052,2056,2075,2061,2044,2035
2036,2025,2028,2038,2036,2038,2023,2030
2025,2020,2030,2030,2018,2033,2058,2044
2060,2061,2060,2051,2027,2052,2078,2057
2066,2068,2063,2049,2020,2048,2081,2052
2054,2052,2054,2035,2033,2057,2051,2050
2054,2051,2048,2039,2054,2061,2071,2053
2052,2057,2061,2054,2073,2065,2079,2057
2056,2055,2063,2057,2070,2056,2076,2066
2055,2059,2060,2058,2071,2053,2074,2061
2055,2055,2062,2064,2073,2061,2073,2070
2062,2058,2063,2066,2068,2066,2082,2084
2059,2053,2061,2056,2062,2062,2071,2088
2054,2046,2057,2050,2059,2057,2074,2094
2052,2048,2050,2051,2055,2062,2072,2097
2055,2042,2046,2052,2051,2060,2058,2100
2053,2046,2045,2052,2057,2056,2066,2090
2034,2016,2023,2034,2042,2031,2016,2070
2017,2011,2025,2026,2042,2030,2034,2088
2039,2049,2053,2046,2053,2051,2053,2100
2055,2062,2053,2048,2042,2047,2050,2090
2056,2062,2057,2057,2036,2047,2037,2086
2052,2058,2054,2053,2046,2054,2049,2090
2054,2053,2049,2056,2047,2061,2036,2084
2055,2050,2043,2053,2054,2064,2053,2079
2056,2051,2042,2054,2060,2071,2068,2072
2058,2047,2050,2062,2069,2081,2090,2070
2054,2053,2052,2058,2065,2077,2100,2069
2060,2055,2050,2054,2051,2077,2096,2063
2057,2060,2051,2046,2052,2064,2092,2052
2057,2049,2042,2041,2045,2061,2080,2043
2055,2046,2040,2047,2035,2062,2076,2043
2056,2043,2050,2054,2040,2062,2068,2037
2050,2042,2035,2042,2048,2042,2027,2020
2032,2014,2021,2031,2056,2045,2024,2019
2028,2017,2031,2052,2071,2073,2048,2046
2057,2044,2051,2063,2069,2075,2077,2049
2062,2047,2054,2065,2057,2086,2074,2052
2060,2055,2055,2065,2058,2084,2072,2048
2060,2049,2054,2061,2062,2077,2080,2046
2058,2047,2050,2049,2028,2058,2073,2062
2052,2041,2043,2036,2037,2041,2078,2068
2052,2044,2044,2041,2061,2059,2059,2079
2058,2048,2047,2045,2067,2068,2057,2080
2054,2034,2044,2053,2066,2069,2062,2084
2055,2035,2040,2055,2061,2056,2055,2092
2054,2040,2046,2053,2060,2061,2071,2108
2056,2040,2046,2054,2058,2070,2072,2118
2056,2046,2050,2051,2047,2076,2078,2123
2058,2044,2041,2039,2017,2041,2063,2106
2030,2013,2022,2027,1998,2016,2036,2102
2030,2028,2036,2049,2014,2032,2070,2117
2061,2068,2058,2065,2030,2031,2058,2115
2060,2063,2061,2057,2028,2008,2038,2110
2061,2054,2047,2054,2030,1993,2024,2104
2055,2050,2044,2057,2025,2005,2034,2093
2061,2046,2043,2053,2034,2011,2035,2090
2063,2048,2045,2057,2044,2020,2036,2082
2061,2047,2044,2056,2053,2024,2040,2076
2058,2048,2040,2059,2065,2022,2046,2071
2055,2042,2039,2057,2069,2024,2061,2068
2052,2040,2040,2049,2064,2027,2056,2058
2047,2043,2043,2044,2059,2030,2047,2055
2044,2049,2038,2051,2055,2046,2077,2054
2053,2051,2037,2054,2054,2062,2053,2058
2054,2039,2024,2040,2025,2037,2039,2034
2023,2019,2013,2032,2017,2034,2041,2031
2025,2029,2030,2048,2033,2065,2064,2050
2052,2043,2048,2052,2038,2068,2058,2040
2057,2046,2050,2062,2048,2064,2070,2051
2055,2048,2055,2058,2053,2069,2050,2052
2058,2052,2060,2056,2048,2070,2053,2050
2054,2050,2059,2062,2053,2069,2037,2058
2058,2056,2060,2062,2062,2072,2046,2059
2056,2050,2059,2064,2065,2075,2076,2068
2061,2048,2057,2066,2062,2071,2082,2082
2056,2052,2059,2068,2060,2076,2067,2091
2053,2042,2053,2062,2062,2079,2075,2105
2050,2043,2048,2064,2051,2056,2055,2103
2046,2036,2046,2058,2042,2035,2046,2098
2046,2042,2055,2061,2035,2032,2037,2102
2038,2023,2040,2045,2009,2031,2030,2089
2029,2017,2031,2037,2000,2034,2035,2088
2037,2044,2051,2065,2010,2043,2047,2108
2050,2056,2065,2069,2027,2039,2049,2103
2055,2054,2064,2069,2026,2044,2065,2099
2051,2056,2068,2064,2023,2045,2064,2087
2047,2058,2072,2061,2028,2044,2055,2087
2056,2060,2070,2060,2026,2050,2062,2080
2059,2066,2069,2064,2029,2061,2071,2077
2058,2068,2071,2065,2022,2060,2059,2074
2068,2068,2074,2070,2060,2073,2058,2072
2064,2063,2071,2074,2110,2079,2054,2057
2063,2052,2067,2065,2113,2076,2065,2051
2060,2047,2060,2052,2041,2065,2060,2051
2059,2047,2053,2039,2032,2063,2058,2046
2053,2046,2052,2042,2037,2062,2063,2041
2047,2028,2023,2021,2019,2043,2035,2025
2031,2013,2026,2016,2015,2034,2026,2018
2040,2037,2041,2043,2023,2061,2068,2043
2059,2053,2049,2048,2038,2067,2070,2036
2059,2054,2047,2055,2064,2048,2036,2025
2056,2048,2051,2049,2070,2034,2049,2035
2055,2053,2052,2050,2076,2042,2060,2042
2058,2056,2054,2049,2066,2032,2049,2057
2064,2055,2054,2051,2035,2031,2058,2057
2058,2053,2049,2048,2028,2035,2053,2060
2056,2048,2051,2041,2022,2039,2060,2065
2055,2046,2051,2045,2045,2054,2059,2074
2056,2054,2059,2063,2089,2070,2073,2093
2057,2053,2064,2079,2124,2086,2078,2103
2055,2049,2060,2083,2147,2102,2080,2108
2062,2053,2064,2080,2145,2096,2092,2106
2056,2042,2042,2054,2085,2053,2039,2094
2032,2014,2022,2036,2046,2026,2036,2097
2032,2031,2041,2056,2062,2055,2047,2108
2053,2047,2044,2062,2058,2063,2073,2106
2053,2050,2043,2059,2057,2068,2060,2097
2057,2043,2045,2057,2046,2064,2066,2094
2056,2045,2036,2046,2031,2058,2044,2085
2055,2045,2043,2043,2017,2060,2052,2076
2049,2044,2040,2041,2019,2061,2052,2067
2048,2040,2044,2044,2035,2068,2053,2068
2047,2038,2041,2049,2059,2081,2047,2061
2049,2039,2039,2048,2078,2090,2060,2049
2046,2037,2041,2045,2089,2086,2047,2046
2042,2037,2044,2043,2066,2076,2051,2039
2045,2033,2041,2046,2055,2033,2051,2029
2038,2036,2047,2044,2047,2016,2045,2026
2049,2042,2034,2034,2027,2018,2041,2018
2028,2019,2020,2025,2024,2037,2058,2020
2031,2023,2037,2041,2038,2067,2074,2038
2058,2051,2049,2055,2048,2070,2073,2047
2059,2050,2052,2053,2049,2067,2086,2057
2060,2053,2052,2054,2054,2067,2080,2052
2067,2053,2056,2051,2055,2066,2083,2055
2061,2051,2055,2052,2057,2068,2075,2068
2065,2051,2051,2054,2066,2056,2073,2070
2062,2050,2047,2057,2069,2050,2060,2068
2057,2056,2050,2061,2084,2048,2056,2078
2059,2050,2052,2062,2076,2043,2050,2082
2055,2044,2044,2060,2062,2041,2058,2079
2048,2041,2039,2051,2047,2048,2045,2073
2043,2042,2044,2052,2046,2053,2034,2069
2042,2050,2040,2056,2034,2056,2030,2072
2037,2039,2024,2034,1998,2041,2005,2067
2019,2013,2013,2032,2019,2003,1991,2082
2025,2035,2033,2056,2060,2021,2038,2113
2057,2062,2050,2076,2079,2051,2051,2112
2066,2057,2054,2069,2067,2065,2066,2111
2062,2053,2047,2065,2048,2082,2063,2106
2065,2047,2041,2053,2022,2075,2060,2092
2057,2045,2039,2043,2008,2083,2051,2070
2055,2045,2044,2049,2047,2089,2049,2069
2055,2049,2045,2059,2083,2056,2040,2069
2059,2050,2050,2058,2089,2036,2037,2057
2048,2043,2047,2062,2076,2046,2029,2049
2048,2038,2046,2056,2053,2057,2054,2037
2048,2038,2046,2051,2050,2060,2071,2033
2051,2048,2058,2049,2042,2048,2064,2029
2054,2056,2061,2044,2035,2030,2063,2031
2053,2045,2039,2026,2014,2010,2027,2013
2030,2029,2030,2027,2020,2021,2022,2015
2040,2046,2046,2046,2047,2042,2061,2031
2063,2062,2055,2055,2050,2042,2073,2033
2061,2063,2053,2054,2064,2058,2062,2032
2066,2065,2057,2054,2066,2062,2057,2046
2062,2067,2058,2056,2065,2060,2053,2050
2070,2067,2053,2064,2078,2067,2041,2060
2071,2067,2059,2064,2132,2076,2046,2065
2067,2068,2055,2064,2169,2078,2064,2078
2068,2062,2052,2070,2163,2076,2065,2073
2054,2052,2043,2065,2160,2064,2063,2070
2054,2051,2043,2061,2142,2051,2063,2082
2057,2054,2047,2059,2109,2052,2070,2090
2056,2052,2052,2056,2093,2053,2058,2096
2060,2045,2049,2046,2075,2061,2063,2094
2048,2029,2030,2025,2002,2032,2026,2081
2023,2009,2025,2009,1900,2017,2037,2085
2029,2038,2040,2032,1928,2053,2070,2098
2053,2043,2052,2042,1980,2063,2069,2094
2056,2050,2056,2044,2003,2063,2058,2091
2057,2050,2049,2043,2015,2060,2060,2081
2055,2049,2050,2054,2036,2063,2055,2077
2060,2053,2054,2053,2044,2061,2064,2072
2057,2055,2056,2053,2047,2062,2043,2060
2065,2057,2056,2053,2022,2052,2038,2053
2062,2055,2054,2041,2002,2041,2060,2047
2056,2048,2053,2042,1986,2032,2049,2042
2043,2040,2053,2040,1968,2021,2043,2040
2039,2037,2042,2033,1975,2015,2042,2027
2034,2032,2036,2037,1984,2027,2048,2025
2040,2033,2030,2032,2022,2045,2048,2018
2032,2016,2024,2041,2054,2035,2016,2015
2029,2010,2023,2047,2069,2039,2031,2025
2040,2039,2049,2068,2089,2072,2070,2043
2058,2054,2051,2072,2094,2084,2060,2041
2059,2046,2049,2063,2087,2079,2061,2048
2057,2049,2055,2059,2084,2078,2077,2043
2054,2053,2044,2061,2070,2072,2065,2044
2054,2055,2055,2063,2069,2067,2069,2050
2065,2057,2054,2054,2060,2061,2071,2062
2071,2064,2054,2052,2049,2054,2063,2068
2067,2065,2056,2054,2039,2052,2067,2073
2065,2069,2066,2058,2036,2051,2065,2086
2061,2065,2064,2055,2043,2052,2044,2095
2060,2056,2050,2049,2030,2047,2053,2093
2056,2052,2050,2046,2018,2044,2046,2099
2055,2051,2054,2059,2084,2052,2043,2092
2048,2034,2037,2039,2067,2029,2027,2078
2035,2029,2036,2044,2047,2028,2022,2096
2050,2059,2058,2063,2038,2049,2043,2109
2064,2057,2064,2056,2006,2053,2054,2112
2061,2057,2059,2055,2015,2053,2075,2107
2061,2056,2054,2050,2033,2055,2064,2104
2062,2057,2053,2044,2012,2054,2075,2094
2066,2064,2048,2038,2021,2060,2062,2081
2071,2060,2050,2052,2040,2078,2072,2077
2064,2060,2047,2040,2024,2064,2068,2068
2062,2054,2046,2038,2018,2056,2059,2054
2058,2051,2045,2037,2023,2031,2069,2046
2052,2054,2049,2043,2027,2023,2042,2033
2044,2055,2051,2044,2042,2019,2030,2026
2046,2054,2057,2052,2058,2039,2048,2019
2050,2060,2056,2055,2052,2053,2050,2014
2034,2025,2030,2034,2034,2032,2028,2008
2026,2021,2033,2036,2033,2027,2029,2014
2047,2052,2057,2066,2064,2064,2076,2030
2054,2054,2054,2062,2085,2063,2067,2032
2046,2054,2049,2062,2079,2066,2071,2037
2047,2050,2043,2051,2069,2065,2067,2039
2049,2045,2043,2050,2070,2061,2073,2040
2050,2048,2039,2049,2065,2063,2066,2040
2052,2042,2044,2052,2066,2060,2065,2052
2052,2052,2049,2052,2072,2060,2079,2056
2047,2050,2048,2056,2080,2064,2075,2068
2045,2045,2052,2060,2082,2060,2059,2077
2042,2036,2050,2052,2054,2044,2055,2087
2037,2035,2044,2048,2037,2049,2060,2091
2038,2032,2043,2052,2041,2054,2053,2099
2041,2040,2046,2054,2046,2057,2031,2098
2030,2007,2022,2027,2028,2025,2038,2080
2014,2000,2018,2029,2019,2020,2029,2089
2027,2028,2032,2048,2037,2033,2047,2105
2044,2046,2044,2054,2043,2045,2061,2105
2051,2047,2051,2053,2032,2047,2042,2100
2056,2051,2054,2056,2032,2054,2034,2087
2047,2051,2058,2060,2026,2058,2044,2084
2049,2054,2061,2059,2033,2042,2040,2067
2054,2052,2065,2058,2034,2033,2034,2060
2050,2053,2064,2062,2033,2021,2045,2049
2057,2049,2069,2067,2043,2014,2062,2046
2060,2053,2066,2073,2051,2026,2048,2052
2055,2051,2062,2069,2048,2030,2049,2047
2055,2047,2051,2064,2055,2028,2049,2043
2050,2047,2045,2062,2054,2027,2041,2035
2051,2047,2050,2066,2060,2028,2051,2025
2042,2027,2032,2044,2043,2007,2018,2012
2022,2013,2019,2040,2033,2015,2034,2010
2034,2032,2036,2065,2058,2044,2056,2025
2061,2045,2030,2053,2050,2042,2050,2030
2050,2046,2024,2045,2042,2027,2050,2032
2045,2047,2024,2039,2039,2022,2032,2034
2049,2043,2015,2025,2027,2037,2029,2031
2048,2038,2015,2020,2037,2052,2035,2042
2050,2040,2015,2016,2045,2066,2071,2047
2050,2038,2009,2023,2048,2087,2054,2057
2047,2048,2023,2031,2058,2068,2061,2072
2061,2054,2024,2048,2069,2023,2035,2081
2054,2045,2041,2046,2078,2024,2045,2077
2045,2036,2039,2042,2069,2037,2032,2076
2043,2033,2043,2046,2059,2034,2040,2088
2037,2025,2054,2041,2057,2038,2052,2086
2031,2021,2043,2032,2041,2020,2026,2060
2007,1998,2042,2027,2051,2026,2010,2062
2006,2011,2062,2049,2067,2043,2058,2083
2036,2034,2072,2059,2067,2046,2052,2091
2047,2045,2076,2061,2064,2041,2071,2094
2047,2048,2075,2062,2058,2048,2073,2090
2050,2042,2074,2058,2047,2056,2061,2086
2043,2046,2059,2056,2044,2046,2065,2074
2045,2040,2062,2054,2041,2050,2057,2060
2047,2045,2063,2053,2039,2041,2066,2053
2050,2043,2067,2043,2009,2034,2063,2051
2058,2046,2057,2034,1994,2026,2064,2051
2053,2041,2057,2026,2033,2027,2064,2040
2043,2037,2049,2024,2054,2029,2052,2030
2041,2034,2046,2034,2068,2037,2048,2033
2038,2028,2040,2037,2071,2045,2053,2033
2044,2025,2032,2029,2059,2012,2008,2007
2029,2000,2020,2025,2036,1976,2006,1999
2025,2003,2033,2038,2049,1971,2030,2020
2055,2038,2057,2049,2051,1978,2022,2034
2057,2044,2061,2048,2050,2018,2036,2035
2059,2054,2058,2048,2049,2049,2040,2043
2062,2066,2061,2049,2051,2068,2047,2050
2073,2063,2066,2055,2054,2101,2068,2064
