CH1,CH2,CH3,CH4,CH5,CH6,CH7,CH8
2050,2066,2047,2010,2051,2039,2054,2049
2049,2059,2049,2014,2047,2032,2060,2045
2049,2058,2048,2024,2052,2048,2067,2036
2044,2054,2056,2026,2053,2048,2052,2029
2043,2052,2056,2028,2047,2052,2065,2024
2033,2046,2058,2025,2012,2054,2047,2025
2034,2048,2053,2002,1985,2043,2045,2022
2036,2043,2047,1997,1960,2025,2040,2022
2037,2040,2051,1998,1938,2006,2008,2016
2028,2033,2048,1988,1916,1975,1987,2017
2029,2041,2056,2008,1965,1949,2022,2029
2044,2053,2060,2038,2032,1991,2037,2030
2049,2053,2067,2047,2058,2030,2030,2029
2052,2060,2070,2059,2078,2055,2030,2036
2052,2062,2072,2067,2113,2068,2032,2043
2052,2058,2072,2065,2118,2087,2059,2045
2057,2056,2073,2061,2108,2088,2064,2048
2057,2058,2073,2063,2104,2084,2059,2051
2052,2054,2068,2061,2089,2085,2080,2058
2049,2053,2059,2065,2082,2089,2058,2052
2046,2050,2061,2066,2080,2088,2065,2060
2047,2058,2065,2070,2085,2091,2050,2063
2049,2048,2054,2071,2083,2098,2037,2065
2047,2046,2054,2070,2083,2097,2065,2068
2047,2041,2045,2074,2084,2090,2051,2069
2035,2030,2031,2065,2073,2080,2058,2061
2034,2027,2021,2064,2072,2069,2059,2066
2044,2038,2026,2061,2068,2067,2054,2064
2046,2036,2021,2052,2062,2065,2051,2060
2034,2039,2030,2048,2060,2058,2064,2055
2043,2043,2027,2047,2054,2044,2046,2046
2040,2041,2026,2040,2061,2043,2046,2048
2042,2039,2016,2034,2054,2050,2048,2038
2041,2035,2012,2033,2054,2050,2060,2031
2043,2037,2020,2027,2054,2053,2064,2034
2050,2046,2043,2030,2055,2048,2052,2038
2044,2052,2047,2018,2051,2036,2037,2023
2050,2050,2040,2012,2041,2034,2047,2020
2055,2052,2041,2009,2040,2032,2041,2018
2051,2056,2051,2014,2042,2034,2031,2014
2052,2056,2057,2019,2048,2043,2044,2023
2060,2047,2043,2021,2051,2047,2041,2011
2046,2042,2041,2023,2054,2052,2056,2011
2045,2045,2043,2033,2060,2052,2042,2009
2032,2038,2044,2038,2062,2044,2050,2010
2031,2027,2034,2041,2059,2038,2046,2015
2035,2025,2038,2045,2058,2038,2043,2026
2037,2023,2035,2043,2059,2043,2044,2033
2033,2021,2032,2042,2051,2040,2046,2027
2029,2016,2025,2038,2050,2039,2028,2030
2032,2017,2025,2042,2056,2050,2036,2038
2037,2020,2032,2051,2056,2062,2060,2038
2026,2024,2042,2057,2057,2071,2055,2043
2028,2024,2040,2053,2041,2077,2058,2063
2030,2032,2049,2051,2017,2072,2050,2060
2036,2034,2043,2049,2006,2063,2038,2059
2038,2030,2035,2040,2010,2034,2035,2070
2034,2032,2016,2029,2019,2009,2031,2068
2033,2030,2006,2029,2049,2026,2036,2069
2036,2030,2009,2016,2053,2056,2042,2063
2035,2030,2015,2007,2044,2073,2023,2067
2042,2043,2028,2006,2037,2072,2027,2063
2043,2059,2055,2010,2026,2058,2032,2062
2051,2064,2064,2020,2038,2025,2062,2065
2049,2071,2070,2031,2053,2022,2055,2058
2060,2068,2077,2044,2051,2024,2058,2053
2056,2068,2085,2046,2038,2027,2044,2044
2053,2067,2080,2042,2034,2030,2055,2035
2050,2057,2065,2029,2029,2034,2042,2026
2045,2053,2065,2032,2038,2047,2047,2024
2050,2061,2073,2058,2076,2063,2034,2035
2051,2075,2093,2084,2110,2075,2043,2030
2057,2078,2097,2082,2110,2076,2048,2033
2057,2084,2096,2078,2106,2069,2040,2037
2057,2069,2079,2063,2094,2062,2036,2031
2042,2065,2077,2063,2089,2068,2053,2035
2051,2065,2076,2062,2082,2062,2055,2033
2050,2060,2072,2061,2076,2058,2059,2032
2043,2067,2064,2062,2068,2051,2062,2038
2052,2062,2064,2055,2060,2050,2063,2046
2047,2064,2067,2055,2055,2060,2069,2049
2054,2059,2061,2053,2056,2088,2077,2049
2052,2056,2061,2057,2066,2100,2070,2054
2049,2054,2054,2035,2067,2098,2055,2055
2044,2050,2053,2033,2058,2095,2056,2052
2040,2054,2053,2032,2064,2086,2076,2057
2037,2050,2056,2034,2070,2082,2051,2062
2034,2054,2053,2038,2066,2074,2064,2067
2044,2052,2056,2036,2065,2070,2058,2063
2036,2049,2054,2039,2060,2054,2040,2067
2029,2042,2042,2035,2062,2035,2040,2068
2036,2043,2044,2038,2060,2022,2063,2065
2048,2050,2049,2037,2052,2023,2044,2060
2053,2046,2051,2045,2049,2012,2050,2055
2047,2049,2050,2044,2046,2010,2033,2054
2040,2050,2052,2040,2053,2023,2042,2046
2047,2051,2059,2042,2042,2036,2045,2039
2043,2052,2047,2041,2043,2049,2031,2038
2048,2052,2051,2038,2038,2055,2042,2034
2054,2054,2054,2040,2043,2042,2043,2030
2051,2051,2057,2035,2045,2043,2043,2032
2057,2053,2051,2034,2047,2052,2056,2020
2045,2051,2049,2032,2043,2060,2049,2024
2052,2050,2050,2034,2045,2067,2059,2024
2054,2050,2052,2034,2041,2066,2053,2026
2052,2044,2048,2040,2048,2050,2047,2025
2043,2040,2046,2043,2053,2013,2047,2029
2042,2044,2050,2047,2062,2015,2039,2034
2049,2052,2060,2050,2069,2039,2040,2032
2043,2053,2052,2052,2063,2060,2053,2030
2042,2048,2049,2047,2069,2079,2060,2035
2047,2045,2045,2039,2076,2088,2050,2033
2046,2040,2039,2040,2079,2092,2048,2040
2047,2044,2041,2042,2068,2073,2040,2043
2052,2041,2043,2044,2061,2062,2038,2046
2049,2037,2041,2036,2061,2056,2040,2051
2050,2034,2030,2033,2061,2049,2042,2060
2045,2036,2029,2034,2064,2038,2030,2062
2049,2038,2028,2040,2065,2038,2056,2069
2044,2036,2029,2037,2069,2036,2062,2069
2041,2037,2018,2034,2067,2042,2062,2080
2050,2034,2016,2032,2070,2038,2044,2077
2053,2040,2008,2031,2055,2040,2023,2072
2046,2029,2000,2032,2054,2046,2024,2063
2037,2030,2000,2030,2058,2055,2031,2063
2036,2033,2002,2031,2057,2056,2046,2066
2045,2036,2010,2033,2058,2058,2037,2064
2043,2045,2017,2036,2064,2059,2045,2056
2049,2052,2024,2042,2065,2067,2032,2059
2051,2055,2038,2046,2067,2076,2035,2056
2045,2055,2040,2048,2064,2071,2046,2049
2046,2050,2036,2042,2066,2070,2064,2040
2051,2043,2045,2038,2058,2059,2052,2037
2043,2042,2058,2038,2051,2070,2064,2035
2045,2046,2069,2040,2047,2092,2067,2034
2047,2051,2075,2041,2037,2092,2058,2020
2045,2048,2068,2041,2036,2081,2041,2024
2051,2044,2067,2042,2034,2076,2056,2014
2041,2047,2069,2034,2038,2047,2045,2013
2039,2035,2066,2034,2038,1998,2005,2013
2040,2044,2068,2035,2043,2001,1999,2021
2048,2056,2075,2041,2051,2021,2023,2026
2045,2048,2064,2046,2054,2040,2028,2032
2044,2046,2060,2051,2054,2042,2039,2035
2044,2050,2059,2043,2050,2048,2067,2035
2048,2045,2059,2047,2056,2050,2069,2039
2051,2056,2074,2051,2056,2061,2071,2038
2061,2063,2082,2056,2064,2064,2063,2045
2057,2063,2079,2059,2064,2071,2062,2049
2050,2057,2074,2056,2064,2077,2064,2056
2055,2054,2069,2055,2067,2079,2069,2065
2048,2047,2070,2053,2066,2082,2063,2070
2042,2049,2071,2045,2066,2085,2064,2078
2050,2049,2068,2045,2068,2082,2047,2076
2047,2046,2055,2044,2055,2068,2034,2066
2042,2031,2041,2038,2047,2051,2020,2062
2036,2031,2038,2032,2049,2043,2033,2059
2040,2042,2046,2037,2055,2066,2044,2065
2039,2039,2040,2033,2053,2074,2062,2064
2038,2037,2038,2040,2053,2066,2043,2062
2045,2042,2037,2029,2043,2062,2050,2055
2042,2040,2035,2034,2053,2051,2040,2055
2050,2043,2031,2034,2057,2058,2051,2057
2060,2049,2039,2037,2049,2022,2043,2054
2050,2049,2033,2039,2041,1961,2041,2037
2045,2049,2032,2043,2044,1951,2054,2031
2041,2044,2025,2034,2040,1978,2053,2037
2040,2043,2024,2031,2040,1994,2045,2037
2040,2044,2026,2037,2036,1998,2044,2030
2040,2046,2026,2040,2033,1994,2052,2024
2043,2048,2025,2040,2039,1998,2037,2030
2040,2046,2023,2035,2041,2026,2030,2026
2036,2044,2026,2034,2031,2049,2031,2021
2035,2048,2034,2037,2037,2093,2039,2024
2029,2047,2035,2033,2040,2121,2043,2019
2037,2047,2041,2039,2043,2132,2045,2020
2047,2054,2051,2041,2014,2155,2057,2030
2045,2055,2049,2034,1978,2177,2055,2027
2037,2056,2053,2028,1975,2140,2048,2036
2038,2060,2059,2034,1985,2058,2053,2047
2044,2064,2078,2044,2037,1959,2053,2060
2053,2070,2085,2055,2077,1962,2068,2065
2049,2065,2074,2057,2090,2051,2073,2077
2052,2052,2062,2046,2078,2105,2084,2078
2047,2052,2058,2041,2059,2109,2086,2076
2044,2049,2058,2036,2039,2106,2072,2079
2047,2048,2052,2034,2029,2088,2070,2088
2048,2050,2052,2032,2036,2063,2066,2085
2043,2047,2050,2043,2054,2088,2061,2083
2048,2045,2051,2046,2058,2106,2081,2082
2050,2056,2059,2052,2057,2138,2068,2075
2054,2056,2061,2059,2073,2156,2064,2069
2053,2065,2053,2060,2081,2159,2052,2057
2050,2059,2057,2065,2082,2095,2034,2036
2049,2054,2050,2054,2060,1956,1996,2032
2049,2048,2040,2039,2034,1904,1973,2019
2035,2048,2038,2037,2022,1933,1966,2015
2032,2043,2034,2043,2027,1941,1975,2017
2037,2044,2037,2038,2016,1950,1990,2020
2041,2042,2035,2039,2029,1977,2017,2021
2043,2046,2035,2043,2038,1993,2045,2018
2042,2045,2034,2041,2045,2012,2044,2015
2040,2042,2034,2041,2043,2013,2046,2017
2043,2041,2037,2047,2039,2019,2041,2016
2043,2037,2025,2043,2049,2025,2059,2021
2048,2039,2030,2044,2054,2037,2061,2035
2054,2044,2039,2055,2067,2052,2043,2040
2053,2051,2033,2050,2060,2052,2045,2032
2049,2046,2032,2051,2057,2054,2065,2029
2048,2043,2032,2048,2045,2032,2040,2027
2045,2046,2034,2049,2043,2016,2039,2029
2045,2049,2031,2048,2049,2023,2049,2035
2049,2052,2033,2052,2051,2049,2056,2040
2052,2046,2037,2056,2060,2059,2072,2053
2052,2037,2036,2051,2052,2045,2067,2054
2049,2044,2038,2047,2051,2050,2054,2056
2044,2041,2035,2043,2045,2052,2042,2047
2044,2044,2038,2046,2043,2055,2025,2047
2047,2038,2031,2048,2055,2052,2016,2051
2042,2039,2027,2037,2055,2045,2013,2059
2042,2036,2031,2032,2057,2042,2023,2069
2045,2037,2033,2042,2056,2048,2009,2073
2046,2045,2038,2045,2054,2043,2016,2065
2050,2046,2042,2040,2050,2034,2019,2064
2050,2044,2039,2042,2048,2029,2018,2055
2046,2044,2033,2042,2047,2026,2022,2049
2037,2046,2035,2044,2044,2024,2020,2045
2039,2044,2035,2045,2041,2034,2036,2042
2043,2053,2037,2043,2050,2032,2026,2036
2049,2054,2038,2038,2049,2034,2035,2032
2048,2053,2041,2044,2050,2033,2056,2028
2053,2058,2046,2051,2051,2033,2043,2031
2050,2062,2045,2055,2052,2034,2052,2028
2058,2063,2043,2050,2060,2045,2059,2034
2055,2062,2047,2056,2055,2037,2062,2041
2065,2058,2045,2060,2058,2022,2047,2033
2059,2050,2038,2048,2059,2015,2033,2034
2048,2049,2036,2055,2060,2020,2038,2036
2058,2056,2043,2058,2066,2028,2034,2035
2050,2054,2036,2055,2062,2030,2043,2031
2051,2058,2036,2053,2058,2043,2048,2033
2044,2054,2036,2053,2067,2055,2056,2031
2042,2051,2041,2058,2075,2076,2044,2035
2041,2050,2040,2053,2078,2099,2056,2038
2038,2049,2038,2056,2078,2105,2061,2039
2040,2046,2038,2059,2072,2098,2059,2035
2036,2033,2037,2055,2069,2094,2052,2038
2032,2033,2040,2051,2062,2093,2068,2044
2035,2033,2035,2045,2056,2080,2044,2048
2038,2035,2031,2048,2059,2083,2046,2055
2039,2043,2035,2051,2063,2088,2056,2066
2036,2040,2037,2052,2064,2072,2063,2064
2034,2036,2028,2049,2062,2050,2047,2061
2025,2035,2026,2047,2057,2044,2047,2065
2035,2051,2039,2050,2066,2038,2059,2064
2041,2047,2034,2055,2067,2047,2076,2063
2050,2060,2039,2048,2060,2069,2067,2068
2053,2060,2042,2045,2056,2067,2065,2064
2054,2058,2035,2040,2039,2051,2044,2061
2057,2058,2043,2039,2023,2032,2052,2054
2056,2063,2042,2041,2025,2035,2058,2050
2057,2064,2044,2043,2030,2036,2053,2047
2054,2062,2044,2039,2042,2034,2021,2052
2052,2057,2042,2036,2038,2028,2012,2040
2056,2053,2043,2042,2047,2033,2043,2038
2052,2056,2042,2040,2038,2030,2037,2036
2051,2055,2046,2043,2038,2023,2023,2028
2050,2053,2047,2037,2040,2032,2016,2024
2049,2051,2043,2040,2040,2036,2009,2022
2044,2050,2044,2036,2042,2046,2032,2030
2056,2058,2051,2044,2051,2052,2054,2026
2054,2058,2048,2044,2060,2043,2046,2038
2055,2056,2051,2046,2053,2041,2065,2041
2055,2060,2052,2053,2052,2040,2052,2032
2050,2050,2047,2049,2054,2040,2053,2036
2044,2052,2048,2046,2048,2042,2047,2033
2045,2046,2044,2047,2056,2055,2045,2040
2043,2049,2040,2050,2064,2061,2061,2044
2048,2051,2039,2050,2060,2061,2062,2057
2036,2044,2035,2049,2057,2057,2050,2059
2036,2044,2032,2048,2051,2060,2042,2053
2038,2038,2043,2046,2045,2060,2036,2060
2031,2038,2049,2045,2038,2055,2034,2059
2036,2042,2047,2037,2027,2056,2052,2071
2026,2035,2034,2033,2000,2040,2058,2076
2030,2033,2038,2031,1978,2022,2047,2076
2035,2042,2045,2027,1954,2000,2036,2068
2033,2037,2034,2014,1946,1989,2035,2055
2033,2037,2039,2024,1977,2009,2045,2055
2035,2037,2045,2029,2023,2045,2052,2048
2039,2036,2044,2040,2074,2078,2061,2046
2040,2044,2051,2061,2117,2108,2074,2050
2043,2046,2048,2063,2097,2108,2074,2040
2042,2043,2042,2042,2076,2079,2067,2042
2040,2045,2041,2046,2076,2081,2069,2047
2047,2052,2049,2054,2073,2078,2078,2056
2052,2053,2050,2049,2061,2077,2073,2043
2051,2050,2048,2042,2059,2072,2070,2043
2054,2056,2045,2038,2060,2068,2070,2049
2058,2062,2057,2040,2071,2069,2056,2038
2052,2057,2054,2038,2060,2077,2042,2034
2051,2053,2045,2030,2036,2058,2025,2020
2053,2060,2053,2030,2030,2024,2024,2032
2047,2062,2054,2032,2029,2040,2030,2026
2052,2065,2059,2043,2041,2031,2041,2032
2058,2071,2063,2049,2065,2037,2035,2042
2056,2069,2066,2054,2082,2051,2050,2052
2058,2074,2065,2061,2109,2059,2022,2058
2052,2061,2061,2056,2105,2072,2021,2054
2052,2056,2059,2058,2099,2089,2045,2059
2054,2056,2059,2052,2094,2099,2050,2060
2056,2059,2061,2054,2089,2106,2062,2070
2054,2064,2055,2048,2086,2112,2048,2071
2056,2052,2057,2041,2065,2076,2030,2070
2049,2052,2054,2030,2054,2054,2022,2062
2046,2056,2056,2037,2052,2026,2013,2068
2045,2054,2050,2037,2071,1990,2018,2076
2045,2050,2052,2047,2078,1989,2010,2077
2047,2044,2054,2043,2065,1991,2002,2066
2045,2047,2045,2029,2038,2002,2000,2060
2039,2050,2041,2023,2020,1986,2001,2047
2038,2052,2045,2020,2016,2006,2003,2041
2036,2055,2044,2029,2021,2020,2025,2046
2051,2059,2056,2032,2022,2023,2024,2047
2047,2062,2054,2033,2022,2026,2029,2035
2052,2063,2050,2033,2023,2012,2043,2034
2048,2052,2050,2031,2031,2019,2039,2026
2041,2047,2049,2037,2061,1996,2074,2032
2048,2054,2049,2048,2090,1976,2080,2041
2047,2052,2049,2043,2085,2008,2057,2028
2047,2052,2046,2042,2071,2019,2067,2031
2048,2052,2046,2047,2071,2034,2066,2034
2050,2040,2042,2037,2064,2034,2035,2022
2039,2032,2037,2024,2035,2046,2048,2017
2038,2032,2033,2013,2013,2058,2068,2012
2034,2034,2024,2015,2009,2083,2067,2015
2030,2030,2018,2003,2001,2096,2046,2017
2030,2040,2025,2012,2036,2077,2091,2028
2051,2048,2042,2046,2080,1993,2063,2032
2049,2050,2050,2048,2073,1973,2064,2027
2042,2039,2046,2037,2061,2017,2043,2028
2040,2041,2040,2028,2057,2066,2069,2036
2041,2042,2040,2024,2056,2106,2068,2038
2049,2044,2041,2019,2051,2108,2066,2046
2049,2039,2039,2025,2055,2088,2072,2057
2046,2044,2040,2024,2039,2091,2066,2059
2041,2041,2032,2016,2026,2094,2066,2061
2036,2038,2028,2016,2009,2098,2068,2062
2032,2037,2028,2007,2002,2082,2050,2058
2034,2037,2026,2005,2019,2042,2064,2070
2044,2050,2042,2036,2082,2020,2068,2076
2060,2056,2053,2048,2128,2037,2061,2081
2065,2068,2057,2051,2141,2072,2055,2073
2055,2062,2059,2043,2127,2083,2052,2060
2048,2058,2051,2037,2103,2083,2035,2055
2051,2054,2051,2030,2072,2057,2053,2050
2046,2064,2046,2031,2067,2022,2060,2041
2048,2062,2050,2027,2045,2011,2060,2033
2050,2062,2049,2026,2027,2021,2056,2033
2048,2060,2050,2017,2018,2051,2030,2032
2047,2052,2046,2019,2026,2094,2043,2030
2044,2042,2033,2012,2026,2120,2046,2026
2043,2048,2045,2018,2005,2108,2074,2032
2047,2044,2045,2009,1974,2017,2050,2029
2052,2035,2036,2001,1952,1921,2041,2014
2040,2026,2025,1990,1965,1958,2028,2010
2045,2040,2043,2028,2026,2027,2048,2024
2059,2058,2064,2063,2106,2055,2075,2030
2065,2057,2069,2069,2155,2068,2039,2031
2060,2053,2059,2066,2180,2088,2034,2037
2050,2048,2054,2064,2154,2092,2056,2036
2037,2039,2041,2050,2107,2092,2045,2032
2035,2031,2039,2041,2062,2077,2045,2042
2037,2030,2035,2036,2045,2053,2044,2042
2035,2033,2036,2034,2039,2020,2070,2048
2036,2025,2029,2031,2023,1999,2078,2066
2038,2022,2020,2012,1993,1993,2065,2068
2040,2023,2026,2020,2010,2020,2063,2072
2042,2031,2034,2022,2019,2028,2074,2079
2049,2036,2034,2028,2041,2054,2072,2081
2048,2030,2026,2028,2048,2077,2077,2079
2043,2031,2029,2031,2061,2085,2062,2074
2049,2041,2039,2041,2071,2083,2061,2077
2048,2045,2040,2034,2079,2096,2034,2061
2039,2046,2032,2032,2079,2088,2024,2047
2041,2048,2028,2036,2088,2068,2031,2039
2047,2052,2030,2037,2087,2051,2047,2031
2042,2049,2035,2035,2098,2049,2064,2027
2043,2046,2028,2029,2082,2041,2040,2026
2042,2048,2034,2022,2054,2021,2055,2033
2044,2044,2030,2025,2038,2006,2059,2028
2037,2042,2029,2019,2036,2007,2061,2028
2041,2037,2030,2005,2012,2005,2042,2013
2044,2038,2031,2010,2013,2036,2020,2024
2045,2044,2035,2008,2016,2043,2014,2027
2044,2046,2036,2010,2016,2049,2015,2027
2044,2035,2025,2006,2010,2048,2031,2028
2044,2036,2041,2010,2041,2070,2027,2031
2054,2055,2064,2033,2100,2073,2035,2045
2054,2058,2072,2030,2124,2067,2027,2035
2046,2053,2066,2032,2147,2066,2022,2031
2037,2050,2069,2043,2162,2057,2025,2034
2035,2043,2074,2051,2171,2069,2030,2034
2038,2044,2076,2054,2158,2070,2047,2047
2041,2046,2083,2039,2098,2084,2014,2047
2038,2040,2075,2028,2036,2082,2021,2053
2040,2040,2070,2012,1966,2071,2029,2053
2038,2037,2062,1991,1839,2035,2032,2054
2039,2040,2059,1985,1798,1972,2024,2066
2042,2038,2068,2018,1929,1960,2018,2063
2040,2038,2075,2045,2046,2001,2043,2076
2038,2043,2073,2060,2099,2056,2063,2089
2044,2044,2065,2061,2130,2084,2091,2090
2050,2046,2060,2054,2097,2091,2090,2094
2048,2052,2064,2045,2078,2127,2097,2079
2048,2048,2046,2030,2034,2123,2079,2068
2038,2042,2035,2012,2000,2100,2047,2055
2044,2044,2027,2009,1980,2068,2039,2041
2035,2039,2024,2007,1972,1964,2031,2035
2033,2049,2026,2024,2008,1902,2035,2028
2042,2056,2031,2032,2017,1928,2026,2036
2050,2059,2028,2035,2050,1987,2020,2027
2044,2047,2019,2031,2072,2061,2063,2019
2040,2045,2004,2025,2077,2090,2041,2020
2039,2040,2002,2029,2098,2073,2041,2020
2041,2042,2003,2028,2089,2045,2042,2025
2045,2047,2013,2030,2077,2057,2044,2025
2048,2059,2021,2037,2076,2104,2063,2021
2050,2063,2030,2037,2099,2118,2068,2016
2056,2062,2034,2044,2092,2112,2062,2019
2053,2069,2049,2062,2103,2112,2056,2025
2054,2072,2060,2070,2098,2095,2060,2026
2062,2059,2074,2080,2094,2097,2059,2022
2051,2048,2066,2074,2060,2086,2058,2027
2048,2045,2064,2050,2021,2035,2064,2020
2045,2043,2065,2049,1975,1994,2071,2021
2050,2046,2075,2053,1987,1960,2058,2030
2050,2053,2082,2075,2042,1923,2055,2050
2056,2067,2093,2099,2081,1940,2056,2058
2061,2065,2082,2095,2095,2000,2049,2063
2060,2058,2068,2084,2078,2011,2037,2055
2049,2047,2042,2064,2066,2007,2059,2056
2050,2046,2039,2059,2080,2016,2047,2068
2052,2051,2036,2067,2073,2025,2052,2052
2040,2036,2033,2054,2060,2012,2038,2051
2031,2036,2022,2037,2053,2009,2051,2060
2034,2035,2013,2018,2028,2007,2056,2056
2032,2029,2004,1997,2017,2014,2056,2058
2036,2032,2000,1973,2029,2049,2040,2048
2035,2040,2016,1970,2042,2080,2037,2046
2045,2059,2040,1973,2050,2081,2014,2052
2065,2082,2047,1982,2064,2094,2038,2055
2065,2081,2053,1993,2072,2136,2030,2057
2063,2082,2060,2009,2062,2185,2043,2056
2071,2074,2058,2017,2103,2179,2055,2058
2068,2075,2063,2024,2136,2108,2054,2057
2064,2076,2071,2021,2126,2031,2041,2050
2064,2064,2060,2014,2112,2065,2052,2040
2057,2066,2063,2014,2068,2098,2079,2028
2048,2066,2064,2005,1999,2093,2047,2018
2036,2051,2056,1988,1933,2064,2033,2020
2036,2048,2049,1978,1877,2005,2000,2017
2035,2060,2051,1954,1823,1960,2011,2015
2034,2061,2056,1971,1878,1958,2056,2025
2047,2072,2071,2016,2004,2012,2080,2038
2065,2080,2077,2041,2092,2076,2091,2049
2055,2077,2072,2050,2126,2092,2088,2055
2066,2067,2068,2053,2129,2081,2081,2052
2063,2069,2065,2050,2136,2081,2073,2044
2061,2063,2055,2037,2087,2049,2068,2038
2049,2056,2047,2034,2056,2034,2058,2033
2046,2049,2042,2021,2048,2049,2061,2040
2045,2047,2036,2017,2042,2051,2060,2048
2047,2045,2040,2017,2028,2022,2046,2059
2047,2045,2033,2008,2029,1994,2026,2054
2041,2048,2035,2010,2028,1986,2037,2052
2037,2044,2034,2014,2027,2022,2030,2049
2040,2048,2034,2022,2063,2068,2035,2064
2056,2062,2052,2050,2097,2101,2069,2076
2065,2065,2053,2060,2093,2096,2100,2077
2068,2056,2044,2055,2147,2103,2079,2074
2058,2051,2041,2060,2229,2106,2073,2074
2062,2050,2035,2060,2259,2101,2075,2074
2067,2054,2042,2064,2255,2087,2092,2073
2065,2063,2044,2056,2182,2058,2072,2050
2057,2054,2038,2036,2078,2046,2059,2039
2051,2054,2030,2018,1987,2042,2056,2021
2042,2052,2034,1992,1886,2038,2064,2023
2049,2052,2027,2001,1940,2085,2085,2031
2050,2053,2031,2020,2009,2144,2091,2032
2046,2042,2025,2013,1923,2133,2092,2033
2039,2039,2023,2020,1959,2097,2074,2023
2034,2029,2023,2044,2075,1993,2045,2021
2030,2028,2020,2047,2115,1918,2038,2023
2031,2037,2032,2059,2124,1952,2041,2020
2042,2042,2033,2057,2115,1982,2050,2028
2044,2048,2036,2059,2119,2004,2055,2030
2044,2056,2040,2054,2106,1993,2053,2030
2050,2046,2023,2051,2083,1996,2052,2035
2046,2042,2028,2044,2082,2001,2064,2039
2042,2039,2032,2026,2029,1998,2050,2040
2042,2050,2036,2010,1937,1993,2043,2041
2047,2048,2034,2000,1904,2018,2059,2040
2049,2052,2029,1998,1892,2043,2060,2047
2053,2056,2041,2007,1955,2074,2066,2056
2057,2056,2042,2011,2004,2106,2076,2071
2065,2060,2040,2019,2021,2100,2073,2075
2066,2056,2039,2010,2057,2089,2083,2081
2054,2051,2025,2009,2060,2134,2091,2071
2045,2060,2033,1998,1968,2115,2089,2061
2058,2071,2046,1999,1906,2103,2098,2071
2068,2090,2062,2014,1938,2107,2094,2075
2072,2084,2056,2032,2039,2072,2065,2076
2070,2081,2066,2051,2075,2042,2035,2078
2071,2085,2059,2042,1948,2034,2045,2059
2062,2073,2048,2026,1915,2026,2051,2058
2060,2068,2046,2024,1932,1981,2051,2054
2062,2058,2036,2036,1994,2020,2049,2050
2072,2065,2043,2043,2043,2040,2060,2051
2070,2066,2050,2044,2067,2023,2062,2048
2077,2069,2059,2034,2103,1983,2033,2038
2078,2061,2050,2018,2106,1976,2021,2030
2075,2056,2048,2023,2141,2012,2002,2020
2062,2054,2043,2031,2170,2061,2031,2011
2054,2039,2040,2035,2166,2073,2045,2013
2041,2036,2040,2052,2179,2091,2052,2010
2046,2040,2051,2066,2207,2100,2039,2014
2047,2035,2051,2069,2188,2155,2078,2030
2044,2035,2045,2070,2159,2150,2089,2040
2052,2043,2046,2057,2127,2086,2036,2046
2059,2040,2041,2055,2120,2078,2069,2052
2067,2039,2035,2039,2131,2064,2061,2061
2070,2029,2026,2032,2143,2030,2054,2044
2059,2015,2014,2022,2117,1995,2026,2024
2042,2009,2016,2006,2025,1960,2014,2008
2026,2019,2021,1999,1905,1964,2018,2016
2031,2028,2027,1983,1808,1992,2045,2021
2025,2026,2026,1983,1882,2031,2069,2032
2019,2033,2034,1997,1992,2053,2078,2039
2013,2045,2043,2020,2025,2046,2069,2047
2012,2041,2031,2042,2035,1977,2065,2058
2013,2038,2034,2072,2126,1969,2059,2057
2025,2049,2043,2097,2193,2000,2065,2062
2037,2062,2046,2098,2189,2020,2089,2059
2042,2056,2040,2072,2137,2023,2068,2050
2037,2044,2025,2057,2118,2035,2073,2045
2044,2049,2031,2056,2095,2056,2080,2051
2046,2044,2029,2045,2113,2040,2065,2043
2034,2028,2016,2028,2077,2025,2063,2031
2029,2036,2021,2015,2007,2005,2016,2023
2027,2026,2014,1999,1934,1968,2008,2013
2025,2013,2017,1992,1901,1982,2012,2008
2029,2018,2025,2002,1898,2018,2024,2019
2047,2039,2035,2034,1983,2065,2054,2017
2052,2049,2043,2047,2046,2086,2060,2005
2029,2053,2027,2035,2052,2050,2023,1987
2012,2026,2010,2016,2035,2005,2031,2014
2047,2029,2023,2012,2026,2011,2044,2029
2078,2052,2051,2026,2045,2042,2066,2032
2086,2075,2071,2040,2035,2052,2052,2026
2063,2074,2067,2046,2029,2040,2044,2014
2052,2071,2064,2052,2102,2062,2046,2015
2046,2066,2063,2071,2177,2095,2057,2014
2044,2061,2060,2079,2163,2120,2067,2021
2039,2051,2053,2066,2098,2139,2090,2024
2030,2058,2057,2056,2074,2111,2104,2032
2030,2061,2054,2050,2065,2094,2118,2038
2034,2061,2052,2055,2052,2078,2120,2060
2039,2062,2057,2060,2055,2056,2118,2066
2048,2062,2059,2073,2086,2078,2094,2072
2050,2055,2053,2076,2105,2120,2083,2080
2058,2058,2056,2072,2137,2145,2072,2076
2055,2050,2051,2062,2122,2161,2058,2071
2051,2037,2043,2065,2093,2154,2060,2080
2052,2043,2045,2054,2053,2085,2064,2076
2056,2040,2032,2032,1975,1984,2063,2075
2067,2038,2026,2029,1960,2036,2065,2071
2075,2043,2026,2024,1998,2058,2065,2052
2056,2028,2013,2006,1963,1986,2013,2023
2025,2012,1991,1980,1915,1987,2015,2004
2009,2011,2005,1991,1920,2011,2047,2002
2010,2020,2021,2004,1897,2017,2050,2013
2031,2024,2024,2000,1898,1997,2055,2024
2032,2026,2020,2002,1889,2003,2049,2028
2032,2040,2033,2002,1857,2044,2038,2033
2040,2049,2027,2004,1878,2064,2036,2018
2041,2048,2026,1996,1887,2032,2033,2016
2045,2044,2043,2035,1931,2004,2058,2022
2055,2048,2061,2102,2079,1965,2050,2028
2061,2051,2080,2146,2254,2004,2069,2032
2060,2045,2071,2181,2434,2088,2098,2037
2065,2022,2050,2171,2491,2149,2105,2060
2081,2014,2035,2141,2464,2159,2067,2052
2081,2010,2024,2107,2429,2105,2025,2032
2057,1999,2019,2077,2331,2044,2009,1996
2032,2005,2030,2049,2191,2019,2011,1981
2028,2036,2055,2059,2070,2034,2037,2010
2046,2031,2053,2063,2073,2040,2041,2028
2043,2025,2050,2061,2082,2055,2059,2035
2051,2048,2058,2039,1956,2066,2048,2039
2048,2071,2066,2035,1890,2082,2076,2055
2031,2065,2058,2021,1851,2095,2098,2072
2049,2056,2054,2046,1945,2075,2086,2084
2063,2037,2045,2050,1957,2002,2047,2079
2066,2010,2014,2025,1951,1992,2034,2092
2065,1991,1996,2015,1985,2028,2010,2092
2057,1991,1993,2028,2065,2095,2030,2044
2033,2000,1995,2032,2096,2141,2034,2043
2046,2028,2023,2041,2084,2096,2044,2046
2059,2050,2045,2034,2054,1980,2004,2029
2037,2060,2044,2041,2036,1978,1998,2022
2021,2058,2050,2047,2093,2000,2018,2026
2015,2063,2061,2055,2087,2041,2035,2032
2005,2075,2064,2061,2010,2058,2047,2035
2024,2076,2066,2044,1853,2040,2031,2038
2040,2083,2058,2036,1861,2005,2024,2038
2048,2084,2066,2032,1935,1994,2023,2035
2063,2096,2070,2047,2027,2010,2038,2020
2051,2085,2071,2049,2064,2004,2020,2020
2049,2071,2061,2029,2092,2002,2026,2020
2051,2054,2047,2019,2140,1985,2031,2026
2056,2033,2042,2033,2176,1997,2035,2027
2060,2034,2036,2047,2144,2024,2040,2037
2052,2031,2034,2041,2088,2036,2040,2042
2053,2034,2022,2028,2026,2030,2038,2038
2054,2034,2026,2014,1987,2017,2042,2021
2031,2030,2022,2031,2069,2025,2044,2014
2025,2024,2018,2060,2148,2039,2045,2036
2029,2017,2017,2098,2231,2077,2053,2044
2031,2029,2017,2084,2172,2072,2047,2028
2016,2027,2012,2042,2065,2077,2038,2037
2028,2036,2016,2035,2078,2097,2051,2050
2045,2043,2004,2045,2101,2139,2060,2055
2038,2037,1985,2051,2138,2158,2052,2060
2022,2032,1977,2072,2180,2162,2043,2039
2000,2031,1977,2083,2206,2134,2024,2055
2007,2030,1977,2069,2134,2056,1994,2050
2023,2024,1985,2049,2014,1983,2024,2059
2044,2034,2008,2065,2023,1999,2010,2045
2046,2045,2015,2063,2037,2012,1994,2034
2020,2023,2009,2045,1997,2027,2015,2028
2002,2011,2029,2052,1992,2064,2032,2019
2001,2014,2041,2072,2055,2104,2044,2036
2017,2025,2036,2091,2108,2118,2041,2045
2028,2036,2036,2106,2095,2096,2047,2047
2035,2036,2036,2110,2038,2052,2040,2032
2025,2038,2032,2123,2039,2041,2032,2019
2013,2021,2027,2117,1988,2037,2055,2028
2043,2032,2029,2112,1893,2022,2051,2024
2047,2030,2056,2123,1888,2011,2044,2016
2049,2049,2080,2113,1889,1989,2045,2018
2038,2061,2085,2098,1857,1952,2018,2015
2037,2047,2051,2062,1804,1885,1996,2037
2041,2017,2015,2028,1808,1906,2013,2051
2052,2006,2030,2032,1876,1991,2057,2042
2066,1996,2033,2010,1837,2047,2068,2057
2078,1989,2037,2026,1921,2080,2082,2085
2109,2003,2035,2030,1995,2106,2090,2078
2121,2005,2032,2047,2085,2089,2073,2068
2124,2020,2049,2065,2162,2088,2060,2036
2092,2036,2068,2066,2171,2129,2050,2026
2092,2040,2069,2040,2117,2144,2034,1995
2078,2036,2058,2017,2073,2177,2066,2016
2071,2035,2074,2038,2051,2163,2067,2033
2043,2027,2097,2038,1980,2044,2060,2072
2070,2040,2110,2020,1913,1918,2026,2092
2043,2029,2092,1975,1921,1898,2023,2066
1956,2019,2076,1953,1938,1899,2024,2058
1958,2069,2091,1984,2123,1993,2041,2072
2028,2126,2124,2050,2336,2058,2068,2062
2045,2136,2108,2056,2412,2082,2035,2045
2040,2131,2095,2051,2302,2062,2036,2059
2056,2143,2104,2056,2156,2100,2067,2094
2080,2135,2104,2062,2120,2129,2091,2092
2079,2115,2086,2047,1973,2134,2064,2053
2056,2080,2048,2011,1950,2117,2056,2023
2022,2042,2028,2046,2091,2060,2020,2004
2001,2027,2026,2055,2138,1985,2005,1981
1998,2042,2042,2058,2091,1977,2021,1998
2015,2060,2061,2053,2068,2016,2048,2014
2033,2068,2067,2053,2092,2060,2044,2027
2044,2070,2064,2058,2109,2080,2060,2033
2050,2058,2049,2060,2139,2069,2060,2030
2039,2038,2032,2060,2156,2017,2041,2025
2022,2011,2017,2046,2136,2019,2038,1997
2018,2004,2020,2056,2105,2032,2024,1990
2025,2016,2033,2056,2014,2031,2024,1981
2007,2021,2041,2052,1976,2031,2028,1986
2001,2021,2040,2057,1977,2032,2034,1987
2018,2035,2042,2061,2008,2028,2045,2009
2045,2050,2038,2073,2099,2001,2050,2033
2071,2069,2050,2127,2246,2019,2084,2044
2075,2091,2069,2169,2341,2049,2067,2016
2045,2082,2062,2166,2370,2038,2049,2001
2047,2072,2042,2153,2336,2021,2025,1990
2047,2052,2032,2149,2231,2023,2036,1997
2044,2031,2031,2149,2215,2079,2038,2017
2031,2037,2034,2152,2222,2112,2024,2018
2001,2017,2019,2122,2132,2096,2031,2014
1980,2004,2005,2090,2018,2090,2042,2021
1996,2007,2003,2088,2088,2113,2040,2038
2014,1999,1996,2060,2042,2108,2047,2041
2013,1990,1981,2025,1992,2099,2052,2055
2042,2012,2004,2025,2009,2117,2076,2057
2048,2015,2008,2016,1998,2094,2064,2063
2049,2002,2001,1997,1983,2070,2041,2025
2016,2000,2017,1985,1976,2063,2025,1997
2004,2007,2022,1984,1968,2034,2014,1978
1995,2023,2039,1997,1951,2057,1993,1987
2038,2068,2076,2015,1956,2043,2015,2012
2071,2088,2080,2040,1979,1967,2047,2040
2041,2080,2079,2052,1978,1965,2035,2024
2022,2087,2080,2039,1940,2007,2040,2024
2033,2088,2064,2062,2017,2039,2053,2024
2039,2085,2057,2101,2150,2071,2059,2032
2055,2089,2056,2124,2164,2113,2040,2025
2052,2086,2063,2112,2151,2138,2044,2024
2044,2085,2057,2101,2156,2108,2031,2007
2038,2069,2047,2084,2116,1977,2021,1987
2033,2061,2043,2059,2074,1940,2008,1991
2034,2064,2053,2061,2076,1999,2021,1998
2034,2064,2034,2051,2082,2042,2033,2009
2040,2052,2017,2052,2092,2052,2044,2008
2037,2047,2029,2052,2096,2045,2042,1996
2044,2065,2059,2068,2105,2039,2022,2001
2046,2083,2073,2078,2101,2025,2030,2006
2040,2064,2039,2056,2092,2026,2037,2028
2028,2046,2021,2038,2078,2041,2031,2029
2028,2043,2020,2028,2081,2061,2027,2032
2038,2049,2024,2035,2078,2065,2030,2042
2040,2060,2034,2039,2085,2071,2031,2041
2054,2069,2040,2038,2090,2065,2040,2033
2043,2065,2043,2035,2080,2050,2024,2028
2030,2052,2042,2029,2064,2037,2046,2036
2024,2036,2042,2033,2032,2021,2034,2038
2022,2023,2039,2025,2012,2004,2039,2034
2015,2025,2035,2028,2002,2006,2024,2029
2015,2030,2047,2049,2033,2032,2035,2037
2037,2050,2083,2077,2082,2058,2064,2040
2041,2064,2101,2096,2120,2071,2072,2035
2042,2059,2114,2106,2142,2081,2069,2032
2040,2056,2111,2120,2135,2070,2060,2029
2049,2068,2120,2115,2105,2069,2077,2025
2053,2068,2097,2098,2079,2079,2049,2014
2032,2051,2062,2079,2053,2078,2035,1996
2009,2050,2043,2070,2041,2085,2034,1993
2006,2046,2021,2061,2028,2045,2028,1996
2008,2044,2025,2079,2048,1989,2041,2002
2018,2055,2036,2081,2051,2002,1998,2006
2035,2079,2056,2071,2010,2006,2017,2003
2044,2072,2037,2038,1952,2022,2018,1994
2030,2053,2029,2019,1952,2025,2003,1982
2024,2048,2021,2008,2007,1989,2010,1992
2037,2069,2044,2038,2089,2023,2035,2013
2038,2077,2064,2065,2136,2065,2044,2025
2042,2073,2060,2061,2132,2101,2044,2017
2041,2074,2062,2070,2145,2141,2064,2022
2054,2084,2066,2082,2142,2129,2083,2034
2070,2094,2058,2077,2115,2066,2080,2049
2078,2087,2038,2080,2100,2042,2059,2049
2070,2077,2027,2095,2156,2085,2065,2051
2071,2079,2028,2089,2193,2099,2057,2032
2046,2069,2021,2073,2179,2122,2066,2019
2018,2049,2024,2064,2146,2157,2052,2027
2027,2042,2041,2064,2131,2179,2052,2049
2046,2058,2053,2060,2134,2181,2055,2044
2043,2054,2065,2058,2114,2093,2041,2037
2022,2032,2060,2042,2090,1969,2020,2024
2001,2020,2037,2023,2075,1983,2020,2034
2001,2030,2042,2039,2081,2029,2022,2039
2012,2055,2067,2062,2108,2050,2031,2041
2025,2066,2075,2081,2107,2049,2032,2043
2033,2066,2065,2079,2103,2052,2026,2038
2035,2054,2041,2072,2098,2026,2013,2031
2034,2045,2026,2077,2101,2015,2044,2031
2039,2043,2019,2088,2131,2042,2032,2030
2040,2041,2011,2102,2152,2054,2041,2028
2045,2031,2004,2089,2124,2053,2052,2038
2050,2015,1975,2068,2107,2036,2034,2035
2045,2004,1949,2044,2090,2024,2035,2028
2037,1994,1960,2046,2088,2021,2011,2002
2038,1998,1971,2050,2092,2022,2019,1982
2029,2017,1997,2060,2117,2038,2006,1993
2028,2031,2005,2068,2118,2044,2031,2007
2017,2039,2035,2088,2134,2058,2043,2015
2024,2063,2085,2111,2136,2072,2038,2018
2038,2079,2106,2114,2130,2080,2027,2023
2052,2080,2097,2100,2114,2077,2018,2021
2056,2065,2081,2084,2068,2072,2000,2008
2045,2051,2066,2075,2041,2072,2001,2013
2054,2055,2072,2084,2042,2043,2013,2020
2040,2054,2072,2082,2050,1992,2010,2028
2033,2050,2045,2090,2098,1981,2036,2051
2045,2046,2040,2098,2140,1996,2031,2059
2039,2054,2016,2077,2138,2017,2014,2053
2022,2045,1986,2068,2129,2060,2034,2051
2037,2058,1987,2056,2101,2106,2041,2053
2039,2072,2009,2055,2057,2125,2061,2047
2043,2057,2027,2044,2033,2122,2060,2047
2037,2034,2028,2031,2017,2109,2068,2043
2039,2057,2078,2067,2079,2095,2084,2049
2059,2070,2092,2094,2138,2076,2084,2050
2061,2082,2090,2097,2152,2047,2069,2053
2063,2079,2084,2106,2148,2060,2059,2053
2061,2064,2072,2103,2135,2064,2049,2035
2049,2051,2072,2098,2107,2057,2041,2019
2037,2045,2065,2094,2098,2056,2054,2014
2010,2051,2071,2092,2102,2062,2044,2011
1995,2049,2055,2081,2096,2064,2048,2014
1996,2049,2047,2077,2088,2053,2058,2017
2005,2055,2050,2067,2087,2053,2055,2029
2020,2078,2066,2070,2090,2067,2066,2025
2027,2094,2075,2052,2081,2081,2024,2015
2026,2090,2075,2028,2064,2080,2050,2019
2020,2073,2048,1997,2046,2056,2036,2016
2011,2060,2039,1977,2037,2033,2036,2007
2015,2067,2059,1989,2064,2012,2042,2018
2045,2075,2054,2006,2102,2027,2053,2030
2040,2071,2050,2014,2107,2045,2071,2033
2040,2061,2048,2024,2106,2057,2061,2027
2038,2063,2064,2046,2108,2070,2042,2032
2053,2068,2066,2051,2108,2070,2056,2031
2064,2089,2088,2076,2108,2077,2063,2041
2064,2078,2077,2078,2082,2071,2038,2039
2042,2052,2063,2066,2087,2071,2040,2027
2018,2046,2068,2060,2087,2056,2025,2017
2006,2055,2075,2066,2089,2052,2041,2041
2021,2069,2094,2082,2093,2055,2055,2083
2041,2072,2139,2108,2099,2050,2063,2089
2041,2071,2140,2123,2103,2047,2072,2082
2039,2067,2115,2121,2108,2063,2066,2074
2035,2062,2098,2119,2106,2075,2074,2063
2030,2060,2085,2107,2107,2070,2040,2054
2035,2075,2095,2113,2098,2067,2065,2062
2043,2075,2084,2108,2089,2038,2062,2058
2048,2070,2076,2105,2085,2024,2073,2046
2051,2074,2097,2124,2085,2029,2049,2041
2054,2088,2108,2126,2074,2057,2049,2040
2054,2080,2091,2118,2050,2094,2031,2026
2050,2073,2062,2109,2036,2069,2023,2019
2041,2061,2038,2102,2032,2029,2010,2002
2023,2042,2020,2099,2054,2004,1993,2014
2037,2052,2030,2128,2118,2008,2018,2025
2041,2066,2029,2125,2154,2054,2035,2020
2045,2073,2024,2101,2153,2092,2063,2018
2046,2069,2002,2073,2145,2100,2061,2026
2048,2064,1982,2045,2124,2074,2051,2029
2044,2052,1941,2016,2099,2055,2031,2016
2033,2016,1905,2005,2094,2047,2049,2022
2031,2005,1903,2021,2109,2049,2067,2036
2035,2013,1919,2029,2117,2049,2078,2028
2028,2002,1925,2031,2100,2029,2056,2027
2029,1999,1932,2021,2077,2012,2045,2020
2029,2009,1944,2018,2070,2024,2074,2024
2030,2000,1911,2016,2073,2046,2082,2032
2029,1991,1885,2012,2062,2064,2060,2032
2028,1980,1883,2009,2064,2074,2058,2025
2025,1983,1875,2028,2077,2096,2030,2028
2031,1996,1878,2044,2097,2098,2050,2037
2027,2005,1888,2042,2090,2070,2014,2043
2023,2003,1882,2036,2079,2046,2012,2045
2013,2005,1904,2030,2068,2040,2037,2045
2015,2014,1939,2023,2068,2054,2040,2056
2026,2027,1981,2023,2070,2058,2043,2056
2023,2028,1989,2014,2068,2053,2024,2044
2026,2046,2013,2017,2073,2042,2030,2050
2040,2067,2044,2030,2079,2021,2036,2053
2043,2063,2066,2034,2074,2017,2031,2060
2054,2072,2073,2042,2088,2037,2042,2054
2053,2092,2084,2059,2096,2043,2041,2054
2060,2108,2096,2060,2098,2051,2061,2056
2068,2122,2094,2072,2099,2049,2056,2042
2068,2130,2102,2078,2101,2052,2062,2044
2083,2131,2102,2076,2093,2050,2072,2053
2078,2111,2076,2069,2083,2041,2077,2047
2068,2104,2069,2071,2073,2037,2065,2033
2060,2090,2074,2075,2057,2017,2043,2025
2041,2069,2075,2080,2057,2025,2038,2017
2043,2067,2092,2098,2074,2041,2050,2017
2038,2059,2106,2101,2081,2043,2055,2017
2034,2049,2093,2095,2077,2039,2052,2021
2035,2051,2082,2092,2080,2054,2067,2023
2046,2059,2074,2099,2097,2063,2070,2034
2057,2060,2060,2099,2091,2059,2062,2034
2052,2051,2019,2088,2078,2059,2075,2030
2049,2036,1962,2067,2078,2059,2073,2033
2053,2029,1946,2068,2078,2061,2077,2034
2048,2022,1933,2074,2072,2056,2076,2034
2040,2014,1909,2068,2064,2043,2073,2034
2032,2000,1874,2065,2064,2040,2068,2032
2024,1988,1884,2062,2055,2042,2055,2042
2028,1975,1876,2069,2068,2043,2046,2041
2025,1971,1869,2066,2071,2053,2066,2040
2027,1973,1880,2073,2078,2054,2064,2043
2040,1994,1919,2090,2085,2049,2063,2052
2036,2012,1940,2105,2082,2043,2041,2043
2030,2012,1943,2096,2071,2029,2039,2051
2025,2010,1954,2091,2060,2026,2046,2051
2032,2027,1982,2098,2066,2028,2039,2056
2034,2043,1997,2099,2057,2026,2042,2051
2041,2058,2010,2105,2061,2029,2049,2044
2040,2074,2011,2100,2066,2025,2049,2048
2045,2074,2001,2082,2060,1996,2030,2045
2045,2078,2006,2080,2060,1998,2037,2041
2047,2080,2026,2070,2051,2000,2031,2041
2036,2073,2051,2047,2029,1997,2038,2034
2031,2084,2071,2023,2018,1993,2030,2037
2027,2077,2076,1984,2002,1982,2006,2037
2032,2082,2091,1962,2009,1999,2024,2039
2041,2106,2134,1985,2022,2021,2041,2041
2058,2129,2176,2028,2047,2050,2062,2052
2071,2148,2207,2061,2071,2075,2084,2053
2075,2146,2221,2078,2083,2073,2070,2052
2071,2137,2208,2083,2080,2066,2069,2050
2075,2133,2206,2085,2081,2074,2073,2055
2074,2122,2183,2084,2081,2073,2063,2059
2075,2126,2178,2088,2078,2067,2078,2055
2069,2125,2153,2084,2074,2075,2070,2058
2065,2111,2126,2077,2063,2063,2060,2052
2058,2096,2106,2070,2050,2046,2045,2052
2057,2087,2086,2072,2047,2033,2054,2048
2057,2086,2077,2089,2055,2003,2047,2069
2060,2092,2100,2110,2061,1964,2034,2084
2068,2104,2118,2136,2067,1964,2044,2092
2076,2105,2118,2147,2074,1991,2052,2096
2080,2111,2125,2156,2085,2033,2055,2088
2078,2108,2126,2161,2080,2059,2046,2075
2083,2106,2120,2153,2083,2042,2042,2076
2069,2097,2101,2140,2080,2010,2042,2071
2062,2092,2107,2141,2075,2022,2058,2078
2061,2105,2121,2144,2080,2037,2063,2084
2066,2108,2125,2150,2083,2066,2042,2079
2064,2088,2114,2144,2088,2092,2043,2076
2064,2093,2125,2139,2078,2118,2042,2072
2070,2097,2127,2123,2063,2089,2045,2068
2071,2097,2126,2112,2045,2061,2042,2074
2071,2097,2125,2110,2056,2060,2064,2073
2069,2111,2139,2111,2070,2061,2053,2059
2068,2117,2120,2094,2074,2036,2053,2055
2071,2112,2098,2070,2070,2039,2041,2049
2069,2109,2075,2052,2057,2041,2056,2044
2068,2097,2071,2038,2053,2045,2045,2037
2050,2094,2076,2041,2049,2022,2046,2036
2059,2089,2080,2049,2058,2051,2068,2056
2066,2092,2078,2051,2059,2063,2067,2055
2065,2094,2089,2060,2066,2057,2059,2049
2066,2099,2114,2072,2064,2055,2072,2052
2080,2113,2142,2084,2063,2058,2069,2063
2086,2127,2159,2089,2062,2078,2069,2066
2082,2126,2155,2083,2063,2076,2072,2059
2071,2111,2146,2066,2043,2038,2057,2050
2068,2105,2132,2043,2002,2024,2067,2050
2069,2099,2127,2033,1982,2031,2056,2052
2065,2100,2109,2025,1969,1970,2037,2055
2063,2092,2101,2010,1973,1894,2010,2062
2067,2100,2105,2035,2034,1940,2021,2085
2086,2113,2114,2068,2084,2022,2041,2099
2088,2114,2107,2075,2105,2057,2038,2097
2072,2092,2090,2071,2114,2083,2040,2091
2060,2074,2065,2046,2084,2083,2036,2082
2047,2057,2040,2040,2066,2085,2035,2079
2045,2053,2041,2042,2069,2101,2041,2088
2060,2069,2052,2049,2072,2104,2049,2089
2063,2076,2078,2067,2070,2096,2052,2094
2067,2085,2080,2078,2067,2074,2063,2086
2076,2078,2072,2075,2047,2048,2057,2081
2069,2073,2058,2067,2042,2040,2052,2072
2064,2071,2039,2059,2041,2048,2041,2063
2063,2072,2039,2073,2053,2061,2063,2062
2059,2068,2033,2079,2039,2074,2081,2057
2052,2069,2025,2068,2032,2084,2082,2037
2049,2071,2023,2062,2031,2091,2095,2037
2050,2064,2013,2060,2019,2068,2046,2034
2052,2054,2004,2064,2021,2039,2026,2032
2056,2052,2018,2073,2057,2037,2034,2033
2055,2048,2012,2067,2079,2057,2040,2033
2044,2029,1997,2055,2081,2082,2060,2037
2045,2034,2004,2054,2081,2085,2053,2040
2054,2044,2018,2071,2079,2070,2050,2040
2046,2050,2028,2073,2071,2037,2023,2028
2050,2049,2034,2088,2058,2024,2026,2034
2044,2057,2051,2096,2060,2028,2038,2040
2050,2059,2063,2099,2058,2037,2036,2050
2057,2061,2062,2088,2059,2043,2028,2055
2057,2062,2059,2081,2056,2055,2065,2069
2058,2060,2058,2078,2058,2057,2065,2077
2053,2058,2049,2074,2059,2053,2050,2076
2054,2056,2056,2088,2046,2043,2051,2077
2047,2069,2083,2102,2059,2040,2060,2078
2055,2086,2117,2112,2061,2048,2054,2092
2069,2094,2132,2104,2061,2046,2061,2101
2075,2089,2130,2094,2046,2040,2052,2098
2058,2073,2108,2073,2039,2026,2047,2098
2051,2067,2091,2053,2032,2030,2069,2105
2064,2071,2086,2045,2025,2036,2067,2105
2075,2065,2067,2035,2018,2038,2059,2100
2076,2062,2056,2029,2013,2037,2065,2093
2082,2059,2055,2027,2020,2037,2057,2082
2079,2064,2062,2040,2023,2036,2057,2064
2066,2069,2066,2053,2022,2033,2034,2048
2053,2057,2063,2062,2028,2029,2040,2056
2061,2073,2094,2080,2042,2052,2056,2060
2063,2091,2108,2097,2055,2070,2064,2061
2069,2087,2111,2095,2059,2065,2075,2064
2065,2074,2082,2088,2064,2068,2067,2060
2060,2069,2070,2077,2060,2071,2068,2064
2058,2064,2064,2084,2064,2068,2066,2062
2065,2062,2061,2078,2047,2057,2046,2048
2056,2043,2054,2079,2043,2057,2028,2037
2052,2037,2053,2078,2046,2107,2063,2039
2059,2043,2062,2086,2045,2116,2066,2045
2063,2041,2054,2086,2034,2086,2049,2037
2059,2034,2034,2091,2023,2048,2039,2044
2058,2031,2026,2099,2026,2001,2034,2057
2060,2025,2008,2085,2026,1981,2040,2054
2052,2010,1978,2081,2030,1988,2039,2043
2061,2035,1988,2094,2047,2031,2059,2040
2059,2050,1993,2103,2059,2049,2056,2045
2038,2042,1995,2099,2062,2044,2056,2052
2045,2056,1997,2093,2040,2051,2060,2061
2055,2046,1992,2074,2003,2040,2039,2066
2049,2032,1989,2060,1976,2022,2037,2072
2050,2039,1990,2049,1967,2009,2040,2073
2041,2037,1989,2022,1970,1971,2009,2068
2025,2017,1979,2015,2019,1965,2016,2066
2031,2022,1983,2012,2069,2016,2045,2080
2038,2025,1987,1983,2071,2050,2049,2075
2041,2032,2016,1955,2030,2049,2057,2072
2041,2054,2045,1943,1996,2040,2052,2078
2055,2069,2084,1967,1988,2042,2066,2079
2060,2081,2128,1989,2000,2051,2064,2091
2078,2104,2157,2015,2019,2067,2084,2095
2089,2118,2172,2039,2027,2065,2081,2092
2090,2118,2144,2038,2024,2057,2083,2091
2081,2101,2117,2029,2021,2053,2072,2084
2078,2087,2099,2032,2029,2052,2057,2076
2078,2087,2094,2031,2017,2049,2049,2070
2080,2083,2088,2030,2004,2066,2055,2051
2049,2074,2085,2029,2000,2071,2049,2051
2049,2072,2085,2033,1993,2061,2054,2061
2059,2069,2073,2029,1993,2041,2028,2055
2057,2065,2066,2053,2004,1999,2051,2066
2069,2073,2073,2075,2041,2006,2073,2071
2066,2074,2074,2067,2042,2016,2069,2058
2069,2064,2068,2051,2033,2025,2053,2066
2068,2072,2073,2046,2032,2026,2072,2070
2067,2075,2072,2057,2034,2030,2065,2071
2067,2074,2074,2060,2030,2038,2046,2069
2064,2067,2073,2058,2027,2051,2074,2066
2060,2063,2070,2056,2030,2058,2089,2079
2068,2065,2063,2054,2024,2069,2078,2092
2067,2064,2061,2056,2019,2081,2058,2099
2067,2061,2055,2056,2021,2090,2061,2096
2065,2063,2057,2049,2022,2091,2064,2107
2064,2073,2063,2053,2023,2087,2051,2107
2065,2069,2064,2052,1996,2050,2053,2092
2056,2050,2051,2025,1944,2010,2021,2078
2040,2036,2041,2006,1907,2024,2016,2080
2041,2042,2045,2010,1908,2044,2024,2088
2059,2059,2062,2026,1932,2021,2020,2105
2061,2070,2059,2037,2002,2018,2024,2096
2057,2054,2045,2037,2058,2077,2033,2082
2055,2058,2052,2049,2076,2108,2043,2074
2067,2057,2057,2049,2071,2105,2034,2076
2066,2054,2052,2046,2062,2052,2035,2090
2077,2064,2053,2059,2066,1992,2057,2079
2075,2068,2061,2054,2041,1987,2063,2075
2074,2068,2047,2049,2018,1995,2050,2062
2068,2072,2050,2039,2005,2001,2035,2064
2076,2071,2044,2036,1998,2001,2033,2056
2068,2063,2034,2022,1991,1993,2040,2057
2075,2061,2031,2029,1984,1971,2025,2065
2073,2061,2029,2025,1968,1962,1989,2062
2066,2054,2033,2041,1966,1969,2002,2060
2057,2044,2036,2042,1978,1991,2019,2060
2059,2041,2027,2035,1995,2020,2047,2052
2060,2038,2027,2041,2026,2045,2039,2051
2066,2046,2036,2062,2060,2058,2060,2054
2062,2047,2037,2057,2063,2063,2045,2059
2065,2045,2053,2061,2060,2069,2044,2070
2070,2053,2057,2052,2055,2064,2060,2069
2060,2032,2032,2038,2042,2052,2069,2070
2051,2025,2027,2036,2034,2045,2073,2071
2044,2024,2025,2037,2027,2037,2068,2075
2037,2020,2020,2035,2023,2044,2065,2086
2041,2022,2018,2038,2020,2045,2082,2101
2050,2025,2014,2042,2019,2046,2086,2109
2054,2020,2010,2034,2019,2058,2077,2098
2059,2024,2001,2035,2022,2058,2076,2100
2049,2023,1991,2031,2030,2056,2069,2095
2049,2021,2003,2030,2029,2060,2066,2093
2047,2016,2003,2023,2022,2043,2053,2088
2041,2011,2008,2025,2017,2000,2034,2083
2041,2019,2019,2030,2012,1982,2026,2086
2048,2030,2021,2022,2007,1986,2036,2078
2052,2032,2024,2008,1997,2014,2050,2069
2049,2026,2025,1999,1995,2027,2065,2053
2050,2021,2043,2012,1993,2032,2063,2054
2046,2039,2077,2022,2005,2039,2065,2064
2059,2067,2109,2044,2018,2042,2064,2075
2072,2088,2120,2056,2026,2045,2066,2076
2073,2095,2117,2051,2017,2045,2074,2071
2074,2083,2118,2046,2027,2042,2063,2072
2067,2076,2098,2041,2006,2040,2078,2076
2070,2064,2080,2024,2002,2029,2063,2073
2058,2043,2062,2020,1997,2031,2069,2070
2062,2042,2063,2026,2007,2032,2070,2074
2072,2057,2060,2036,2006,2033,2064,2069
2071,2061,2064,2037,2017,2027,2070,2068
2072,2066,2072,2040,2009,2024,2060,2074
2076,2058,2068,2036,2003,2009,2057,2086
2068,2054,2062,2035,1988,1996,2041,2086
2057,2045,2058,2027,1967,1988,2053,2085
2057,2049,2062,2027,1953,1975,2022,2089
2057,2050,2062,2022,1944,1979,2021,2085
2055,2051,2053,2022,1968,1996,2037,2086
2060,2054,2066,2040,2014,2022,2063,2102
2060,2057,2067,2058,2033,2029,2065,2108
2069,2058,2084,2060,2052,2041,2075,2126
2073,2066,2084,2068,2036,2056,2065,2124
2069,2063,2078,2066,2014,2063,2073,2115
2061,2047,2064,2060,1997,2072,2048,2108
2065,2047,2064,2068,1999,2084,2079,2110
2073,2064,2077,2078,2000,2082,2068,2101
2063,2057,2072,2074,1989,2069,2052,2092
2045,2048,2065,2068,1994,2045,2054,2090
2040,2046,2068,2087,2007,2043,2053,2088
2054,2052,2083,2096,2029,2058,2066,2090
2062,2056,2085,2114,2046,2077,2077,2086
2066,2055,2067,2119,2058,2076,2070,2073
2052,2048,2059,2123,2060,2066,2050,2070
2052,2042,2057,2116,2061,2073,2057,2063
2053,2046,2059,2112,2062,2067,2038,2069
2057,2038,2044,2086,2053,2061,2041,2071
2056,2020,2018,2053,2025,2056,2051,2069
2048,2002,1997,2040,2024,2056,2067,2067
2052,2010,1999,2034,2015,2044,2054,2057
2052,2027,1998,2037,2023,2038,2056,2053
2044,2027,2002,2043,2010,2012,2047,2051
2048,2018,1989,2036,1991,1991,2047,2060
2040,2009,1978,2020,1985,1986,2046,2057
2033,2005,1966,2004,1998,2000,2047,2050
2028,2010,1955,1985,1998,2002,2043,2057
2025,2017,1981,1985,2000,2011,2038,2064
2036,2036,2031,1992,1991,2028,2044,2072
2054,2062,2059,2019,2017,2041,2073,2076
2054,2061,2083,2035,2050,2055,2071,2084
2064,2068,2085,2043,2057,2058,2066,2093
2059,2064,2069,2039,2056,2058,2062,2094
2053,2059,2039,2031,2030,2039,2045,2093
2046,2045,2009,2002,1989,2014,2052,2096
2045,2038,1996,1984,1945,1996,2048,2102
2050,2042,1994,1968,1913,1975,2035,2093
2037,2032,1981,1952,1940,1976,2047,2098
2046,2033,2004,1981,2007,1998,2055,2116
2067,2057,2043,2024,2056,2008,2047,2111
2068,2061,2064,2023,2031,2004,2053,2112
2063,2057,2073,2010,2008,2005,2066,2096
2061,2053,2090,1991,1997,2008,2037,2092
2056,2056,2109,1987,1987,2011,2049,2084
2062,2065,2120,1989,1996,2018,2074,2083
2068,2069,2112,1995,2006,2018,2064,2078
2074,2072,2102,2008,2014,2023,2063,2081
2069,2070,2088,2018,2012,2016,2039,2068
2072,2070,2081,2030,2014,2027,2051,2070
2071,2070,2079,2031,2022,2041,2054,2078
2078,2062,2073,2038,2028,2054,2043,2069
2070,2062,2071,2035,2032,2092,2058,2066
2062,2060,2070,2038,2031,2079,2067,2059
2058,2049,2069,2041,2023,2065,2060,2063
2066,2054,2064,2055,2020,2054,2065,2061
2071,2067,2073,2071,2031,2047,2068,2068
2071,2065,2070,2082,2037,2046,2070,2068
2065,2056,2076,2098,2037,2058,2070,2070
2072,2059,2072,2100,2059,2074,2062,2073
2077,2057,2077,2100,2066,2069,2068,2068
2071,2055,2075,2100,2070,2073,2040,2061
2061,2054,2063,2086,2055,2065,2038,2074
2063,2055,2057,2089,2048,2027,2045,2084
2068,2056,2040,2079,2066,2032,2053,2089
2071,2055,2044,2082,2098,2071,2063,2099
2074,2067,2060,2081,2086,2111,2081,2106
2074,2069,2074,2080,2070,2154,2094,2110
2073,2072,2076,2081,2017,2169,2082,2119
2067,2064,2062,2050,1882,2115,2077,2115
2057,2049,2042,1996,1818,1987,2058,2107
2054,2037,2034,1959,1858,1926,2045,2104
2054,2041,2040,1956,1917,1971,2056,2102
2054,2045,2052,1975,1981,2015,2056,2103
2058,2046,2047,1977,2001,2029,2053,2097
2058,2045,2041,1986,1978,2032,2045,2098
2060,2055,2057,2001,1929,2050,2043,2085
2064,2052,2060,2025,1968,2097,2038,2072
2058,2048,2058,2049,2033,2142,2062,2067
2066,2053,2064,2081,2036,2153,2047,2061
2062,2049,2077,2104,2033,2113,2061,2060
2068,2047,2075,2128,2021,2060,2048,2067
2062,2047,2069,2129,2020,2022,2047,2059
2055,2049,2071,2141,2072,2000,2044,2063
2068,2053,2081,2167,2134,2002,2046,2059
2066,2055,2082,2169,2143,2003,2046,2053
2070,2046,2059,2134,2107,2016,2068,2055
2062,2040,2043,2102,2110,2030,2074,2065
2072,2047,2033,2042,2038,2022,2093,2059
2064,2034,2008,1998,2018,2012,2086,2054
2054,2024,1993,1981,2069,2009,2070,2053
2051,2017,1977,1973,2125,2036,2055,2055
2045,2017,1967,1969,2117,2050,2059,2049
2047,2012,1962,1935,1980,2037,2064,2052
2041,2006,1956,1929,1921,2036,2048,2058
2042,2006,1965,1948,1954,2037,2039,2057
2040,2008,1977,1966,1976,2046,2059,2065
2048,2008,1988,1980,1994,2040,2056,2067
2046,2012,2012,2004,2015,2035,2052,2070
2041,2019,2026,2013,2008,2046,2049,2074
2043,2013,2014,2009,2003,2057,2058,2068
2029,2000,2012,2011,1985,2035,2050,2066
2028,1994,2022,2014,1973,2014,2041,2067
2018,1994,2039,2033,1976,2013,2031,2073
2034,2009,2052,2028,1989,2033,2051,2073
2036,2018,2059,2038,1994,2043,2059,2074
2048,2035,2068,2064,2016,2066,2074,2080
2063,2048,2067,2070,2022,2072,2071,2084
2068,2059,2056,2068,2031,2045,2058,2097
2079,2067,2059,2080,2085,2062,2069,2091
2082,2075,2061,2090,2150,2083,2074,2094
2071,2064,2051,2089,2158,2109,2080,2078
2067,2064,2053,2086,2164,2142,2096,2072
2071,2062,2055,2071,2157,2158,2101,2072
2067,2056,2045,2053,2125,2153,2091,2063
2072,2055,2061,2056,2110,2146,2075,2055
2065,2052,2047,2051,2074,2150,2062,2046
2054,2035,2021,2015,2018,2137,2031,2032
2042,2017,1996,1964,1935,2086,2012,2018
2036,2000,1984,1954,1892,2043,2013,2018
2041,2014,2003,1974,1863,1961,2029,2039
2057,2029,2026,2032,1941,1879,2040,2059
2077,2032,2019,2045,1952,1936,2056,2063
2075,2034,2021,2047,1953,2006,2088,2071
2077,2036,2019,2072,2002,2051,2089,2069
2078,2030,2022,2087,1989,2057,2096,2067
2073,2024,2035,2088,1972,2060,2080,2068
2077,2020,2044,2075,1939,2043,2066,2057
2059,2020,2054,2095,2031,2022,2050,2057
2040,2010,2050,2093,2068,1998,2031,2053
2029,1998,2041,2073,2049,2001,2031,2062
2032,2005,2049,2074,2036,2016,2042,2068
2039,2027,2078,2051,2018,2035,2044,2072
2039,2044,2072,2041,2001,2058,2063,2080
2041,2057,2089,2041,2023,2059,2049,2080
2051,2070,2112,2058,2015,2060,2061,2089
2055,2091,2123,2047,2029,2077,2077,2098
2065,2091,2118,2037,2090,2092,2077,2099
2078,2091,2104,2018,2095,2083,2056,2084
2069,2069,2077,1992,2031,2053,2036,2068
2052,2052,2044,1967,1995,2013,2038,2056
2041,2040,2026,1973,2079,2012,2047,2046
2042,2035,2013,1998,2159,2049,2062,2063
2063,2042,2026,2019,2168,2064,2064,2064
2068,2047,2029,2035,2142,2053,2038,2066
2074,2045,2031,2038,2127,2023,2046,2068
2070,2042,2023,2021,2080,2009,2055,2064
2064,2039,2016,2004,1968,2027,2059,2062
2062,2050,2012,1994,1897,2045,2074,2056
2071,2048,2005,1993,1941,2068,2068,2052
2069,2039,2015,2012,1901,2081,2042,2050
2060,2038,2030,2013,1828,2097,2034,2046
2059,2038,2035,2025,1932,2124,2059,2049
2057,2036,2028,2016,1924,2086,2035,2039
2053,2018,2003,1993,1876,2017,2017,2029
2039,2012,1992,2012,1945,2014,2021,2028
2051,2008,1993,2034,1986,2004,2037,2040
2061,2028,1998,2049,2003,2000,2050,2056
2062,2047,2011,2066,2038,2005,2042,2053
2065,2056,2023,2068,2048,1998,2042,2057
2058,2049,2017,2062,2089,2022,2027,2058
2052,2040,2013,2067,2082,2031,2038,2050
2044,2037,2023,2059,2089,2031,2035,2065
2041,2036,2036,2047,2098,2018,2033,2063
2030,2031,2031,2026,2086,2028,2037,2069
2037,2029,2042,1996,2066,2042,2042,2082
2045,2036,2060,1985,2036,2033,2058,2080
2039,2022,2046,1976,2020,2037,2034,2085
2030,2008,2041,1971,2019,2040,2030,2076
2038,2015,2061,1991,2005,2043,2022,2080
2054,2043,2112,2013,1994,2049,2043,2081
2076,2061,2148,2016,1963,2043,2036,2091
2064,2057,2137,2015,1977,2036,2036,2080
2058,2058,2125,2024,1997,2048,2039,2080
2058,2054,2106,2021,1978,2059,2039,2070
2070,2063,2102,2033,1987,2070,2056,2075
2090,2078,2113,2059,2051,2080,2051,2082
2090,2077,2108,2055,2082,2065,2046,2062
2075,2070,2082,2027,2003,2031,2025,2048
2052,2047,2067,2025,1974,2056,2038,2040
2048,2045,2069,2043,1979,2086,2040,2041
2053,2049,2069,2042,2013,2104,2052,2037
2051,2044,2058,2040,2082,2108,2035,2045
2041,2039,2075,2044,2131,2116,2019,2048
2053,2054,2085,2031,2079,2101,2029,2058
2061,2057,2091,2027,2083,2101,2041,2057
2055,2052,2083,2035,2126,2118,2047,2050
2056,2056,2085,2050,2062,2101,2034,2057
2064,2058,2081,2061,2050,2084,2048,2066
2066,2059,2078,2065,2042,2042,2034,2073
2066,2059,2074,2044,1962,1962,2029,2080
2064,2049,2064,2037,1921,1916,2040,2054
2053,2055,2069,2049,1949,1940,2025,2062
2057,2054,2071,2070,2029,1980,2047,2067
2051,2046,2076,2091,2081,2024,2056,2074
2052,2044,2077,2107,2124,2058,2052,2072
2042,2035,2071,2093,2101,2070,2064,2080
2049,2021,2061,2083,2080,2069,2073,2095
2058,2024,2054,2062,2031,2048,2069,2096
2060,2017,2044,2049,2053,2023,2027,2092
2062,2025,2046,2034,1977,2000,2023,2085
2070,2036,2061,2042,1996,2016,2025,2086
2060,2046,2060,2053,2046,2037,2022,2082
2059,2049,2065,2066,2099,2033,2005,2080
2064,2057,2067,2060,2071,2013,2020,2071
2057,2039,2056,2026,1978,1988,2009,2049
2040,2040,2051,1995,1897,1966,1988,2029
2037,2040,2039,1972,1882,1962,2007,2023
2032,2034,2042,1984,1950,1978,2006,2020
2029,2035,2049,2031,2056,2030,2020,2034
2032,2046,2066,2064,2076,2067,2042,2041
2046,2059,2075,2071,2065,2079,2045,2045
2047,2056,2069,2067,2071,2074,2039,2043
2055,2054,2067,2060,2029,2082,2056,2041
2050,2056,2066,2042,1969,2073,2051,2032
2041,2048,2056,2027,1944,2064,2024,2022
2037,2038,2048,2014,1934,2044,2017,2034
2044,2044,2058,2025,1985,2011,2030,2053
2056,2055,2072,2055,2079,2046,2084,2068
2064,2061,2071,2070,2151,2074,2072,2056
2050,2049,2055,2049,2107,2081,2063,2045
2049,2036,2043,2032,2052,2063,2055,2039
2044,2031,2034,2032,2069,2072,2053,2039
2031,2028,2035,2052,2123,2086,2047,2050
2040,2024,2041,2078,2268,2076,2058,2056
2040,2036,2042,2091,2317,2077,2066,2067
2043,2033,2041,2058,2195,2078,2051,2068
2046,2031,2034,2035,2023,2090,2030,2075
2048,2034,2040,2060,2090,2136,2066,2082
2048,2041,2043,2080,2127,2162,2059,2091
2052,2041,2051,2067,2102,2150,2047,2084
2041,2037,2041,2045,2050,2136,2036,2076
2033,2035,2044,2039,1965,2086,2030,2068
2039,2036,2035,2004,1876,1961,2001,2052
2028,2025,2036,1972,1806,1897,1988,2042
2032,2026,2037,1983,1777,1933,1989,2046
2045,2048,2060,2012,1828,1990,2043,2068
2061,2057,2066,2031,1969,2051,2060,2064
2060,2055,2064,2034,2027,2044,2066,2075
2065,2054,2064,2060,2080,2001,2033,2072
2058,2054,2073,2059,2054,1984,2029,2054
2060,2053,2057,2047,2036,2006,2029,2041
2057,2052,2049,2032,2050,2028,2032,2038
2054,2047,2044,2048,2095,2044,2045,2046
2059,2046,2041,2050,2094,2046,2062,2044
2063,2047,2043,2041,2067,2031,2057,2046
2055,2041,2037,2030,2021,1976,2018,2033
2046,2030,2039,2022,1978,1953,2023,2026
2041,2028,2042,2038,2048,1965,2028,2036
2050,2042,2050,2046,2040,1986,2027,2045
2056,2047,2050,2043,2000,1999,2025,2046
2057,2049,2053,2041,2014,2008,2020,2042
2054,2040,2046,2042,2055,1992,2007,2037
2045,2033,2044,2047,2114,1990,2015,2046
2041,2037,2052,2069,2168,2034,2044,2057
2043,2045,2058,2081,2141,2077,2073,2059
2049,2043,2052,2077,2067,2097,2074,2070
2056,2054,2054,2080,2036,2093,2073,2070
2052,2047,2051,2081,2060,2099,2078,2076
2043,2039,2041,2074,2020,2090,2073,2079
2038,2030,2035,2056,1885,2031,2040,2077
2037,2031,2028,2032,1821,1976,2016,2081
2032,2025,2017,2021,1962,1974,2015,2078
2026,2009,2006,2028,2083,2005,2035,2077
2025,2009,1998,2041,2146,2041,2059,2079
2034,2026,2012,2058,2184,2102,2044,2073
2037,2035,2009,2059,2155,2099,2043,2069
2043,2031,2011,2033,2049,2073,2053,2065
2054,2035,2015,2022,1959,2061,2009,2049
2053,2025,2014,2003,1888,2052,2026,2033
2044,2025,2012,1976,1790,2029,2001,2022
2028,2026,2032,1979,1821,2033,2009,2029
2038,2046,2049,2008,1910,2021,2031,2036
2045,2061,2064,2027,2017,2026,2056,2042
2048,2056,2054,2046,2123,2082,2064,2035
2043,2051,2046,2058,2172,2128,2061,2034
2047,2045,2054,2073,2179,2152,2041,2031
2045,2046,2056,2071,2148,2159,2050,2030
2041,2043,2064,2067,2143,2181,2033,2026
2043,2035,2059,2053,2118,2169,2035,2024
2042,2030,2056,2039,2077,2125,2024,2026
2046,2040,2065,2057,2090,2028,2004,2033
2051,2037,2046,2061,2059,2020,2029,2030
2046,2031,2030,2055,2040,2067,2053,2026
2047,2027,2028,2054,2040,2105,2043,2026
2045,2036,2050,2052,2037,2106,2051,2041
2050,2043,2054,2044,2015,2064,2045,2046
2052,2051,2071,2043,2001,2040,2028,2061
2055,2052,2067,2058,1954,1984,2044,2074
2052,2054,2063,2044,1903,1953,2047,2073
2040,2036,2048,2034,1928,2002,2050,2070
2036,2036,2049,2035,1968,2045,2078,2081
2045,2045,2048,2022,1914,2051,2085,2086
2056,2045,2048,2024,1989,2045,2061,2092
2057,2050,2054,2010,1937,2024,2041,2081
2040,2034,2036,2002,1960,2039,2058,2071
2029,2028,2032,2025,2082,2090,2064,2072
2039,2032,2034,2045,2175,2086,2038,2073
2038,2028,2026,2043,2174,2057,2014,2064
2030,2027,2043,2043,2105,2068,2039,2061
2043,2026,2040,2043,2060,2098,2045,2052
2039,2030,2037,2047,2055,2078,2042,2052
2045,2033,2036,2050,2034,2045,2041,2044
2038,2033,2037,2051,2050,2032,2028,2041
2032,2038,2050,2068,2139,2001,2044,2029
2033,2040,2061,2080,2193,1999,2060,2034
2042,2047,2067,2066,2159,2027,2061,2040
2046,2043,2059,2051,2046,2044,2060,2035
2050,2045,2058,2045,2036,2040,2072,2031
2054,2042,2067,2058,2033,2045,2061,2025
2048,2041,2056,2051,2053,2037,2056,2019
2037,2025,2043,2053,2045,2016,2041,2011
2027,2018,2043,2046,2037,2021,2043,2018
2026,2022,2035,2058,2049,2027,2039,2027
2028,2011,2023,2042,2044,2026,2049,2029
2033,2019,2025,2039,2039,2026,2048,2030
2042,2034,2032,2052,2082,2046,2062,2038
2046,2037,2043,2068,2113,2057,2057,2043
2042,2039,2052,2069,2078,2047,2066,2055
2042,2040,2062,2063,2059,2037,2039,2060
2042,2044,2070,2079,2080,2046,2065,2068
2043,2043,2055,2070,2090,2058,2059,2070
2038,2034,2040,2059,2074,2052,2053,2067
2030,2037,2039,2052,2069,2060,2043,2070
2033,2033,2036,2051,2086,2064,2069,2064
2038,2040,2043,2047,2096,2070,2066,2073
2041,2044,2045,2029,2075,2066,2052,2074
2042,2039,2037,2023,2058,2055,2067,2079
2036,2036,2033,2013,2023,2046,2065,2082
2050,2046,2069,2032,2047,2051,2083,2092
2054,2059,2102,2051,2073,2069,2073,2084
2058,2062,2098,2053,2077,2066,2065,2075
2055,2049,2084,2033,2022,2026,2061,2065
2058,2057,2090,2015,1977,2001,2057,2060
2062,2069,2108,2027,1978,2006,2059,2048
2063,2076,2119,2033,1961,2017,2052,2047
2061,2066,2093,2050,1989,2036,2059,2037
2056,2054,2066,2064,2017,2050,2057,2028
2047,2045,2051,2062,2011,2059,2052,2025
2041,2037,2052,2067,2038,2053,2043,2029
2036,2042,2047,2047,2021,2043,2046,2041
2040,2041,2042,2026,2008,2026,2047,2033
2041,2051,2048,2010,1953,1990,2020,2031
2042,2050,2031,1987,1972,1965,2012,2028
2047,2043,2025,2001,2095,2018,2020,2037
2054,2052,2034,2042,2225,2069,2052,2033
2060,2051,2045,2067,2300,2107,2062,2037
2052,2053,2053,2056,2246,2113,2064,2038
2057,2059,2059,2044,2152,2091,2058,2044
2058,2062,2067,2040,2072,2080,2060,2052
2059,2068,2075,2028,1921,2011,2040,2049
2058,2068,2064,1995,1810,1967,2047,2050
2059,2065,2060,2018,1906,1995,2059,2050
2056,2063,2060,2052,1971,2022,2043,2060
2052,2058,2058,2052,2001,2035,2041,2064
2055,2051,2055,2065,2048,2042,2042,2066
2039,2038,2057,2081,2121,2042,2031,2061
2035,2036,2062,2078,2135,2036,2027,2065
2035,2041,2056,2070,2083,2025,2015,2056
2029,2028,2046,2050,2046,2037,2021,2058
2034,2030,2038,2049,2042,2048,2013,2060
2035,2037,2050,2047,2002,2016,2011,2056
2034,2037,2053,2069,2045,1989,2008,2060
2041,2052,2072,2099,2126,2010,2032,2062
2053,2057,2060,2063,2015,2011,2018,2057
2046,2043,2035,2019,1893,2034,2013,2050
2043,2037,2032,2017,1948,2050,2012,2040
2049,2045,2024,2013,1940,2044,2022,2030
2040,2032,2013,2000,1971,2052,2009,2023
2037,2029,1995,1991,2017,2072,2008,2015
2024,2023,1990,1993,2051,2102,2025,2021
2034,2029,2007,1987,2018,2123,2028,2022
2032,2038,2025,1987,1995,2103,2023,2031
2038,2048,2037,1990,2013,2092,2009,2030
2042,2040,2035,1995,2026,2054,2009,2031
2036,2028,2030,2017,2080,2027,2014,2043
2043,2045,2051,2049,2137,2018,2058,2049
2052,2055,2062,2065,2127,2068,2082,2043
2053,2053,2064,2074,2122,2126,2102,2049
2055,2060,2068,2070,2110,2129,2102,2041
2063,2063,2073,2047,2041,2074,2054,2035
2050,2053,2058,2006,1955,2016,2029,2026
2039,2036,2043,1999,1886,2013,2037,2029
2038,2040,2053,2049,1945,2040,2021,2039
2042,2037,2047,2065,2047,2050,2033,2037
2042,2032,2048,2061,2081,2028,2021,2048
2041,2029,2038,2048,2080,2006,2032,2047
2038,2039,2041,2064,2137,2033,2042,2047
2034,2047,2044,2068,2177,2052,2026,2051
2036,2035,2038,2044,2169,2083,2011,2057
2025,2026,2030,2024,2154,2095,2017,2063
2020,2030,2038,2031,2179,2118,2006,2069
2026,2041,2066,2058,2175,2142,2054,2075
2044,2059,2075,2072,2135,2139,2065,2064
2046,2058,2068,2042,1966,2089,2052,2049
2038,2049,2056,2011,1854,2052,2043,2047
2035,2046,2051,2027,1944,2056,2054,2054
2040,2049,2049,2056,2061,2052,2065,2050
2045,2042,2046,2056,2096,2027,2048,2046
2044,2037,2048,2059,2069,1993,2058,2030
2044,2032,2048,2047,2052,1970,2057,2033
2044,2034,2043,2040,2053,1998,2055,2032
2049,2028,2042,2038,2048,2042,2050,2032
2052,2034,2049,2043,2020,2051,2037,2016
2047,2049,2052,2047,2017,2038,2047,2010
2041,2052,2057,2058,2060,2069,2065,2012
2039,2060,2063,2059,2102,2104,2074,2019
2045,2050,2059,2059,2130,2090,2060,2011
2034,2038,2048,2051,2109,2070,2046,2006
2023,2037,2040,2053,2112,2068,2067,2006
2024,2036,2031,2044,2108,2052,2072,2021
2024,2028,2027,2042,2070,2055,2068,2035
2037,2031,2031,2056,2064,2060,2068,2043
2044,2038,2039,2072,2097,2063,2069,2039
2039,2038,2040,2070,2114,2045,2060,2038
2032,2037,2037,2053,2080,2032,2036,2036
2037,2035,2029,2051,2046,1997,2007,2041
2036,2034,2028,2033,1998,1942,2013,2048
2034,2030,2031,2048,1954,1968,2046,2054
2039,2034,2033,2046,1964,2021,2047,2054
2038,2028,2036,2051,1976,2057,2075,2056
2037,2030,2041,2044,1894,2043,2060,2062
2043,2042,2050,2042,1944,2042,2053,2063
2043,2042,2055,2063,2020,2065,2054,2059
2046,2049,2060,2056,1946,2055,2053,2069
2050,2056,2058,2057,1948,2026,2020,2057
2046,2052,2060,2043,1928,2009,2059,2058
2044,2044,2046,2041,1928,2017,2061,2065
2044,2044,2043,2048,1971,2045,2056,2055
2052,2048,2040,2051,2002,2076,2056,2041
2042,2044,2031,2051,2009,2094,2040,2022
2041,2041,2026,2042,2033,2155,2042,2017
2029,2031,2012,2005,2029,2144,2030,2013
2030,2026,2016,2013,2115,2119,2047,2010
2035,2031,2022,2048,2209,2056,2032,2009
2033,2028,2028,2069,2203,1960,2028,2000
2028,2018,2024,2058,2179,1972,2035,2011
2030,2012,2005,2031,2111,1996,2023,2005
2023,2008,1996,2014,2044,1990,2022,1992
2013,2002,1996,2008,2017,1995,2021,1995
2030,2025,2024,2022,2029,2030,2042,2002
2039,2045,2054,2047,2040,2058,2045,2002
2032,2042,2052,2055,2055,2077,2042,2001
2029,2032,2049,2051,2066,2107,2033,2016
2032,2030,2046,2051,2072,2147,2042,2026
2028,2033,2043,2050,2071,2146,2029,2022
2029,2036,2036,2053,2070,2090,2014,2016
2034,2035,2050,2052,2065,2023,2013,2026
2042,2039,2059,2049,2057,2013,2021,2025
2033,2038,2056,2046,2048,2032,2022,2025
2023,2038,2061,2051,2054,2043,2037,2030
2034,2036,2069,2049,2047,2048,2025,2039
2027,2029,2060,2054,2045,2056,2049,2047
2035,2035,2050,2055,2043,2070,2057,2063
2041,2045,2053,2066,2054,2076,2035,2068
2038,2039,2038,2066,2059,2071,2024,2067
2038,2034,2027,2061,2052,2074,2031,2059
2037,2034,2023,2046,2013,2086,2017,2048
2033,2027,2017,2024,1968,2072,2046,2042
2028,2026,2011,2017,1946,2077,2040,2040
2029,2030,2012,2020,1941,2050,2046,2027
2033,2041,2020,2043,1986,1987,2046,2028
2047,2053,2031,2059,2056,1971,2039,2032
2048,2046,2027,2054,2044,1957,2029,2029
2045,2049,2037,2045,2041,1997,2030,2025
2045,2050,2028,2037,2035,2033,2016,2016
2040,2040,2019,2027,2035,2069,2043,2010
2045,2049,2041,2053,2080,2070,2010,2006
2047,2049,2042,2059,2089,2074,2033,2004
2040,2037,2038,2047,2080,2076,2056,2005
2036,2038,2028,2040,2073,2061,2016,2005
2037,2036,2033,2043,2058,2049,2056,2009
2040,2039,2043,2052,2055,2053,2039,2005
2041,2054,2048,2050,2046,2049,2054,2013
2031,2045,2046,2044,2061,2040,2062,2008
2028,2041,2044,2034,2046,2019,2024,2019
2032,2036,2037,2027,2024,2000,2011,2026
2031,2041,2042,2024,1993,1970,2018,2030
2041,2045,2055,2021,1965,1968,2019,2035
2039,2060,2053,2032,1987,2016,2047,2039
2036,2047,2046,2028,2030,2069,2065,2043
2036,2048,2048,2053,2091,2072,2093,2062
2042,2055,2055,2067,2055,2080,2094,2080
2044,2048,2050,2062,2038,2110,2092,2075
2037,2048,2050,2066,2117,2139,2080,2075
2040,2043,2052,2063,2116,2126,2077,2062
2034,2038,2048,2070,2102,2094,2045,2060
2020,2027,2038,2067,2106,2074,2030,2057
2013,2032,2051,2069,2125,2071,2056,2058
2035,2050,2078,2070,2108,2055,2049,2060
2038,2054,2083,2067,2093,2049,2064,2050
2039,2047,2072,2066,2085,2050,2037,2053
2038,2050,2079,2069,2089,2061,2034,2051
2038,2055,2073,2069,2104,2074,2012,2047
2034,2049,2068,2065,2068,2066,2023,2034
2036,2046,2066,2057,1993,2049,2014,2028
2034,2040,2064,2046,1957,2034,2031,2013
2033,2037,2060,2044,1963,2029,2007,2012
2037,2037,2064,2052,2025,2035,1992,2017
2028,2036,2065,2052,2078,2038,1989,2018
2030,2036,2072,2056,2092,2046,2005,2015
2038,2042,2082,2064,2104,2060,2031,2027
2047,2053,2083,2067,2089,2052,2043,2020
2040,2046,2072,2057,2056,2025,2037,2012
2031,2041,2066,2056,2045,2018,2016,2014
2034,2040,2062,2048,2047,2021,2020,2017
2029,2039,2054,2047,2053,2027,2021,2017
2029,2032,2049,2049,2047,2028,2024,2020
2035,2039,2047,2053,2044,2023,2050,2022
2033,2040,2044,2043,2037,2019,2028,2026
2039,2037,2048,2047,2043,2031,2033,2034
2043,2037,2061,2058,2063,2047,2059,2037
2040,2043,2065,2078,2073,2046,2048,2045
2042,2042,2060,2085,2076,2048,2057,2051
2044,2041,2051,2087,2082,2054,2077,2052
2038,2037,2043,2080,2082,2059,2065,2053
2026,2030,2039,2082,2081,2088,2047,2052
2023,2018,2026,2078,2084,2108,2037,2054
2017,2016,2011,2067,2062,2093,2032,2042
2017,2008,1992,2054,2033,2070,2019,2040
2018,2012,1991,2063,2026,2044,2009,2045
2032,2028,2002,2068,2008,2035,2051,2053
2038,2043,2020,2076,2010,2048,2024,2049
2043,2058,2026,2077,2006,2076,2034,2050
2041,2053,2028,2070,2001,2080,2047,2039
2036,2038,2023,2054,1991,2064,2014,2037
2027,2030,2038,2033,1966,2028,2004,2023
2028,2034,2054,2033,2025,2024,2025,2031
2037,2043,2068,2045,2103,2064,2056,2034
2037,2051,2080,2058,2196,2083,2057,2028
2044,2052,2087,2048,2215,2077,2018,2024
2042,2059,2086,2012,2174,2060,2032,2016
2040,2060,2078,2010,2097,2065,2030,2020
2043,2052,2073,2002,1951,2060,2022,2015
2040,2050,2074,1993,1854,2043,2010,2014
2028,2048,2070,2003,1906,2029,2009,2016
2031,2047,2072,2030,1966,2023,2039,2039
2044,2065,2087,2056,1984,2017,2030,2036
2046,2067,2086,2068,2030,2067,2038,2025
2046,2067,2088,2073,2067,2133,2057,2015
2046,2064,2074,2060,2056,2159,2053,2011
2044,2070,2067,2033,2012,2156,2071,2020
2048,2073,2068,2033,2073,2113,2079,2036
2050,2071,2064,2035,2107,2086,2069,2050
2054,2070,2057,2002,1961,2055,2063,2054
2049,2063,2054,1998,2055,2061,2063,2064
2058,2054,2055,2018,2109,2059,2077,2052
2053,2042,2035,2015,2057,2057,2066,2036
2043,2030,2030,2013,2069,2073,2060,2035
2035,2027,2027,2031,2099,2086,2054,2038
2027,2024,2027,2040,2099,2071,2054,2038
2027,2024,2022,2033,2095,2036,2041,2041
2031,2026,2034,2032,2088,2021,2044,2051
2041,2041,2035,2032,2068,2004,2047,2054
2036,2046,2041,2037,2056,1989,2023,2041
2029,2047,2039,2035,2047,1990,2046,2034
2029,2051,2033,2038,2036,2014,2040,2036
2024,2047,2032,2035,2026,2049,2038,2026
2029,2041,2026,2028,2016,2068,2041,2025
2033,2039,2025,2031,2018,2081,2044,2023
2040,2042,2030,2033,2041,2082,2050,2033
2041,2044,2035,2042,2068,2074,2071,2033
2047,2038,2031,2048,2084,2077,2045,2028
2040,2032,2029,2041,2076,2076,2069,2025
2040,2030,2025,2039,2068,2068,2067,2018
2038,2029,2024,2044,2057,2043,2076,2015
2035,2020,2018,2043,2045,2034,2051,2010
2032,2009,2016,2043,2046,2043,2067,2011
2028,2006,2025,2050,2042,2054,2066,2013
2038,2024,2029,2053,2044,2057,2065,2013
2034,2024,2033,2051,2043,2064,2073,2019
2030,2012,2024,2045,2047,2066,2048,2007
2019,2010,2008,2050,2053,2077,2054,2000
2026,2011,2020,2073,2076,2075,2054,2013
2028,2023,2039,2085,2076,2031,2042,2011
2034,2030,2039,2086,2071,2003,2015,2018
2025,2019,2029,2081,2064,2007,2016,2020
2021,2005,2015,2064,2040,2004,2019,2022
2020,2005,2011,2059,2032,2023,2004,2040
2029,2012,2018,2044,2033,2031,2009,2040
2025,2032,2033,2051,2037,2029,2000,2036
2028,2042,2049,2064,2046,2034,2011,2043
2031,2054,2053,2064,2052,2038,2013,2042
2034,2041,2046,2054,2052,2042,2027,2047
2030,2036,2032,2042,2031,2059,2031,2047
2041,2037,2028,2038,1995,2062,2036,2034
2025,2037,2025,2024,1967,2060,2025,2034
2026,2040,2027,2005,1957,2054,2021,2025
2037,2042,2022,1992,1958,2021,2043,2036
2043,2049,2031,2001,2026,2016,2031,2042
2046,2054,2042,2012,2077,2028,2049,2030
2050,2054,2039,2007,2083,2050,2039,2031
2050,2058,2040,2004,2073,2067,2065,2030
2045,2056,2046,2017,2065,2072,2063,2028
2042,2061,2060,2024,2064,2061,2055,2032
2044,2073,2065,2021,2060,2053,2041,2031
2047,2074,2066,2033,2061,2049,2061,2032
2056,2073,2060,2039,2126,2070,2064,2033
2055,2074,2069,2055,2157,2089,2060,2032
2059,2067,2067,2050,2163,2074,2067,2023
2052,2050,2064,2047,2171,2060,2051,2020
2043,2050,2068,2051,2151,2062,2058,2021
2042,2048,2072,2050,2112,2050,2052,2024
2044,2046,2063,2046,2088,2034,2056,2024
2039,2056,2068,2040,2001,1994,2041,2030
2049,2062,2070,2028,1867,1983,2059,2034
2053,2064,2069,2031,1907,2021,2072,2056
2055,2056,2061,2036,1986,2048,2088,2048
2049,2050,2054,2041,2004,2045,2069,2041
2049,2051,2046,2038,2007,2032,2060,2050
2043,2047,2027,2029,2013,2043,2066,2045
2042,2041,2026,2032,2030,2068,2052,2047
2035,2038,2018,2027,2026,2126,2061,2053
2030,2032,2023,2033,2044,2121,2045,2055
2040,2039,2030,2043,2064,2072,2031,2055
2033,2037,2024,2047,2086,2041,2031,2059
2037,2041,2029,2055,2099,2033,2017,2059
2043,2055,2036,2064,2100,2032,2034,2062
2040,2050,2038,2057,2072,2030,2024,2058
2042,2056,2048,2051,2020,2030,2020,2051
2040,2054,2052,2053,1998,2030,2026,2054
2045,2052,2048,2050,1999,2042,2034,2042
2036,2043,2046,2040,2012,2080,2033,2026
2032,2041,2038,2049,2066,2112,2047,2025
2037,2045,2050,2063,2090,2124,2048,2028
2044,2041,2053,2062,2093,2121,2064,2022
2033,2048,2064,2069,2095,2120,2049,2019
2042,2045,2064,2069,2098,2119,2060,2026
2048,2039,2047,2062,2072,2117,2074,2026
2044,2036,2033,2051,2049,2108,2078,2025
2042,2033,2028,2041,2051,2090,2068,2020
2034,2022,2009,2032,2048,2080,2074,2012
2032,2016,1994,2023,2042,2074,2048,2008
2032,2012,1995,2013,2037,2089,2035,2006
2032,2013,1983,2006,2010,2092,2034,1997
2031,2032,2001,2019,1989,2074,2039,1997
2034,2037,2018,2015,1965,2029,2029,2001
2036,2034,1998,2007,1932,1933,2014,2008
2030,2027,1980,1997,1942,1939,2024,2020
2030,2026,1975,2020,2031,2040,2058,2023
2040,2034,1970,2040,2080,2148,2062,2030
2039,2026,1961,2039,2064,2145,2049,2036
2036,2024,1972,2033,2032,2006,2022,2052
2040,2045,2000,2052,2023,1893,2021,2067
2051,2057,2025,2060,1989,1930,2029,2074
2055,2069,2047,2067,1998,1994,2032,2074
2052,2072,2060,2069,1961,2008,2044,2072
2048,2066,2077,2056,1920,1996,2038,2069
2033,2053,2077,2052,1933,2010,2041,2058
2036,2048,2094,2066,2021,2036,2048,2053
2033,2051,2111,2076,2066,2062,2054,2055
2037,2056,2116,2069,2100,2088,2063,2064
2044,2066,2129,2065,2112,2106,2077,2063
2047,2075,2135,2033,2040,2093,2063,2051
2052,2078,2128,1989,1957,2046,2048,2042
2054,2076,2125,1992,1988,2039,2045,2036
2055,2082,2118,2030,2077,2063,2054,2028
2056,2075,2111,2069,2123,2085,2058,2022
2056,2071,2089,2080,2141,2118,2063,2020
2041,2058,2080,2078,2112,2119,2050,2007
2043,2053,2077,2059,2058,2114,2047,2020
2042,2048,2072,2046,2022,2127,2038,2013
2044,2049,2066,2048,2011,2138,2025,2014
2045,2051,2066,2060,2038,2119,2036,2012
2041,2041,2065,2056,2068,1999,2018,2006
2028,2038,2058,2064,2095,1983,2030,2011
2035,2045,2069,2064,2114,2005,2030,2008
2034,2043,2062,2053,2126,2014,2016,2009
2029,2036,2051,2044,2150,2023,2016,2010
2032,2038,2056,2062,2165,2040,2038,2017
2036,2044,2061,2078,2151,2054,2036,2017
2047,2051,2061,2077,2141,2058,2031,2022
2048,2044,2062,2065,2066,2066,2045,2025
2041,2044,2048,2032,1910,2062,2042,2024
2037,2040,2046,2037,1934,2055,2045,2030
2039,2042,2050,2043,1965,2026,2028,2032
2035,2039,2049,2046,2008,1993,2002,2051
2043,2043,2050,2056,2047,1994,2021,2054
2048,2047,2051,2062,2061,2015,2005,2055
2046,2045,2044,2048,2056,2037,2015,2065
2041,2038,2040,2045,2060,2050,2018,2056
2037,2025,2037,2040,2050,2055,2024,2052
2039,2038,2040,2037,2059,2050,2046,2060
2043,2041,2039,2041,2084,2057,2030,2059
2049,2049,2043,2048,2091,2071,2029,2062
2043,2048,2042,2053,2087,2066,2028,2054
2044,2041,2042,2050,2087,2074,2034,2041
2045,2045,2056,2068,2087,2067,2033,2034
2038,2047,2065,2058,2060,2058,2048,2029
2041,2043,2058,2048,2047,2052,2029,2029
2035,2042,2057,2053,2069,2068,2054,2035
2046,2043,2048,2049,2021,2060,2062,2036
2044,2045,2038,2040,1982,2060,2056,2027
2046,2037,2031,2045,1982,2072,2052,2026
2039,2042,2029,2052,1993,2071,2032,2024
2042,2040,2024,2051,1999,2036,2047,2028
2046,2045,2016,2035,1942,2000,2036,2023
2039,2036,2008,2035,1957,2026,2053,2012
2031,2035,2007,2047,2038,2089,2074,2027
2054,2053,2020,2064,2069,2110,2088,2032
2052,2051,2016,2042,2002,2090,2069,2027
2051,2053,2011,2014,1957,2039,2043,2036
2057,2061,2032,2022,1980,1981,2060,2044
2057,2062,2040,2025,2003,1986,2047,2040
2053,2056,2037,2019,2023,2030,2056,2024
2044,2047,2019,2007,2065,2086,2072,2020
2042,2035,2018,2011,2104,2108,2057,2022
2049,2032,2034,2017,2104,2118,2064,2030
2044,2046,2055,2027,2085,2089,2072,2044
2051,2057,2072,2062,2134,2045,2064,2064
2056,2063,2076,2072,2137,2044,2055,2062
2046,2054,2067,2068,2117,2045,2041,2054
2045,2047,2065,2062,2067,2026,2054,2060
2036,2041,2062,2057,2039,2015,2041,2061
2041,2038,2059,2052,2044,2024,2040,2056
2038,2039,2057,2054,2045,2057,2059,2061
2042,2043,2055,2052,2086,2076,2074,2052
2044,2041,2053,2064,2119,2061,2068,2056
2049,2051,2054,2058,2096,2020,2060,2052
2054,2049,2050,2058,2090,1995,2055,2049
2055,2055,2055,2053,2107,2005,2053,2046
2049,2054,2054,2051,2090,2016,2060,2039
2046,2051,2058,2042,2089,2028,2067,2039
2052,2050,2060,2044,2080,2035,2052,2034
2051,2038,2046,2031,1973,2022,2022,2022
2037,2029,2039,2025,1941,2017,2022,2021
2031,2029,2037,2021,2017,2051,2049,2024
2023,2027,2041,2019,2048,2065,2043,2036
2030,2031,2038,2016,2033,2040,2041,2026
2038,2037,2045,2025,2066,2046,2052,2032
2043,2048,2051,2051,2133,2089,2070,2041
2059,2059,2062,2082,2179,2128,2096,2049
2065,2066,2067,2079,2152,2123,2099,2046
2054,2059,2058,2065,2085,2090,2089,2041
2048,2048,2052,2050,2001,2038,2057,2033
2047,2048,2048,2038,1973,2017,2054,2032
2047,2053,2054,2035,1959,2033,2047,2033
2047,2051,2042,2021,1919,2031,2068,2030
2042,2052,2051,2038,1971,2059,2071,2045
2052,2054,2057,2049,2038,2045,2073,2048
2052,2049,2053,2041,2014,2018,2068,2050
2051,2045,2044,2032,2000,2010,2052,2053
2048,2034,2036,2037,2047,2020,2046,2052
2037,2031,2036,2053,2082,2043,2044,2063
2036,2038,2045,2070,2099,2051,2068,2062
2042,2044,2063,2072,2069,2042,2066,2074
2048,2050,2076,2078,2056,2040,2066,2070
2037,2054,2084,2080,2059,2043,2068,2075
2043,2054,2076,2078,2041,2041,2044,2069
2042,2048,2067,2068,2011,2024,2035,2064
2037,2049,2062,2061,1985,2014,2031,2064
2049,2052,2054,2069,2002,2003,2051,2068
2059,2066,2049,2073,2020,1986,2027,2061
2060,2062,2043,2069,2030,1985,2054,2045
2060,2057,2031,2068,2042,2003,2056,2044
2059,2058,2031,2069,2052,2011,2061,2037
2050,2056,2032,2064,2056,2015,2046,2033
2050,2061,2032,2051,2064,2019,2052,2033
2058,2057,2025,2034,2069,2023,2042,2031
2058,2058,2025,2028,2056,2026,2051,2032
2058,2066,2033,2031,2053,2024,2056,2026
2055,2058,2033,2019,2050,2029,2050,2022
2049,2044,2019,2007,2043,2044,2060,2018
2049,2033,2013,1997,2049,2076,2078,2021
2054,2046,2018,2001,2054,2097,2056,2023
2046,2042,2020,2020,2068,2092,2057,2033
2047,2044,2023,2038,2078,2086,2051,2036
2060,2047,2038,2050,2085,2079,2055,2038
2057,2046,2033,2056,2088,2074,2058,2035
2048,2044,2032,2061,2090,2074,2073,2042
2051,2041,2032,2068,2096,2068,2057,2050
2060,2040,2024,2074,2097,2050,2067,2053
2052,2040,2027,2077,2107,2033,2054,2049
2046,2036,2030,2068,2047,2013,2055,2059
2047,2036,2034,2063,1945,1994,2076,2062
2046,2038,2032,2052,1989,1968,2051,2058
2040,2025,2018,2051,2028,1971,2047,2060
2043,2024,2016,2056,1976,1982,2019,2063
2043,2029,2002,2041,1973,2012,2045,2066
2039,2021,2009,2038,1961,2048,2058,2071
2040,2036,2015,2042,1974,2094,2080,2068
2044,2033,2016,2036,1959,2076,2080,2067
2048,2030,2016,2037,1962,2034,2068,2060
2039,2030,2002,2025,1962,2014,2058,2051
2044,2022,1995,1998,1944,1970,2027,2050
2038,2024,2000,1976,1970,1956,2024,2050
2032,2032,2030,2002,2100,2006,2046,2052
2054,2062,2083,2033,2156,2045,2063,2058
2061,2077,2107,2046,2143,2055,2058,2051
2062,2071,2113,2038,2098,2062,2051,2039
2063,2078,2114,2036,2079,2055,2026,2030
2053,2072,2098,2025,2068,2078,2038,2030
2058,2070,2086,2018,2058,2084,2031,2039
2056,2069,2092,2039,2114,2086,2035,2026
2057,2064,2080,2054,2154,2075,2028,2022
2049,2052,2077,2055,2145,2088,2032,2019
2045,2050,2070,2057,2118,2110,2038,2024
2052,2061,2060,2048,2083,2094,2044,2026
2057,2064,2065,2054,2082,2076,2034,2029
2050,2062,2068,2051,2062,2028,2019,2022
2050,2062,2058,2050,2041,2020,2053,2028
2053,2065,2048,2031,2020,2045,2072,2030
2055,2052,2035,2008,1983,2040,2069,2032
2045,2050,2029,2008,1981,2037,2062,2038
2052,2048,2035,2027,2000,2049,2064,2046
2051,2045,2035,2041,2058,2070,2067,2051
2042,2043,2042,2064,2108,2084,2074,2054
2038,2038,2039,2054,2064,2070,2078,2052
2038,2031,2028,2038,2031,2057,2071,2047
2041,2030,2029,2044,2063,2085,2088,2060
2041,2037,2046,2068,2102,2092,2055,2062
2042,2037,2052,2080,2151,2103,2063,2065
2046,2037,2055,2087,2183,2122,2043,2070
2058,2049,2063,2100,2195,2103,2054,2060
2053,2062,2067,2074,2131,2045,2010,2055
2056,2058,2067,2058,2039,2001,1992,2053
2053,2061,2068,2064,1999,1988,2017,2047
2051,2052,2063,2057,1980,1992,2018,2029
2031,2044,2040,2037,1970,1992,2009,2039
2035,2048,2036,2032,1988,1987,2026,2042
2041,2054,2032,2033,2028,2006,2037,2050
2058,2069,2046,2042,2057,2027,2034,2049
2069,2088,2066,2043,2068,2044,2030,2042
2074,2093,2069,2040,2053,2038,2037,2031
2067,2081,2061,2034,2030,2033,2022,2019
2056,2064,2049,2030,2020,2045,2048,2030
2055,2059,2044,2008,1997,2063,2032,2018
2041,2041,2033,1998,1968,2058,2032,2015
2036,2039,2036,1998,1949,2050,2042,2017
2042,2047,2047,2007,1948,2029,2037,2024
2041,2050,2043,2021,1975,1996,2047,2033
2054,2059,2043,2042,2038,2010,2062,2038
2048,2058,2041,2060,2075,2034,2068,2040
2049,2055,2035,2056,2101,2044,2059,2034
2047,2046,2037,2060,2110,2045,2055,2040
2045,2046,2028,2050,2094,2037,2058,2038
2040,2036,2011,2034,2099,2053,2033,2037
2041,2041,2012,2052,2160,2082,2063,2049
2044,2037,2023,2078,2191,2114,2065,2057
2037,2032,2017,2072,2168,2127,2068,2055
2035,2023,2016,2053,2138,2151,2064,2052
2028,2024,2015,2024,1987,2134,2042,2056
2029,2026,2022,2027,1985,2063,2037,2053
2030,2020,2017,2028,2005,1978,2030,2064
2035,2022,2008,2024,1987,1981,2020,2060
2039,2024,1999,2015,1989,2013,2032,2045
2043,2022,1997,2018,1990,2030,2047,2048
2048,2026,1997,2025,2012,2018,2062,2055
2047,2040,2001,2039,2067,2005,2045,2052
2047,2043,2000,2033,2045,2005,2048,2034
2043,2042,1988,2029,2067,2021,2044,2031
2052,2031,1998,2060,2159,2058,2059,2030
2059,2045,2008,2093,2206,2075,2054,2028
2053,2040,2010,2109,2200,2084,2046,2030
2046,2037,2020,2118,2167,2089,2067,2040
2056,2042,2038,2125,2130,2091,2061,2037
2057,2055,2057,2111,2011,2060,2054,2038
2052,2059,2065,2098,1919,2035,2055,2030
2057,2058,2074,2104,1972,2067,2061,2027
2057,2063,2075,2103,2014,2064,2035,2016
2050,2050,2063,2085,2026,2036,2034,2019
2049,2053,2066,2078,2030,2041,2035,2018
2052,2058,2096,2084,2040,2041,2043,2027
2057,2080,2116,2090,2038,2051,2040,2028
2062,2084,2130,2095,2043,2053,2039,2036
2067,2089,2132,2091,2036,2041,2062,2042
2071,2080,2115,2070,2024,2022,2048,2042
2058,2064,2077,2037,2006,2001,2040,2040
