CH1,CH2,CH3,CH4,CH5,CH6,CH7,CH8
2035,2035,2012,2017,2006,2037,2058,2064
2032,2036,2014,2014,2004,2032,2047,2056
2036,2041,2007,2027,2008,2037,2055,2059
2042,2048,2015,2029,2028,2043,2060,2045
2035,2049,2022,2033,2054,2040,2023,2036
2037,2044,2026,2043,2069,2043,2044,2040
2045,2041,2027,2047,2072,2041,2051,2043
2050,2046,2029,2042,2056,2043,2053,2040
2050,2053,2032,2044,2050,2045,2065,2046
2052,2062,2042,2047,2047,2052,2065,2047
2057,2065,2046,2053,2044,2048,2051,2045
2054,2064,2047,2047,2043,2050,2065,2041
2052,2050,2042,2034,2033,2034,2049,2026
2035,2032,2036,2024,2017,2025,2009,2020
2023,2031,2048,2035,2027,2037,2030,2031
2042,2063,2086,2055,2050,2053,2035,2035
2053,2081,2105,2071,2065,2061,2033,2035
2062,2091,2113,2075,2064,2071,2059,2041
2062,2088,2100,2079,2065,2071,2064,2047
2060,2077,2086,2074,2068,2073,2045,2040
2052,2060,2069,2067,2078,2070,2053,2048
2052,2062,2080,2080,2077,2069,2049,2054
2046,2060,2081,2079,2076,2069,2034,2061
2048,2056,2075,2074,2069,2052,2045,2062
2047,2051,2073,2075,2071,2049,2043,2061
2042,2048,2069,2069,2066,2051,2031,2060
2041,2043,2064,2075,2062,2056,2037,2071
2042,2042,2056,2078,2062,2056,2039,2077
2041,2048,2059,2083,2059,2057,2048,2080
2030,2036,2049,2070,2045,2043,2023,2061
2024,2019,2037,2071,2045,2038,2007,2067
2031,2022,2024,2068,2042,2039,2034,2070
2034,2029,2008,2064,2041,2033,2027,2073
2037,2045,2024,2071,2044,2035,2028,2068
2047,2053,2026,2075,2061,2050,2038,2066
2052,2061,2021,2072,2064,2054,2054,2057
2058,2056,2013,2070,2059,2054,2043,2052
2046,2052,2010,2064,2056,2053,2040,2037
2039,2041,2010,2063,2044,2055,2039,2033
2036,2035,2009,2058,2042,2060,2047,2032
2036,2030,2006,2040,2045,2064,2065,2025
2031,2027,2003,2032,2039,2068,2032,2025
2035,2029,2002,2030,2028,2077,2033,2024
2034,2031,2019,2035,2028,2075,2045,2025
2043,2050,2051,2062,2034,2078,2025,2029
2040,2064,2067,2070,2030,2044,2026,2020
2032,2055,2039,2066,2036,1998,2007,2018
2028,2044,2033,2073,2049,2014,2040,2033
2039,2058,2032,2081,2057,2033,2052,2038
2041,2056,2026,2085,2056,2047,2026,2035
2036,2049,2013,2079,2060,2047,2015,2037
2042,2048,2002,2073,2064,2053,2025,2041
2039,2042,1994,2074,2061,2051,2041,2039
2039,2037,1986,2066,2056,2043,2025,2046
2034,2031,1989,2061,2044,2035,2022,2048
2033,2024,1990,2051,2043,2032,2019,2052
2030,2020,1992,2046,2040,2033,2044,2054
2037,2022,1999,2039,2040,2027,2031,2069
2027,2019,2002,2027,2020,2026,2032,2079
2032,2024,2021,2021,2022,2014,2050,2088
2039,2040,2053,2032,2026,2015,2046,2094
2057,2048,2062,2040,2024,2010,2026,2087
2041,2038,2054,2041,2028,2005,2045,2082
2042,2041,2052,2041,2041,2026,2036,2088
2056,2053,2044,2035,2059,2028,2041,2078
2048,2042,2014,2032,2063,2042,2046,2067
2045,2043,1996,2038,2062,2046,2047,2062
2049,2044,1997,2050,2064,2050,2047,2061
2054,2046,2013,2062,2066,2051,2066,2058
2059,2052,2022,2058,2070,2046,2045,2049
2054,2063,2031,2072,2083,2043,2025,2041
2056,2061,2022,2065,2082,2040,2021,2038
2056,2066,2017,2064,2079,2045,2021,2041
2060,2063,2020,2058,2072,2042,2029,2037
2061,2058,2015,2042,2062,2032,2018,2032
2053,2054,2021,2027,2053,2035,2040,2029
2054,2056,2021,2024,2051,2042,2054,2029
2043,2058,2041,2027,2050,2024,2031,2024
2038,2045,2041,2020,2041,2012,2034,2022
2040,2051,2039,2019,2041,2016,2039,2035
2057,2067,2063,2029,2046,2022,2044,2037
2057,2066,2081,2026,2035,2013,2044,2033
2056,2075,2105,2037,2033,2014,2066,2039
2057,2090,2128,2044,2041,2027,2072,2050
2059,2095,2127,2058,2045,2028,2066,2055
2060,2089,2131,2062,2055,2035,2068,2053
2063,2086,2116,2063,2062,2046,2065,2056
2062,2083,2110,2070,2064,2069,2064,2069
2062,2085,2118,2068,2073,2094,2073,2074
2070,2087,2126,2068,2071,2118,2062,2072
2067,2088,2127,2069,2077,2114,2066,2076
2060,2082,2127,2062,2079,2102,2072,2078
2060,2074,2110,2056,2082,2090,2064,2083
2055,2076,2106,2052,2068,2072,2065,2078
2043,2057,2068,2017,2033,2039,2040,2070
2038,2042,2049,2007,2015,2027,2042,2066
2039,2052,2059,2021,2024,2034,2046,2078
2057,2061,2059,2033,2027,2030,2049,2074
2059,2067,2070,2044,2034,2035,2041,2064
2054,2070,2072,2059,2032,2039,2068,2060
2053,2067,2070,2060,2043,2032,2050,2047
2056,2073,2067,2070,2036,2032,2061,2044
2061,2064,2065,2053,2040,2037,2050,2043
2058,2056,2060,2052,2042,2033,2061,2039
2054,2054,2049,2055,2036,2035,2053,2037
2054,2060,2054,2056,2053,2035,2038,2037
2055,2065,2051,2073,2088,2045,2052,2032
2057,2064,2062,2076,2107,2050,2067,2023
2058,2066,2057,2078,2112,2061,2043,2018
2060,2068,2060,2079,2096,2070,2050,2020
2061,2059,2043,2087,2087,2073,2064,2009
2034,2031,2025,2089,2093,2073,2048,2004
2031,2017,2020,2095,2086,2079,2047,2020
2041,2043,2035,2104,2074,2081,2064,2022
2041,2046,2031,2068,2033,2059,2061,2022
2038,2044,2023,2037,2009,2054,2050,2029
2040,2043,2019,2006,1975,2043,2053,2032
2036,2032,2009,2008,2014,2045,2063,2031
2037,2030,2008,2036,2048,2059,2069,2027
2037,2022,2008,2058,2068,2068,2065,2031
2042,2022,2032,2086,2089,2068,2070,2045
2042,2034,2062,2113,2096,2067,2066,2053
2044,2041,2067,2129,2093,2067,2078,2056
2052,2046,2059,2128,2082,2062,2075,2067
2046,2052,2062,2133,2080,2063,2073,2068
2045,2042,2044,2120,2069,2054,2063,2073
2046,2042,2036,2113,2052,2035,2048,2061
2032,2032,2023,2097,2026,2007,2025,2040
2032,2027,2008,2083,2004,2012,2031,2050
2034,2030,2002,2082,2050,2018,2031,2058
2030,2030,1994,2076,2095,2024,2034,2046
2028,2032,2015,2072,2091,2036,2037,2045
2037,2051,2049,2069,2064,2032,2050,2039
2038,2061,2063,2044,2059,2027,2043,2035
2036,2060,2051,2005,2055,2027,2047,2027
2032,2045,2036,1971,2042,2021,2020,2024
2038,2042,2040,1960,2052,2025,2036,2032
2046,2069,2076,1976,2062,2043,2054,2038
2062,2088,2090,1992,2054,2052,2076,2050
2059,2078,2076,1988,1965,2044,2067,2040
2061,2070,2076,2000,1961,2047,2067,2038
2059,2066,2095,2022,2009,2055,2054,2041
2063,2072,2094,2035,2024,2053,2069,2040
2063,2064,2079,2022,2017,2030,2040,2026
2047,2045,2069,2019,2018,2018,2043,2014
2039,2053,2076,2034,2027,2031,2049,2023
2049,2075,2091,2047,2041,2038,2044,2032
2055,2088,2088,2055,2047,2044,2044,2038
2056,2075,2074,2049,2061,2040,2050,2038
2054,2062,2065,2046,2055,2036,2050,2044
2049,2054,2059,2046,2046,2043,2047,2051
2050,2060,2051,2044,2039,2047,2062,2049
2046,2056,2057,2041,2039,2058,2074,2048
2058,2064,2060,2040,2042,2062,2069,2062
2056,2068,2056,2041,2048,2065,2068,2066
2049,2061,2052,2042,2052,2064,2066,2077
2051,2054,2050,2044,2057,2060,2061,2083
2057,2058,2044,2043,2053,2065,2076,2086
2053,2051,2047,2044,2053,2066,2078,2088
2055,2049,2042,2043,2048,2051,2040,2078
2038,2028,2027,2032,2029,2031,2046,2067
2026,2022,2026,2039,2030,2026,2052,2063
2031,2038,2045,2058,2041,2035,2052,2058
2024,2040,2057,2068,2047,2046,2050,2060
2039,2058,2073,2082,2040,2041,2049,2059
2047,2068,2071,2078,2035,2033,2054,2050
2050,2061,2062,2076,2032,2030,2055,2047
2038,2057,2052,2075,2031,2038,2043,2045
2039,2054,2046,2078,2041,2045,2052,2042
2043,2060,2044,2080,2039,2043,2062,2037
2047,2064,2045,2077,2038,2040,2068,2036
2045,2054,2033,2067,2036,2045,2059,2025
2047,2051,2020,2055,2036,2044,2062,2026
2048,2044,2008,2049,2033,2040,2055,2030
2044,2046,2028,2047,2029,2039,2058,2030
2044,2040,2035,2042,2029,2036,2049,2030
2041,2042,2033,2041,2029,2031,2045,2020
2033,2034,2022,2031,2032,2031,2042,2013
2030,2040,2023,2031,2042,2033,2055,2025
2041,2057,2040,2036,2054,2039,2064,2032
2045,2070,2045,2056,2056,2045,2065,2047
2052,2072,2046,2062,2068,2052,2065,2042
2049,2062,2037,2058,2072,2050,2069,2043
2048,2059,2030,2059,2077,2050,2070,2047
2056,2065,2015,2054,2070,2058,2071,2054
2060,2064,2007,2056,2069,2057,2077,2057
2054,2050,1993,2041,2058,2049,2067,2065
2039,2043,1984,2023,2044,2043,2047,2068
2037,2046,2004,2025,2058,2047,2037,2070
2041,2056,2028,2027,2070,2051,2052,2076
2046,2064,2034,2038,2064,2051,2036,2080
2039,2060,2027,2030,2055,2050,2052,2084
2054,2057,2017,2031,2048,2044,2053,2074
2040,2040,2007,2026,2042,2032,2022,2063
2034,2034,2032,2045,2047,2036,2032,2072
2039,2047,2048,2058,2052,2044,2034,2077
2048,2052,2060,2061,2056,2044,2036,2070
2040,2052,2062,2059,2048,2042,2032,2068
2044,2051,2069,2067,2036,2037,2057,2064
2041,2042,2068,2061,2042,2043,2056,2057
2043,2044,2074,2058,2042,2042,2071,2049
2050,2057,2087,2058,2047,2050,2068,2042
2050,2064,2084,2069,2054,2049,2064,2041
2050,2059,2077,2065,2054,2046,2047,2042
2049,2046,2065,2061,2060,2054,2046,2041
2052,2058,2073,2056,2062,2056,2055,2040
2060,2060,2072,2043,2054,2050,2037,2039
2059,2055,2069,2038,2045,2050,2046,2026
2054,2055,2061,2036,2047,2049,2043,2020
2042,2044,2062,2032,2036,2038,2025,2009
2028,2038,2057,2036,2033,2035,2048,2017
2025,2032,2060,2051,2047,2043,2067,2035
2036,2047,2069,2065,2038,2049,2056,2030
2039,2043,2061,2075,2030,2039,2044,2042
2044,2043,2053,2075,2034,2048,2051,2044
2045,2049,2053,2079,2042,2057,2061,2040
2057,2054,2050,2090,2046,2060,2073,2049
2054,2055,2046,2082,2044,2067,2049,2059
2069,2054,2036,2088,2040,2060,2052,2054
2066,2052,2028,2083,2032,2057,2063,2055
2057,2054,2022,2080,2025,2052,2053,2062
2052,2042,2013,2078,2007,2052,2050,2062
2036,2027,1997,2062,1996,2042,2052,2053
2027,2013,1990,2055,1982,2018,2026,2038
2011,2010,1998,2043,1974,2008,2022,2059
2027,2026,2009,2043,1984,2008,2033,2073
2047,2042,2022,2059,2044,2019,2024,2065
2045,2031,2016,2068,2083,2041,2023,2068
2035,2034,2005,2059,2078,2049,2018,2067
2034,2037,2011,2050,2079,2051,2039,2070
2038,2047,2035,2071,2092,2061,2064,2066
2042,2055,2059,2068,2075,2054,2041,2066
2039,2057,2063,2060,2076,2047,2043,2060
2054,2062,2084,2067,2106,2052,2062,2058
2055,2074,2104,2081,2070,2055,2058,2049
2054,2076,2109,2077,2035,2051,2034,2044
2058,2067,2088,2077,2085,2052,2022,2045
2047,2058,2071,2059,2094,2049,2054,2046
2043,2057,2064,2043,2049,2044,2051,2030
2041,2058,2075,2045,2042,2034,2038,2031
2039,2068,2078,2053,2035,2041,2037,2030
2046,2065,2068,2057,2062,2056,2044,2030
2046,2065,2063,2048,2074,2065,2062,2027
2048,2053,2056,2035,2043,2053,2037,2021
2039,2045,2043,2016,2024,2038,2036,2019
2038,2048,2038,2003,1980,2032,2044,2025
2046,2052,2031,2016,2031,2037,2052,2029
2045,2045,2013,2029,2043,2042,2047,2030
2044,2043,2019,2056,2070,2041,2048,2030
2051,2042,2027,2071,2080,2046,2062,2032
2041,2040,2028,2071,2072,2044,2057,2034
2034,2032,2031,2071,2055,2039,2035,2033
2034,2050,2054,2083,2065,2046,2030,2044
2041,2068,2071,2101,2082,2052,2057,2050
2050,2079,2070,2114,2082,2055,2071,2052
2052,2076,2065,2131,2090,2055,2065,2057
2052,2071,2044,2124,2101,2059,2068,2054
2048,2069,2033,2119,2100,2052,2062,2060
2047,2062,2029,2119,2091,2052,2038,2063
2045,2061,2016,2101,2070,2043,2029,2048
2035,2034,1993,2064,2040,2025,2023,2048
2030,2025,1966,2025,2024,2020,2011,2054
2031,2029,1966,2003,2020,2025,2049,2055
2033,2032,1988,1984,2022,2027,2052,2059
2042,2053,2028,1998,2025,2037,2063,2056
2051,2076,2066,2020,2034,2041,2060,2052
2059,2084,2089,2038,2037,2042,2053,2047
2063,2077,2106,2059,2046,2038,2054,2041
2053,2068,2106,2055,2035,2035,2028,2030
2040,2047,2093,2027,2014,2023,2038,2021
2031,2033,2075,2009,2002,2018,2039,2020
2026,2033,2084,2020,2011,2018,2049,2018
2026,2042,2078,2040,2025,2026,2050,2027
2039,2051,2084,2063,2054,2039,2064,2035
2050,2064,2094,2086,2076,2057,2068,2038
2052,2067,2106,2094,2082,2057,2064,2039
2047,2055,2113,2079,2074,2053,2065,2035
2047,2056,2106,2077,2075,2059,2064,2036
2050,2065,2101,2066,2070,2060,2066,2028
2047,2060,2085,2050,2058,2053,2068,2031
2052,2056,2069,2024,2049,2053,2070,2038
2046,2053,2057,2013,2046,2053,2067,2035
2043,2056,2055,2008,2054,2057,2072,2040
2048,2066,2056,2015,2056,2062,2065,2050
2055,2068,2057,2017,2070,2059,2076,2054
2058,2061,2051,2032,2072,2062,2074,2047
2055,2053,2045,2033,2066,2060,2073,2052
2049,2043,2036,2040,2066,2060,2068,2055
2048,2043,2030,2039,2074,2064,2067,2063
2047,2042,2035,2043,2071,2064,2073,2061
2044,2039,2036,2049,2068,2065,2071,2069
2036,2040,2025,2039,2068,2061,2051,2067
2039,2026,2011,2032,2059,2050,2050,2061
2034,2016,2005,2034,2055,2046,2043,2060
2030,2028,2012,2040,2056,2056,2054,2064
2039,2034,2020,2040,2057,2055,2060,2060
2038,2040,2031,2040,2052,2052,2041,2057
2043,2046,2041,2043,2050,2052,2065,2047
2040,2044,2048,2041,2048,2047,2057,2040
2036,2038,2037,2031,2034,2042,2039,2033
2032,2038,2032,2035,2023,2033,2035,2030
2033,2038,2046,2047,2032,2039,2045,2030
2043,2057,2072,2061,2051,2042,2054,2030
2053,2067,2100,2076,2055,2045,2063,2027
2054,2069,2111,2077,2055,2051,2068,2026
2058,2072,2113,2077,2053,2045,2058,2024
2060,2072,2106,2071,2052,2050,2060,2019
2062,2069,2081,2060,2052,2049,2054,2020
2055,2058,2074,2052,2050,2040,2051,2014
2057,2054,2061,2052,2048,2044,2049,2012
2054,2057,2064,2066,2063,2056,2045,2030
2063,2071,2080,2082,2070,2057,2064,2031
2061,2069,2080,2081,2068,2058,2065,2028
2062,2058,2063,2065,2062,2051,2068,2026
2052,2047,2034,2053,2060,2051,2064,2025
2049,2032,2010,2051,2062,2051,2063,2030
2045,2025,2002,2052,2062,2050,2059,2030
2045,2023,1992,2057,2065,2049,2065,2038
2042,2020,1987,2065,2072,2056,2072,2046
2046,2020,1988,2080,2072,2061,2062,2054
2044,2015,1971,2086,2074,2059,2060,2049
2039,2014,1965,2088,2080,2057,2058,2049
2036,2017,1964,2083,2075,2055,2061,2049
2031,2012,1957,2076,2071,2049,2050,2056
2028,2010,1948,2046,2054,2044,2031,2051
2025,2002,1949,2038,2041,2043,2025,2050
2025,2008,1966,2042,2038,2037,2034,2049
2039,2022,1993,2053,2037,2040,2032,2053
2038,2040,2022,2052,2033,2043,2054,2050
2041,2049,2046,2045,2034,2042,2045,2048
2045,2067,2061,2038,2025,2038,2043,2047
2044,2068,2063,2027,2024,2035,2043,2049
2044,2058,2059,2027,2022,2048,2061,2043
2049,2062,2076,2026,2033,2056,2076,2041
2052,2057,2086,2028,2039,2057,2058,2043
2065,2068,2103,2040,2049,2065,2072,2052
2068,2078,2106,2053,2062,2065,2066,2042
2056,2079,2100,2058,2058,2063,2059,2033
2056,2073,2110,2070,2060,2064,2058,2028
2064,2074,2105,2066,2062,2061,2067,2029
2062,2075,2095,2060,2073,2052,2058,2025
2053,2061,2076,2052,2060,2049,2048,2017
2048,2064,2072,2049,2053,2053,2061,2023
2058,2078,2069,2062,2057,2054,2065,2023
2059,2077,2067,2057,2061,2059,2068,2023
2062,2079,2067,2060,2069,2060,2069,2028
2065,2081,2066,2058,2076,2059,2072,2034
2062,2083,2059,2049,2066,2058,2068,2033
2067,2066,2052,2040,2066,2059,2068,2035
2056,2061,2027,2015,2051,2044,2065,2047
2058,2051,2019,2004,2044,2043,2056,2046
2051,2057,2028,2018,2042,2035,2061,2050
2057,2068,2049,2046,2065,2052,2041,2062
2067,2071,2074,2063,2075,2055,2040,2067
2060,2076,2098,2072,2068,2053,2071,2066
2064,2079,2099,2076,2071,2053,2074,2070
2061,2082,2090,2070,2060,2047,2033,2069
2058,2065,2085,2057,2039,2041,2051,2066
2055,2065,2073,2055,2040,2044,2057,2066
2064,2069,2064,2056,2046,2051,2053,2060
2064,2073,2066,2056,2049,2060,2046,2058
2066,2074,2069,2065,2046,2066,2064,2050
2066,2075,2077,2074,2052,2079,2067,2041
2059,2070,2071,2060,2051,2086,2057,2033
2064,2064,2068,2060,2055,2092,2057,2028
2064,2070,2085,2072,2067,2081,2056,2018
2065,2072,2098,2080,2082,2032,2044,2018
2070,2078,2103,2086,2084,2021,2059,2019
2066,2076,2108,2088,2080,2041,2057,2014
2060,2076,2104,2094,2077,2049,2053,2007
2064,2073,2094,2090,2073,2047,2054,2010
2063,2070,2080,2087,2070,2051,2054,2003
2056,2070,2074,2080,2060,2050,2054,2003
2053,2051,2053,2063,2042,2030,2047,1999
2042,2041,2054,2051,2020,2030,2048,2002
2044,2043,2058,2049,2018,2027,2026,2003
2047,2051,2056,2052,2022,2021,2051,2005
2052,2053,2062,2046,2012,2027,2055,2013
2059,2064,2059,2043,2016,2030,2054,2016
2071,2070,2070,2046,2052,2033,2063,2023
2070,2075,2079,2058,2054,2040,2058,2024
2070,2072,2072,2059,2050,2043,2057,2025
2067,2069,2065,2066,2053,2043,2064,2030
2068,2063,2059,2071,2044,2044,2063,2033
2063,2066,2064,2076,2027,2049,2064,2032
2061,2066,2061,2074,2018,2053,2063,2044
2058,2059,2054,2050,2002,2046,2064,2043
2060,2052,2049,2052,1990,2034,2066,2040
2058,2050,2037,2059,1975,2028,2053,2042
2050,2041,2029,2048,1921,2017,2048,2040
2038,2042,2024,2049,1974,2024,2049,2045
2047,2056,2024,2049,2036,2038,2057,2054
2053,2050,2018,2063,2049,2035,2054,2045
2049,2048,2020,2072,2068,2038,2052,2041
2044,2047,2031,2081,2109,2051,2057,2034
2046,2042,2027,2082,2152,2054,2049,2030
2045,2041,2015,2067,2102,2054,2064,2019
2039,2034,2010,2048,1994,2052,2054,2017
2038,2033,2011,2035,2022,2056,2059,2009
2040,2040,2019,2017,2051,2065,2058,2007
2042,2036,2024,2007,2067,2058,2049,2004
2037,2025,2014,2002,2064,2042,2055,2003
2033,2033,2032,2020,2054,2040,2041,2006
2040,2052,2074,2049,2079,2043,2032,2008
2047,2068,2093,2066,2065,2045,2034,2001
2047,2056,2068,2046,2022,2028,2039,1991
2032,2031,2052,2028,1977,2024,2039,1987
2045,2042,2060,2032,1972,2026,2030,2000
2058,2060,2062,2029,1956,2020,2026,2005
2054,2053,2051,2006,1944,2014,2030,2004
2052,2058,2044,2020,2015,2042,2048,2014
2070,2068,2056,2037,2049,2055,2049,2025
2071,2064,2054,2031,2054,2046,2047,2020
2062,2050,2048,2022,2061,2033,2057,2014
2050,2038,2049,2034,2087,2028,2042,2006
2050,2034,2059,2038,2114,2036,2030,2013
2044,2050,2074,2055,2132,2048,2033,2040
2053,2054,2081,2056,2120,2052,2039,2045
2048,2051,2070,2048,2107,2049,2033,2045
2047,2051,2073,2048,2112,2044,2033,2043
2048,2055,2071,2054,2119,2049,2048,2053
2045,2057,2070,2061,2115,2050,2040,2052
2050,2043,2070,2055,2095,2042,2034,2047
2049,2040,2068,2053,2079,2037,2026,2045
2049,2044,2075,2053,2020,2034,2038,2045
2055,2047,2064,2026,1906,2025,2039,2044
2051,2043,2052,2023,1930,2029,2047,2042
2045,2041,2041,2031,1973,2030,2042,2037
2050,2038,2032,2038,1995,2034,2048,2029
2050,2043,2044,2044,2013,2038,2033,2029
2059,2046,2048,2044,2018,2040,2041,2032
2054,2042,2053,2044,2007,2032,2054,2025
2047,2040,2044,2040,2006,2035,2050,2016
2053,2041,2040,2035,2015,2037,2053,2015
2050,2036,2045,2041,2030,2037,2053,2010
2047,2036,2040,2044,2027,2031,2052,2012
2048,2036,2049,2043,2031,2029,2034,2010
2047,2034,2047,2044,2035,2034,2044,2009
2048,2029,2030,2043,2031,2020,2035,1997
2039,2020,2025,2041,2032,2032,2030,1998
2047,2030,2032,2056,2041,2045,2041,2007
2061,2046,2042,2061,2046,2051,2041,2009
2060,2042,2039,2051,2044,2049,2035,2014
2053,2039,2040,2039,2032,2048,2049,2013
2055,2034,2041,2036,2035,2047,2044,2013
2058,2040,2045,2044,2031,2048,2058,2022
2050,2037,2049,2044,2029,2047,2057,2021
2050,2030,2047,2047,2026,2042,2060,2022
2052,2026,2047,2054,2028,2050,2065,2033
2051,2033,2047,2065,2043,2055,2062,2045
2054,2049,2067,2072,2053,2062,2069,2059
2063,2052,2078,2080,2060,2059,2061,2058
2058,2053,2076,2075,2063,2056,2061,2061
2052,2047,2067,2078,2061,2054,2062,2062
2051,2036,2051,2067,2059,2049,2059,2058
2042,2021,2039,2061,2052,2046,2050,2056
2052,2026,2037,2053,2051,2044,2064,2058
2055,2040,2050,2056,2056,2043,2052,2056
2055,2044,2058,2062,2059,2043,2060,2053
2053,2045,2085,2067,2060,2036,2062,2050
2058,2049,2098,2069,2043,2032,2048,2049
2052,2050,2099,2062,2039,2029,2053,2042
2048,2055,2098,2063,2038,2031,2046,2026
2053,2048,2087,2060,2043,2034,2056,2027
2049,2044,2076,2063,2037,2028,2052,2022
2044,2034,2073,2063,2047,2028,2052,2018
2041,2029,2069,2071,2052,2036,2052,2014
2041,2031,2064,2080,2058,2037,2056,2022
2053,2047,2074,2084,2064,2046,2050,2029
2056,2049,2064,2077,2060,2040,2035,2021
2056,2043,2059,2076,2056,2044,2030,2015
2047,2037,2042,2065,2048,2037,2025,2005
2038,2022,2028,2039,2045,2041,2022,2010
2045,2023,2026,2033,2050,2047,2024,2017
2046,2023,2019,2024,2049,2055,2032,2018
2052,2026,2023,2030,2048,2063,2044,2028
2051,2031,2025,2037,2055,2062,2051,2029
2048,2034,2035,2039,2060,2063,2047,2032
2047,2040,2031,2042,2059,2058,2053,2032
2060,2041,2032,2043,2053,2058,2054,2046
2054,2040,2037,2044,2056,2058,2047,2053
2049,2034,2044,2043,2054,2054,2045,2056
2054,2030,2042,2046,2049,2052,2046,2061
2056,2038,2053,2045,2043,2053,2034,2066
2053,2039,2060,2052,2052,2050,2052,2066
2050,2037,2060,2047,2051,2053,2050,2066
2047,2033,2052,2046,2052,2051,2048,2070
2049,2033,2047,2044,2054,2045,2040,2067
2040,2024,2053,2047,2056,2045,2034,2069
2044,2034,2059,2049,2059,2056,2050,2067
2046,2039,2065,2055,2059,2056,2041,2067
2048,2038,2063,2059,2056,2060,2043,2063
2047,2040,2059,2054,2055,2061,2044,2058
2051,2039,2061,2057,2055,2067,2053,2053
2054,2043,2061,2065,2063,2064,2050,2042
2050,2045,2061,2069,2053,2056,2040,2036
2056,2049,2067,2066,2027,2046,2042,2027
2053,2039,2064,2064,2014,2031,2039,2027
2050,2037,2060,2061,2019,2032,2034,2025
2054,2041,2062,2062,2025,2040,2035,2028
2052,2047,2064,2073,2029,2039,2028,2028
2055,2053,2074,2074,2034,2045,2042,2029
2065,2057,2075,2087,2034,2049,2022,2024
2066,2066,2074,2082,2036,2046,2024,2026
2064,2058,2062,2075,2037,2046,2014,2031
2062,2047,2048,2060,2026,2041,2045,2027
2062,2050,2049,2061,2038,2049,2059,2031
2061,2053,2042,2053,2046,2051,2064,2033
2059,2040,2032,2049,2054,2050,2058,2034
2060,2035,2018,2044,2058,2048,2062,2036
2059,2032,2009,2037,2060,2053,2073,2046
2057,2034,2013,2039,2048,2050,2071,2051
2063,2041,2017,2044,2045,2047,2065,2053
2052,2037,2015,2029,2028,2024,2049,2058
2053,2036,1999,2018,1994,2007,2053,2059
2051,2019,1993,2008,1986,2011,2034,2057
2041,2016,1990,2007,1989,2007,2014,2062
2044,2024,2007,2007,2005,2024,2029,2064
2045,2028,2006,2009,2003,2036,2029,2067
2053,2029,2007,2017,2013,2040,2028,2070
2054,2030,2012,2029,2017,2045,2030,2063
2036,2024,2025,2036,2010,2038,2026,2062
2032,2020,2034,2041,2019,2032,2028,2066
2044,2040,2050,2061,2040,2046,2037,2078
2056,2059,2052,2069,2066,2049,2042,2066
2059,2060,2039,2067,2092,2046,2045,2060
2056,2054,2042,2078,2092,2048,2032,2062
2056,2049,2041,2082,2077,2049,2032,2047
2059,2048,2045,2093,2080,2057,2042,2052
2056,2044,2051,2103,2109,2059,2043,2049
2058,2033,2046,2102,2138,2060,2047,2044
2054,2034,2038,2097,2143,2061,2044,2041
2058,2043,2048,2101,2149,2070,2048,2042
2061,2049,2052,2099,2147,2073,2045,2033
2057,2053,2057,2100,2148,2073,2050,2035
2065,2054,2052,2094,2121,2075,2050,2033
2059,2053,2041,2070,2062,2058,2054,2032
2064,2048,2014,2040,2031,2041,2047,2023
2051,2034,1996,2025,2037,2031,2029,2022
2045,2028,1988,1999,1941,2012,2022,2026
2051,2029,1999,1985,1884,2002,2022,2022
2047,2032,2032,1999,1960,2025,2013,2024
2049,2063,2084,2021,2039,2050,2025,2029
2066,2083,2126,2025,2047,2048,2025,2035
2066,2087,2124,2013,2032,2040,2041,2038
2065,2083,2113,2016,2025,2039,2044,2051
2070,2076,2104,2011,2029,2034,2031,2055
2068,2073,2094,2026,2066,2041,2024,2054
2066,2063,2098,2045,2107,2058,2028,2056
2058,2056,2088,2056,2115,2063,2036,2067
2054,2054,2086,2052,2105,2058,2040,2067
2054,2051,2081,2053,2085,2058,2042,2071
2055,2053,2080,2051,2065,2052,2050,2085
2060,2055,2073,2028,2023,2046,2049,2077
2055,2050,2058,2015,1995,2034,2047,2070
2048,2037,2049,2018,1997,2037,2037,2076
2043,2040,2057,2030,2015,2046,2032,2080
2053,2056,2069,2035,2021,2053,2054,2076
2062,2062,2072,2032,2015,2050,2047,2075
2057,2059,2063,2030,2023,2040,2041,2071
2054,2056,2062,2032,2030,2046,2037,2059
2055,2060,2059,2034,2036,2045,2043,2061
2059,2059,2061,2032,2050,2050,2041,2055
2062,2052,2059,2039,2060,2060,2050,2054
2062,2056,2058,2036,2070,2069,2037,2048
2057,2049,2049,2047,2070,2074,2055,2038
2054,2051,2044,2038,2065,2070,2046,2034
2053,2047,2042,2041,2059,2068,2050,2033
2050,2042,2043,2044,2059,2062,2039,2032
2050,2043,2039,2044,2065,2057,2057,2031
2061,2049,2043,2048,2066,2060,2046,2033
2055,2038,2015,2049,2061,2050,2049,2029
2049,2031,2011,2060,2077,2044,2047,2028
2050,2030,2024,2077,2104,2049,2051,2037
2050,2036,2029,2088,2113,2054,2044,2042
2053,2039,2028,2090,2111,2059,2046,2048
2052,2036,2016,2085,2090,2051,2053,2047
2049,2034,2017,2076,2072,2052,2051,2047
2054,2025,2020,2080,2067,2045,2045,2047
2048,2034,2045,2084,2059,2042,2044,2050
2046,2045,2066,2089,2050,2047,2052,2052
2053,2052,2078,2096,2068,2060,2033,2065
2057,2061,2083,2098,2041,2060,2023,2071
2054,2059,2074,2081,1997,2064,2036,2080
2054,2052,2064,2064,2043,2058,2056,2087
2047,2045,2047,2037,2065,2066,2048,2083
2052,2033,2046,2014,2055,2062,2025,2086
2053,2038,2058,2011,2090,2048,2032,2078
2042,2036,2055,1996,2094,2045,2018,2081
2045,2037,2050,1996,2101,2063,2044,2095
2071,2068,2071,2019,2121,2087,2063,2093
2080,2076,2080,2031,2088,2081,2044,2075
2064,2068,2073,2004,1905,2048,2017,2055
2051,2051,2052,1992,1865,2022,2025,2053
2044,2045,2039,2010,1915,2014,2031,2043
2041,2041,2042,2033,1989,2018,2038,2043
2038,2041,2039,2065,2044,2026,2039,2045
2044,2040,2037,2077,2076,2030,2050,2044
2041,2038,2035,2073,2077,2029,2045,2042
2044,2048,2047,2084,2080,2043,2048,2044
2052,2067,2053,2086,2080,2042,2048,2044
2054,2062,2057,2083,2081,2032,2031,2036
2050,2056,2045,2065,2059,2029,2037,2029
2045,2051,2035,2030,2039,2026,2040,2026
2037,2040,2019,2007,2025,2023,2026,2019
2033,2025,2013,2006,2022,2031,2026,2012
2034,2038,2022,2008,2033,2040,2017,2028
2035,2034,2031,2013,2024,2052,2033,2035
2042,2047,2033,2024,2035,2067,2050,2038
2046,2049,2033,2035,2050,2080,2066,2051
2047,2043,2034,2040,2054,2091,2056,2052
2051,2048,2037,2052,2057,2101,2051,2059
2055,2040,2042,2051,2053,2095,2062,2053
2044,2032,2036,2044,2046,2081,2063,2058
2042,2029,2035,2044,2045,2059,2053,2059
2041,2029,2026,2044,2037,2014,2051,2062
2043,2029,2020,2050,2027,2006,2029,2063
2036,2026,2016,2042,2033,2015,2046,2072
2034,2027,2021,2043,2052,2032,2045,2070
2037,2023,2023,2054,2079,2045,2054,2076
2037,2021,2026,2056,2090,2040,2037,2079
2027,2005,2024,2050,2074,2038,2038,2074
2022,2004,2030,2037,2019,2035,2041,2065
2026,2011,2049,2039,2000,2030,2035,2062
2022,2004,2053,2043,2038,2026,2039,2060
2029,2019,2066,2061,2056,2044,2047,2064
2045,2053,2090,2079,2058,2056,2052,2062
2060,2069,2096,2089,2058,2063,2051,2066
2070,2075,2082,2089,2070,2059,2052,2063
2067,2053,2071,2083,2063,2053,2055,2049
2056,2040,2059,2073,2065,2036,2055,2042
2050,2041,2060,2085,2070,2043,2051,2041
2049,2047,2064,2090,2071,2046,2069,2044
2061,2056,2066,2095,2070,2054,2069,2044
2056,2064,2079,2102,2072,2055,2072,2049
2056,2063,2074,2100,2077,2051,2068,2049
2056,2062,2066,2079,2079,2036,2060,2042
2049,2053,2061,2070,2091,2035,2022,2037
2050,2053,2063,2054,2096,2043,2040,2036
2058,2056,2061,2051,2079,2041,2051,2031
2054,2054,2047,2043,2051,2049,2054,2033
2056,2055,2050,2048,2055,2054,2061,2042
2053,2062,2058,2058,2059,2054,2058,2044
2052,2070,2054,2051,2044,2045,2059,2048
2056,2062,2043,2044,2045,2036,2055,2050
2047,2057,2047,2043,2033,2025,2033,2054
2055,2053,2047,2041,2022,2023,2034,2055
2050,2048,2036,2031,2027,2028,2039,2062
2048,2045,2026,2022,2041,2037,2043,2065
2047,2042,2027,2019,2045,2036,2053,2073
2048,2045,2037,2017,2040,2036,2049,2081
2045,2052,2044,2019,2044,2041,2043,2082
2055,2055,2043,2029,2055,2041,2046,2093
2053,2043,2027,2029,2054,2037,2041,2091
2046,2037,2022,2027,2058,2031,2046,2091
2056,2046,2032,2035,2052,2037,2032,2089
2056,2043,2035,2033,2077,2041,2020,2081
2046,2041,2034,2034,2098,2041,2029,2085
2052,2051,2050,2049,2112,2050,2038,2072
2060,2063,2063,2063,2122,2064,2049,2071
2058,2061,2060,2064,2122,2053,2049,2059
2055,2045,2041,2052,2112,2055,2049,2054
2050,2047,2037,2059,2102,2061,2050,2056
2052,2052,2041,2059,2121,2064,2039,2053
2060,2047,2041,2055,2110,2046,2061,2050
2059,2045,2038,2039,2062,2034,2060,2040
2054,2042,2028,2010,1964,2017,2050,2035
2047,2041,2030,2025,2001,2039,2058,2035
2044,2038,2027,2044,2058,2042,2056,2034
2032,2022,2013,2043,2066,2034,2054,2033
2041,2024,2026,2045,2057,2036,2062,2036
2051,2045,2045,2060,2070,2044,2065,2034
2045,2042,2037,2052,2022,2042,2034,2039
2047,2034,2035,2054,1995,2043,2038,2043
2056,2038,2035,2052,2011,2047,2054,2043
2050,2045,2039,2054,2023,2053,2058,2049
2053,2054,2052,2055,2036,2049,2076,2054
2058,2052,2040,2056,2064,2052,2080,2054
2052,2052,2040,2068,2078,2056,2069,2060
2045,2047,2038,2060,2068,2054,2064,2068
2047,2045,2046,2063,2057,2049,2068,2078
2043,2051,2043,2068,2048,2045,2063,2083
2045,2052,2053,2067,2048,2042,2067,2077
2042,2050,2066,2071,2054,2042,2052,2075
2051,2053,2066,2069,2047,2040,2052,2077
2045,2040,2050,2060,2042,2038,2046,2074
2037,2041,2046,2057,2037,2042,2063,2079
2048,2043,2037,2053,2041,2036,2056,2076
2046,2047,2039,2058,2052,2046,2070,2073
2052,2052,2043,2058,2043,2049,2061,2076
2052,2052,2034,2041,2038,2049,2052,2078
2052,2051,2026,2033,2038,2052,2019,2062
2053,2049,2022,2026,2038,2044,2017,2060
2050,2052,2034,2025,2045,2047,2038,2056
2053,2062,2037,2033,2051,2051,2057,2049
2057,2060,2046,2034,2054,2055,2054,2049
2051,2051,2036,2037,2034,2055,2062,2049
2049,2047,2032,2034,2019,2047,2052,2046
2056,2046,2037,2035,1995,2038,2067,2038
2045,2047,2050,2038,1985,2038,2045,2028
2039,2050,2056,2050,2007,2044,2060,2021
2035,2037,2050,2058,2052,2048,2041,2024
2038,2037,2045,2052,2048,2056,2020,2031
2054,2046,2057,2054,2036,2063,2015,2031
2045,2044,2059,2049,2027,2059,2021,2040
2051,2053,2071,2047,2018,2055,2047,2046
2051,2050,2075,2050,2027,2042,2034,2054
2050,2056,2099,2063,2074,2048,2065,2057
2056,2066,2113,2075,2121,2052,2050,2056
2062,2064,2098,2077,2124,2053,2062,2063
2058,2058,2086,2077,2093,2058,2062,2060
2058,2061,2082,2079,2077,2062,2056,2067
2060,2058,2074,2076,2060,2053,2054,2076
2055,2052,2065,2057,2028,2042,2056,2078
2048,2049,2052,2054,2020,2043,2031,2076
2051,2044,2050,2049,2034,2044,2031,2071
2046,2034,2034,2052,2042,2038,2039,2073
2039,2027,2022,2036,2038,2039,2034,2073
2040,2030,2019,2030,2031,2045,2045,2079
2048,2036,2030,2030,2022,2047,2035,2080
2058,2040,2034,2038,2024,2048,2024,2063
2060,2042,2032,2040,2027,2051,2054,2057
2053,2044,2040,2039,2026,2051,2034,2056
2051,2036,2030,2032,2018,2047,2023,2043
2040,2038,2034,2029,2014,2036,2043,2038
2047,2044,2035,2038,2042,2039,2042,2034
2042,2036,2031,2034,2074,2036,2047,2031
2040,2034,2028,2037,2074,2029,2047,2026
2040,2036,2037,2046,2082,2040,2041,2025
2048,2042,2043,2056,2094,2048,2050,2025
2048,2054,2057,2064,2103,2055,2041,2025
2055,2055,2069,2063,2083,2053,2038,2030
2050,2047,2064,2051,2071,2049,2050,2020
2045,2044,2060,2053,2066,2053,2046,2010
2042,2045,2064,2055,2058,2053,2055,2028
2050,2047,2064,2040,2044,2044,2046,2025
2048,2047,2086,2046,2062,2043,2054,2039
2059,2062,2120,2084,2104,2057,2047,2046
2052,2070,2128,2096,2108,2068,2055,2043
2053,2060,2122,2103,2139,2070,2070,2045
2046,2057,2105,2108,2169,2076,2065,2047
2044,2057,2091,2109,2170,2084,2054,2062
2054,2048,2076,2106,2170,2085,2052,2060
2046,2038,2050,2106,2155,2081,2068,2066
2043,2032,2033,2107,2154,2066,2061,2067
2036,2021,2016,2088,2112,2050,2047,2068
2030,2003,2002,2061,2065,2036,2024,2060
2018,1996,1973,2037,2014,2025,2049,2072
2020,1995,1944,2012,1912,2015,2018,2066
2019,1985,1923,1984,1853,2010,2025,2069
2022,1990,1898,1987,1932,2023,2033,2059
2030,1991,1898,1994,1954,2040,2052,2062
2039,2012,1919,2003,1950,2038,2013,2061
2050,2031,1935,2017,1971,2041,2022,2060
2065,2045,1949,2023,2023,2046,2036,2058
2065,2046,1964,2029,2042,2053,2031,2058
2064,2039,1965,2029,2079,2057,2047,2046
2051,2030,1961,2013,2092,2059,2047,2039
2036,2018,1960,2001,2072,2057,2046,2034
2027,2020,1986,1992,2071,2048,2038,2032
2029,2032,2013,2003,2075,2046,2033,2030
2039,2047,2031,2022,2062,2046,2040,2041
2047,2054,2057,2026,2056,2050,2054,2033
2049,2065,2100,2031,2037,2047,2042,2025
2044,2063,2128,2018,1980,2026,2041,2027
2042,2071,2138,2026,2009,2030,2036,2035
2048,2089,2138,2040,2039,2048,2053,2040
2055,2091,2128,2040,2062,2057,2038,2042
2059,2093,2121,2051,2091,2058,2036,2046
2061,2088,2122,2051,2080,2052,2029,2052
2058,2078,2107,2041,2063,2048,2022,2057
2068,2077,2096,2044,2062,2052,2040,2060
2064,2080,2103,2062,2061,2060,2040,2058
2061,2070,2105,2070,2063,2055,2032,2065
2052,2063,2112,2075,2061,2048,2041,2068
2043,2052,2108,2073,2056,2048,2029,2070
2044,2046,2106,2084,2056,2041,2013,2070
2043,2053,2106,2084,2052,2043,2037,2085
2048,2065,2116,2073,2069,2049,2020,2091
2050,2072,2125,2066,2072,2051,2058,2092
2052,2073,2106,2062,2081,2046,2032,2086
2041,2063,2083,2065,2072,2046,2028,2092
2046,2068,2078,2068,2081,2067,2048,2093
2047,2072,2076,2065,2082,2068,2049,2089
2054,2075,2079,2059,2071,2066,2053,2081
2057,2067,2075,2050,2068,2065,2045,2081
2057,2061,2055,2031,2054,2058,2048,2068
2050,2055,2045,2013,2053,2052,2049,2067
2054,2058,2045,2008,2037,2050,2044,2065
2053,2058,2049,2017,2046,2052,2049,2053
2049,2057,2047,2020,2057,2045,2036,2047
2053,2051,2041,2014,2058,2033,2048,2042
2047,2048,2049,2018,2036,2030,2062,2039
2058,2050,2054,2025,2026,2031,2065,2042
2058,2049,2045,2033,2010,2035,2058,2039
2049,2052,2049,2038,2025,2038,2056,2032
2040,2035,2033,2030,2018,2033,2044,2027
2034,2024,2026,2016,1989,2035,2046,2037
2033,2030,2035,2021,1991,2046,2034,2038
2044,2038,2039,2035,2015,2050,2058,2034
2041,2043,2048,2045,2034,2056,2063,2043
2043,2055,2060,2050,2052,2057,2059,2043
2044,2054,2053,2054,2064,2059,2043,2044
2038,2038,2039,2051,2070,2054,2037,2052
2039,2033,2031,2048,2065,2052,2046,2060
2040,2035,2027,2047,2064,2060,2067,2062
2043,2036,2031,2049,2059,2058,2052,2068
2042,2045,2034,2048,2058,2056,2041,2071
2044,2046,2045,2047,2059,2054,2055,2068
2032,2038,2038,2047,2049,2050,2041,2067
2028,2031,2026,2035,2041,2051,2057,2079
2024,2021,2018,2025,2033,2044,2045,2074
2015,2014,2012,2022,2023,2045,2032,2070
2021,2016,2022,2018,2025,2043,2034,2068
2029,2029,2033,2026,2023,2040,2035,2068
2036,2033,2032,2028,2026,2044,2035,2068
2044,2043,2036,2037,2041,2041,2030,2066
2046,2042,2029,2036,2048,2050,2035,2054
2041,2036,2005,2044,2038,2050,2037,2051
2042,2032,2004,2053,2044,2050,2043,2038
2035,2030,2015,2058,2048,2050,2016,2043
2031,2032,2025,2064,2050,2053,2043,2041
2030,2034,2017,2063,2050,2056,2040,2035
2035,2038,2010,2057,2049,2055,2052,2037
2034,2042,2019,2066,2045,2052,2064,2038
2038,2045,2032,2078,2057,2053,2057,2032
2045,2047,2037,2081,2058,2060,2060,2034
2048,2042,2038,2088,2046,2058,2040,2031
2037,2042,2043,2085,2045,2055,2036,2029
2041,2051,2037,2085,2050,2054,2062,2039
2050,2055,2047,2085,2041,2045,2041,2043
2045,2049,2034,2066,2022,2035,2036,2033
2048,2051,2038,2056,2014,2030,2043,2036
2045,2052,2054,2049,2011,2035,2031,2037
2046,2057,2064,2044,2018,2036,2000,2041
2040,2052,2059,2046,2032,2044,2033,2043
2035,2045,2052,2037,2037,2044,2048,2055
2035,2040,2054,2036,2035,2043,2058,2067
2034,2041,2056,2044,2038,2046,2048,2071
2044,2058,2073,2061,2046,2057,2059,2082
2046,2073,2081,2070,2056,2056,2055,2083
2039,2066,2083,2067,2047,2053,2057,2088
2047,2065,2096,2062,2052,2062,2038,2090
2049,2068,2102,2058,2062,2057,2050,2091
2050,2057,2100,2047,2070,2053,2045,2081
2044,2056,2086,2034,2056,2054,2049,2091
2045,2055,2078,2019,2037,2052,2055,2084
2045,2054,2069,2015,2021,2048,2050,2081
2048,2058,2080,2033,2032,2058,2043,2080
2050,2066,2098,2052,2044,2060,2050,2077
2054,2075,2101,2057,2058,2063,2051,2067
2060,2072,2095,2061,2057,2060,2031,2065
2061,2067,2085,2063,2061,2061,2040,2060
2056,2066,2084,2059,2046,2050,2035,2045
2059,2064,2076,2054,2043,2048,2049,2055
2057,2058,2071,2042,2036,2042,2062,2042
2046,2053,2052,2035,2044,2029,2064,2041
2052,2049,2054,2043,2069,2033,2062,2042
2051,2056,2062,2054,2120,2046,2053,2042
2051,2062,2064,2054,2149,2041,2045,2037
2042,2051,2053,2051,2148,2045,2021,2037
2045,2043,2056,2056,2143,2049,2028,2040
2051,2052,2065,2072,2163,2055,2056,2045
2042,2056,2057,2071,2152,2058,2060,2044
2050,2052,2061,2066,2138,2054,2048,2052
2055,2064,2061,2062,2096,2050,2043,2053
2054,2064,2058,2028,1985,2032,2049,2057
2057,2058,2051,2013,1887,2026,2039,2060
2049,2066,2056,2022,1856,2021,2033,2062
2047,2069,2052,2030,1899,2037,2021,2075
2046,2060,2038,2043,1949,2037,2044,2066
2044,2057,2029,2041,1977,2038,2039,2067
2049,2058,2022,2042,1982,2037,2033,2080
2057,2053,2016,2036,1994,2041,2034,2091
2046,2055,2018,2030,2006,2048,2059,2096
2049,2056,2016,2019,1997,2049,2050,2097
2043,2038,1984,1999,1982,2037,2018,2091
2038,2035,1974,2001,1981,2043,2039,2092
2043,2039,1999,2018,2006,2056,2042,2084
2037,2049,2021,2034,2020,2060,2054,2082
2037,2050,2020,2038,2029,2056,2043,2075
2044,2037,2012,2027,2006,2048,2045,2064
2043,2033,2006,2023,2001,2046,2051,2057
2043,2033,1999,2021,2026,2040,2042,2054
2046,2029,2003,2031,2063,2054,2058,2051
2039,2024,2008,2025,2092,2052,2046,2043
2042,2034,2027,2030,2119,2057,2034,2039
2044,2052,2051,2044,2127,2064,2034,2035
2050,2062,2067,2046,2112,2057,2048,2037
2049,2052,2061,2045,2091,2047,2028,2031
2044,2035,2048,2035,2072,2033,2036,2023
2035,2031,2050,2026,2042,2032,2020,2022
2032,2022,2052,2023,2014,2035,2020,2030
2025,2024,2048,2024,2046,2037,2029,2032
2031,2041,2064,2036,2080,2058,2043,2041
2043,2053,2076,2038,2064,2055,2033,2040
2051,2063,2094,2049,2051,2056,2032,2039
2052,2075,2113,2061,2055,2053,2052,2043
2050,2068,2132,2070,2059,2057,2057,2051
2056,2071,2143,2075,2059,2059,2075,2052
2049,2065,2128,2079,2049,2060,2060,2052
2044,2054,2108,2087,2044,2066,2067,2061
2046,2055,2093,2089,2042,2067,2063,2067
2047,2057,2083,2082,2039,2059,2066,2066
2040,2051,2075,2085,2054,2055,2068,2075
2049,2056,2073,2085,2089,2054,2057,2078
2047,2063,2072,2081,2102,2055,2059,2079
2047,2058,2059,2062,2099,2060,2067,2082
2038,2048,2051,2045,2100,2061,2053,2081
2034,2041,2035,2037,2136,2073,2049,2076
2033,2032,2029,2041,2147,2077,2054,2079
2030,2039,2030,2034,2146,2076,2056,2074
2034,2027,2034,2030,2147,2071,2052,2062
2042,2037,2032,2025,2108,2053,2052,2062
2035,2037,2029,2010,1974,2047,2046,2054
2035,2037,2034,2007,1947,2043,2040,2054
2032,2044,2043,2023,1986,2048,2049,2052
2045,2050,2054,2037,2002,2048,2055,2040
2045,2053,2054,2037,1992,2030,2045,2037
2040,2045,2048,2030,1986,2010,2024,2030
2039,2047,2046,2031,2012,2024,2034,2034
2040,2042,2047,2042,2018,2039,2051,2036
2043,2049,2051,2046,2005,2040,2043,2028
2046,2052,2054,2045,2000,2032,2047,2027
2043,2049,2059,2041,1995,2034,2044,2028
2042,2057,2060,2040,1994,2030,2044,2017
2042,2047,2049,2037,2000,2032,2043,2024
2043,2043,2051,2039,2006,2035,2059,2020
2044,2044,2049,2030,2005,2034,2053,2026
2044,2039,2034,2025,2023,2039,2063,2038
2040,2033,2033,2035,2038,2050,2064,2039
2046,2032,2030,2045,2057,2058,2066,2051
2045,2028,2016,2043,2053,2051,2051,2048
2043,2026,2003,2046,2057,2051,2029,2043
2033,2020,1990,2032,2051,2043,2047,2047
2035,2013,1984,2032,2035,2044,2036,2055
2033,2021,1968,2027,2021,2046,2037,2053
2041,2019,1968,2034,2007,2049,2040,2070
2043,2019,1962,2042,2003,2050,2055,2068
2042,2026,1978,2054,2015,2050,2045,2069
2044,2023,1984,2061,2011,2043,2042,2068
2037,2019,1973,2056,2006,2040,2032,2060
2027,2004,1971,2049,2003,2021,2025,2058
2026,2000,1971,2047,1997,2025,2031,2052
2031,2022,1992,2058,2003,2042,2057,2062
2034,2022,2007,2058,2007,2042,2045,2061
2030,2023,2041,2064,2068,2033,2029,2049
2024,2038,2089,2074,2111,2044,2040,2052
2043,2080,2155,2100,2112,2054,2052,2056
2058,2090,2154,2095,2080,2052,2053,2047
2056,2086,2131,2081,2058,2043,2059,2046
2051,2085,2117,2065,2042,2032,2044,2045
2046,2075,2101,2050,2030,2029,2050,2040
2048,2067,2097,2045,2033,2032,2049,2033
2050,2072,2101,2051,2039,2041,2046,2037
2040,2073,2108,2035,2041,2048,2044,2037
2053,2085,2113,2037,2051,2062,2056,2036
2053,2085,2114,2039,2046,2060,2045,2035
2049,2076,2097,2037,2046,2044,2046,2023
2046,2065,2086,2038,2044,2042,2046,2028
2053,2060,2089,2045,2045,2046,2054,2035
2055,2072,2092,2053,2056,2053,2048,2038
2057,2073,2098,2059,2065,2055,2037,2042
2055,2077,2096,2067,2077,2051,2054,2039
2058,2072,2095,2067,2075,2050,2038,2049
2052,2069,2092,2069,2080,2050,2049,2051
2050,2061,2088,2070,2074,2059,2045,2046
2052,2057,2080,2068,2080,2059,2033,2051
2052,2052,2077,2070,2080,2058,2054,2049
2051,2051,2074,2083,2076,2058,2044,2050
2049,2047,2082,2085,2064,2058,2047,2060
2043,2046,2082,2076,2043,2056,2037,2071
2038,2045,2074,2063,2036,2047,2030,2070
2044,2045,2069,2058,2025,2042,2043,2086
2045,2052,2076,2058,2028,2044,2036,2082
2048,2054,2070,2046,2031,2040,2036,2084
2039,2046,2059,2045,2033,2045,2049,2079
2042,2058,2064,2049,2036,2045,2049,2073
2048,2048,2059,2053,2038,2044,2061,2069
2044,2049,2050,2056,2037,2045,2049,2062
2039,2046,2045,2053,2031,2044,2052,2052
2042,2050,2048,2060,2034,2044,2038,2044
2044,2048,2046,2059,2033,2047,2059,2044
2048,2054,2044,2057,2040,2049,2049,2045
2046,2053,2042,2052,2049,2052,2051,2043
2051,2048,2041,2043,2058,2056,2050,2042
2046,2046,2033,2043,2049,2058,2050,2044
2044,2050,2024,2028,2051,2052,2041,2038
2037,2043,2028,2026,2049,2049,2060,2031
2043,2046,2020,2024,2037,2042,2061,2031
2040,2038,2019,2021,2038,2034,2028,2028
2028,2027,2005,2020,2030,2033,2001,2029
2027,2019,1997,2025,2026,2032,2035,2032
2039,2028,1993,2027,2034,2049,2041,2035
2035,2036,2014,2043,2040,2052,2058,2041
2042,2046,2022,2056,2051,2047,2053,2040
2042,2046,2034,2063,2050,2052,2062,2047
2040,2047,2040,2051,2050,2054,2060,2049
2043,2050,2032,2056,2049,2050,2058,2050
2049,2048,2029,2051,2048,2053,2062,2046
2045,2042,2018,2053,2046,2053,2045,2054
2049,2045,2026,2055,2041,2053,2044,2055
2051,2053,2031,2049,2031,2050,2048,2066
2045,2049,2024,2043,2021,2044,2052,2075
2047,2051,2032,2036,2023,2040,2050,2075
2045,2058,2059,2054,2043,2044,2060,2074
2047,2067,2082,2066,2043,2047,2049,2074
2045,2054,2067,2053,2032,2038,2036,2062
2036,2039,2047,2052,2034,2044,2046,2074
2042,2045,2048,2049,2036,2049,2038,2076
2042,2045,2032,2046,2046,2052,2049,2063
2029,2040,2021,2048,2044,2049,2036,2062
2036,2041,2022,2046,2041,2056,2044,2054
2036,2048,2027,2038,2040,2053,2033,2056
2045,2049,2027,2037,2053,2051,2041,2044
2044,2046,2030,2048,2051,2056,2045,2046
2037,2042,2032,2053,2047,2049,2036,2037
2046,2044,2037,2053,2045,2045,2023,2034
2038,2045,2041,2050,2047,2043,2035,2035
2037,2044,2051,2053,2042,2043,2052,2034
2046,2055,2072,2065,2057,2041,2054,2028
2047,2061,2084,2075,2052,2047,2047,2028
2046,2063,2083,2073,2043,2046,2034,2027
2046,2070,2070,2055,2035,2034,2015,2028
2040,2058,2052,2027,2028,2040,2030,2029
2042,2064,2048,2018,2051,2045,2054,2035
2043,2056,2039,2005,2044,2051,2053,2043
2044,2058,2038,2004,2032,2046,2054,2036
2042,2056,2046,2011,2039,2047,2062,2044
2048,2058,2053,2019,2034,2053,2056,2050
2050,2057,2062,2024,2043,2048,2057,2056
2055,2052,2064,2021,2041,2046,2059,2061
2046,2047,2054,2019,2044,2042,2068,2059
2044,2048,2050,2024,2039,2041,2059,2061
2033,2048,2061,2029,2042,2042,2046,2067
2038,2048,2066,2036,2055,2048,2035,2064
2035,2043,2067,2047,2051,2049,2047,2072
2028,2045,2071,2050,2051,2051,2034,2074
2028,2048,2069,2048,2051,2055,2043,2076
2038,2053,2076,2052,2055,2054,2021,2077
2029,2039,2069,2048,2045,2048,2015,2072
2032,2038,2059,2048,2047,2048,2043,2080
2043,2043,2057,2045,2047,2045,2050,2071
2038,2045,2044,2045,2038,2044,2049,2078
2038,2044,2032,2036,2029,2040,2032,2067
2043,2049,2035,2035,2025,2043,2047,2059
2040,2048,2047,2033,2021,2042,2056,2051
2040,2045,2050,2041,2005,2036,2046,2044
2039,2050,2054,2042,2016,2041,2048,2038
2047,2053,2056,2043,2034,2046,2042,2036
2043,2063,2064,2060,2043,2050,2052,2035
2055,2068,2084,2068,2046,2057,2051,2027
2057,2075,2086,2078,2038,2052,2034,2024
2054,2068,2082,2072,2038,2044,2041,2023
2051,2062,2075,2071,2044,2047,2044,2020
2046,2060,2073,2069,2070,2054,2052,2021
2041,2056,2066,2068,2076,2052,2030,2014
2036,2054,2064,2066,2064,2057,2012,2016
2038,2062,2078,2080,2070,2062,2034,2021
2040,2066,2073,2078,2064,2058,2016,2026
2040,2071,2073,2077,2051,2052,2019,2030
2044,2068,2074,2071,2044,2047,2052,2026
2045,2065,2073,2059,2027,2048,2050,2032
2051,2062,2065,2039,2008,2044,2058,2032
2039,2052,2043,2019,1992,2034,2037,2036
2036,2040,2034,2009,1984,2035,2034,2048
2033,2033,2033,2011,1977,2028,2024,2056
2039,2049,2048,2021,1993,2031,2041,2063
2043,2055,2050,2027,2010,2038,2050,2072
2047,2057,2053,2033,2019,2045,2057,2077
2048,2055,2046,2038,2048,2053,2053,2078
2048,2054,2047,2043,2057,2053,2055,2080
2046,2054,2046,2042,2055,2044,2042,2072
2039,2046,2049,2040,2066,2042,2044,2070
2041,2057,2066,2048,2087,2053,2048,2077
2044,2064,2074,2063,2106,2053,2044,2078
2047,2060,2068,2061,2111,2055,2038,2074
2051,2054,2060,2062,2085,2058,2052,2071
2050,2061,2061,2056,2063,2050,2019,2062
2050,2055,2049,2047,2046,2041,2021,2049
2050,2055,2050,2040,2032,2036,2017,2046
2048,2055,2050,2033,2034,2037,2023,2038
2052,2050,2035,2035,2042,2036,2043,2035
2047,2056,2052,2033,2035,2038,2036,2038
2048,2059,2054,2034,2047,2042,2029,2038
2044,2057,2054,2036,2050,2042,2037,2039
2050,2056,2054,2036,2051,2044,2018,2033
2046,2057,2053,2040,2054,2049,2053,2024
2053,2057,2051,2044,2055,2041,2053,2025
2042,2044,2037,2033,2039,2040,2017,2022
2039,2040,2040,2030,2037,2041,2047,2028
2046,2047,2038,2040,2053,2051,2046,2036
2048,2058,2038,2049,2063,2058,2033,2044
2049,2054,2033,2048,2059,2061,2046,2039
2049,2039,2018,2040,2050,2062,2037,2043
2040,2033,2005,2038,2046,2076,2047,2042
2035,2031,2001,2036,2055,2090,2051,2038
2041,2036,2011,2044,2061,2097,2058,2046
2050,2036,2016,2046,2065,2086,2044,2054
2044,2048,2015,2044,2062,2039,2047,2057
2048,2042,2014,2045,2064,2017,2044,2065
2041,2040,2014,2045,2073,2029,2031,2071
2041,2037,2012,2046,2064,2042,2052,2075
2039,2040,2023,2044,2059,2049,2060,2074
2034,2043,2030,2043,2060,2047,2047,2075
2033,2037,2043,2037,2047,2037,2024,2071
2018,2028,2035,2026,2034,2029,2020,2075
2022,2026,2035,2028,2040,2032,2024,2081
2036,2048,2062,2035,2042,2031,2047,2074
2040,2055,2087,2044,2044,2038,2049,2072
2046,2061,2097,2051,2041,2043,2057,2068
2045,2065,2098,2053,2041,2042,2052,2061
2051,2060,2087,2051,2044,2034,2051,2051
2044,2057,2081,2050,2047,2036,2047,2044
2045,2053,2073,2047,2054,2042,2041,2038
2044,2047,2063,2048,2050,2043,2035,2039
2042,2037,2044,2039,2051,2046,2042,2040
2044,2041,2051,2043,2050,2040,2030,2035
2041,2039,2056,2049,2054,2039,2039,2028
2044,2049,2071,2061,2059,2044,2035,2021
2054,2067,2083,2068,2059,2040,2027,2026
2048,2050,2073,2061,2050,2035,2041,2021
2032,2027,2056,2050,2040,2033,2043,2009
2025,2020,2046,2050,2045,2042,2030,2022
2036,2034,2060,2066,2049,2051,2046,2032
2037,2044,2063,2059,2030,2055,2053,2029
2040,2046,2054,2050,2026,2053,2031,2034
2035,2046,2043,2046,2037,2055,2068,2042
2038,2054,2052,2052,2047,2057,2061,2048
2045,2051,2056,2049,2055,2061,2057,2056
2045,2044,2051,2046,2053,2062,2061,2053
2039,2052,2040,2039,2059,2058,2059,2057
2040,2056,2051,2037,2065,2061,2074,2058
2049,2065,2062,2042,2056,2064,2053,2059
2045,2070,2068,2040,2061,2067,2049,2069
2045,2063,2045,2038,2058,2072,2046,2071
2042,2044,2030,2027,2057,2069,2046,2071
2040,2041,2012,2033,2055,2074,2057,2071
2038,2035,2009,2023,2035,2048,2048,2070
2032,2024,2012,2026,2029,2037,2032,2061
2041,2040,2019,2031,2029,2035,2037,2068
2036,2045,2017,2018,2030,2030,2042,2065
2040,2048,2016,2019,2026,2024,2050,2056
2043,2042,2009,2009,2032,2033,2067,2055
2045,2049,2013,2014,2025,2040,2056,2056
2046,2052,2014,2014,2023,2039,2047,2052
2051,2053,2017,2016,2033,2044,2040,2049
2058,2061,2026,2023,2041,2049,2034,2045
2053,2056,2036,2030,2043,2046,2032,2036
2051,2056,2044,2036,2052,2047,2039,2041
2050,2054,2045,2038,2044,2041,2047,2035
2047,2056,2050,2044,2037,2038,2057,2031
2046,2049,2066,2054,2043,2047,2054,2021
2041,2049,2069,2054,2039,2044,2072,2031
2041,2051,2067,2054,2041,2045,2041,2025
2035,2040,2061,2056,2036,2037,2047,2019
2031,2036,2060,2050,2043,2042,2052,2022
2036,2048,2060,2060,2052,2045,2040,2020
2036,2036,2048,2048,2052,2040,2032,2023
2029,2032,2037,2048,2054,2048,2043,2025
2031,2039,2037,2052,2060,2047,2073,2026
2033,2041,2039,2056,2066,2049,2063,2031
2040,2044,2032,2057,2064,2054,2069,2037
2040,2047,2025,2043,2059,2049,2053,2043
2034,2046,2015,2032,2051,2051,2056,2045
2037,2037,2015,2020,2047,2043,2037,2058
2037,2037,2020,2016,2038,2039,2074,2064
2039,2040,2028,2011,2023,2025,2048,2065
2035,2041,2020,1999,2005,2020,2046,2078
2039,2040,2005,1992,2008,2027,2049,2079
2041,2039,2014,2010,2015,2040,2054,2086
2046,2046,2029,2016,2023,2038,2031,2090
2050,2044,2029,2032,2018,2031,2033,2086
2052,2054,2050,2038,2021,2038,2059,2090
2060,2062,2062,2046,2024,2046,2067,2087
2059,2055,2065,2046,2029,2045,2048,2081
2060,2057,2074,2050,2026,2052,2059,2073
2060,2066,2092,2052,2043,2052,2039,2065
2064,2079,2105,2059,2062,2058,2040,2056
2065,2082,2107,2051,2082,2060,2046,2049
2055,2069,2088,2040,2113,2056,2044,2048
2050,2058,2067,2030,2113,2052,2037,2040
2046,2054,2056,2030,2131,2052,2052,2040
2050,2042,2055,2042,2144,2056,2046,2035
2052,2040,2050,2052,2156,2057,2044,2038
2054,2041,2051,2055,2142,2050,2038,2031
2050,2044,2056,2053,2112,2044,2064,2029
2050,2050,2069,2057,2101,2046,2048,2023
2051,2041,2056,2046,2070,2038,2020,2023
2040,2026,2048,2040,2015,2038,2035,2019
2036,2022,2042,2030,1920,2034,2031,2023
2054,2033,2045,2029,1924,2036,2027,2032
2051,2039,2049,2039,1981,2041,2040,2036
2049,2042,2048,2048,2005,2042,2030,2034
2054,2052,2059,2053,2029,2039,2051,2036
2051,2054,2046,2051,2032,2040,2057,2043
2054,2056,2045,2055,2034,2045,2050,2045
2053,2058,2043,2053,2029,2050,2046,2046
2043,2055,2040,2050,2032,2044,2050,2051
2046,2050,2044,2042,2026,2042,2037,2056
2053,2053,2045,2038,2030,2044,2056,2064
2056,2055,2047,2026,2027,2043,2057,2072
2055,2054,2046,2020,2024,2044,2066,2080
2055,2050,2049,2017,2024,2040,2050,2086
2058,2054,2049,2017,2024,2046,2049,2084
2053,2044,2045,2020,2024,2037,2046,2084
2049,2042,2053,2022,2023,2039,2048,2077
2049,2051,2064,2035,2034,2053,2053,2080
2054,2058,2072,2037,2031,2057,2056,2064
2050,2064,2083,2042,2027,2059,2053,2064
2052,2059,2073,2044,2029,2054,2050,2062
2047,2059,2068,2040,2027,2052,2058,2052
2055,2058,2064,2038,2028,2049,2049,2051
2048,2056,2060,2041,2026,2052,2054,2048
2052,2051,2054,2041,2031,2052,2063,2040
2051,2048,2056,2037,2028,2053,2046,2032
2053,2043,2051,2038,2038,2051,2058,2031
2045,2039,2043,2044,2040,2049,2046,2035
2057,2049,2045,2042,2044,2047,2062,2026
2052,2044,2039,2037,2044,2050,2055,2031
2046,2041,2035,2041,2050,2049,2048,2018
2046,2039,2041,2050,2043,2045,2042,2020
2047,2037,2041,2047,2036,2048,2050,2025
2047,2040,2036,2046,2040,2047,2043,2029
2049,2041,2041,2057,2048,2053,2055,2030
2049,2042,2040,2061,2044,2049,2068,2037
2056,2049,2045,2054,2040,2046,2074,2034
2050,2044,2048,2039,2021,2041,2056,2033
2046,2039,2043,2036,1976,2040,2062,2041
2042,2041,2040,2031,1974,2037,2055,2044
2040,2038,2038,2028,1998,2039,2068,2046
2041,2039,2042,2039,2006,2042,2055,2049
2045,2041,2043,2042,2026,2044,2049,2048
2043,2033,2031,2039,2037,2050,2053,2050
2040,2026,2032,2044,2043,2058,2057,2064
2036,2025,2028,2048,2037,2060,2045,2064
2034,2023,2034,2040,2032,2057,2036,2065
2030,2024,2035,2036,2033,2051,2054,2069
2040,2036,2047,2030,2045,2042,2031,2065
2038,2031,2046,2028,2047,2041,2028,2070
2041,2041,2051,2035,2034,2042,2029,2075
2050,2054,2050,2033,2027,2043,2054,2067
2047,2048,2044,2035,2031,2034,2053,2065
2050,2046,2044,2044,2042,2043,2051,2057
2055,2047,2051,2043,2041,2041,2031,2052
2053,2047,2041,2037,2023,2045,2032,2043
2053,2044,2036,2034,2021,2045,2044,2043
2053,2040,2038,2038,2018,2042,2061,2036
2045,2042,2033,2035,2025,2041,2057,2026
2043,2038,2037,2028,2026,2043,2057,2026
2050,2045,2051,2031,2025,2046,2054,2020
2053,2051,2065,2036,2038,2048,2045,2019
2051,2043,2052,2028,2052,2051,2040,2019
2047,2034,2036,2031,2069,2053,2040,2025
2046,2028,2031,2036,2065,2048,2043,2026
2043,2030,2025,2030,2053,2036,2041,2022
2037,2021,2036,2031,2036,2034,2031,2023
2042,2042,2046,2039,2054,2046,2034,2031
2054,2051,2054,2046,2054,2049,2055,2044
2058,2042,2048,2044,2060,2049,2047,2047
2052,2039,2041,2046,2059,2046,2061,2032
2051,2042,2047,2043,2057,2051,2047,2032
2052,2050,2054,2043,2058,2050,2023,2034
2052,2057,2056,2044,2047,2047,2021,2047
2054,2057,2051,2040,2045,2036,2049,2053
2052,2048,2039,2027,2049,2035,2054,2061
2057,2049,2035,2026,2051,2042,2058,2059
2058,2049,2043,2033,2051,2043,2063,2065
2051,2048,2046,2040,2056,2054,2057,2065
2054,2052,2052,2052,2065,2052,2057,2067
2057,2053,2063,2052,2070,2046,2029,2066
2044,2049,2062,2045,2087,2044,2028,2060
2042,2049,2056,2049,2113,2059,2044,2061
2048,2052,2061,2059,2117,2075,2043,2069
2048,2061,2067,2065,2119,2077,2057,2075
2058,2068,2071,2069,2117,2068,2049,2080
2060,2068,2070,2070,2102,2068,2040,2070
2058,2072,2062,2062,2082,2062,2040,2062
2062,2066,2052,2055,2076,2057,2037,2058
2063,2055,2043,2049,2055,2045,2040,2049
2059,2046,2038,2036,1967,2025,2055,2044
2061,2044,2031,2031,1935,2015,2052,2034
2054,2047,2026,2036,1975,2022,2037,2034
2056,2051,2029,2042,1998,2029,2054,2031
2054,2054,2040,2036,2007,2028,2039,2028
2053,2055,2035,2040,2034,2037,2027,2027
2054,2053,2035,2053,2047,2052,2037,2029
2053,2049,2023,2046,2045,2052,2036,2012
2042,2030,2018,2049,2054,2044,2038,2007
2034,2028,2024,2056,2070,2055,2038,2020
2051,2038,2040,2069,2062,2052,2042,2026
2046,2044,2043,2081,2060,2056,2045,2025
2047,2036,2048,2074,2055,2051,2038,2024
2041,2035,2038,2064,2036,2051,2039,2023
2039,2038,2046,2050,2012,2047,2033,2033
2048,2046,2062,2055,2025,2055,2047,2038
2054,2057,2078,2065,2034,2060,2055,2045
2056,2058,2083,2060,2051,2060,2047,2046
2056,2055,2068,2056,2059,2057,2057,2060
2051,2044,2045,2046,2058,2055,2038,2059
2045,2035,2022,2038,2057,2052,2034,2064
2039,2025,2012,2047,2052,2048,2037,2065
2041,2032,2016,2042,2045,2049,2037,2062
2047,2036,2019,2032,2036,2044,2043,2066
2045,2027,2012,2035,2028,2042,2036,2065
2044,2028,2003,2026,2039,2057,2034,2066
2046,2033,2012,2034,2067,2064,2041,2064
2050,2037,2016,2042,2096,2067,2033,2065
2048,2033,2018,2053,2101,2068,2056,2057
2044,2039,2022,2057,2110,2071,2059,2049
2050,2041,2034,2063,2105,2081,2058,2044
2050,2042,2044,2069,2099,2083,2059,2031
2046,2034,2047,2070,2088,2077,2057,2036
2052,2037,2055,2061,2054,2063,2051,2024
2044,2033,2052,2042,2006,2050,2034,2023
2043,2035,2052,2026,1987,2028,2059,2023
2046,2041,2052,2019,1983,2020,2055,2021
2049,2053,2055,2026,1981,2022,2056,2026
2050,2054,2056,2043,1990,2017,2054,2027
2047,2045,2048,2033,2000,2026,2046,2013
2047,2036,2029,2037,2004,2024,2041,2021
2046,2037,2042,2041,2008,2026,2041,2022
2044,2041,2047,2055,2039,2040,2047,2020
2049,2045,2056,2066,2075,2057,2048,2024
2062,2057,2056,2072,2076,2057,2034,2032
2058,2063,2054,2069,2060,2056,2053,2035
2055,2056,2037,2068,2056,2055,2047,2030
2047,2044,2021,2063,2049,2056,2048,2039
2040,2044,2017,2053,2050,2048,2047,2033
2053,2051,2026,2050,2052,2042,2041,2046
2051,2048,2023,2033,2032,2039,2042,2049
2052,2040,2019,2017,2023,2037,2046,2055
2055,2042,2025,2032,2042,2041,2044,2053
2043,2035,2024,2039,2058,2043,2044,2060
2046,2033,2016,2039,2061,2047,2063,2066
2043,2036,2019,2036,2060,2047,2044,2066
2036,2021,2008,2032,2048,2040,2034,2067
2035,2034,2025,2041,2050,2048,2043,2072
2053,2061,2053,2053,2049,2056,2058,2064
2056,2060,2056,2053,2021,2044,2051,2061
2049,2050,2052,2044,2017,2040,2038,2058
2045,2046,2054,2049,2021,2041,2054,2047
2048,2035,2043,2049,2032,2043,2047,2044
2035,2028,2035,2047,2029,2043,2041,2043
2039,2028,2038,2047,2037,2047,2055,2024
2039,2032,2026,2045,2041,2045,2030,2025
2032,2021,2019,2037,2034,2040,2055,2025
2034,2021,2016,2030,2037,2037,2059,2024
2040,2027,2031,2025,2026,2042,2062,2018
2040,2027,2027,2022,2020,2040,2053,2013
2038,2022,2013,2022,2033,2041,2041,2018
2041,2024,2019,2034,2051,2045,2046,2020
2034,2018,2012,2036,2052,2046,2052,2018
2033,2014,2012,2034,2052,2048,2073,2029
2046,2027,2021,2037,2052,2041,2062,2028
2045,2036,2031,2047,2046,2043,2063,2034
2046,2049,2052,2048,2051,2049,2075,2037
2048,2061,2053,2056,2055,2051,2070,2038
2055,2064,2054,2052,2056,2052,2077,2049
2055,2055,2053,2055,2056,2050,2076,2054
2058,2054,2064,2055,2057,2059,2060,2064
2057,2064,2085,2069,2067,2066,2074,2072
2060,2081,2100,2080,2067,2078,2077,2079
2072,2087,2119,2098,2073,2087,2080,2069
2070,2079,2117,2096,2072,2095,2082,2082
2068,2081,2119,2098,2072,2100,2069,2088
2066,2076,2117,2105,2066,2102,2063,2083
2057,2069,2108,2099,2065,2088,2065,2073
2051,2065,2097,2098,2062,2039,2057,2071
2051,2065,2102,2101,2053,2019,2053,2071
2053,2073,2095,2098,2056,2024,2059,2064
2057,2066,2083,2093,2060,2033,2040,2060
2052,2058,2064,2089,2052,2037,2060,2056
2047,2057,2046,2068,2044,2035,2049,2046
2052,2054,2038,2056,2040,2034,2029,2041
2048,2052,2038,2055,2038,2040,2050,2032
2045,2056,2032,2052,2045,2041,2034,2030
2049,2055,2032,2043,2056,2043,2036,2028
2057,2052,2022,2028,2055,2035,2065,2033
2053,2048,2013,2016,2053,2040,2060,2037
2054,2048,2004,2017,2057,2043,2066,2029
2052,2046,2028,2033,2058,2046,2056,2029
2058,2062,2044,2052,2062,2051,2040,2034
2054,2064,2040,2053,2072,2047,2064,2024
2049,2050,2019,2046,2068,2044,2052,2027
2050,2046,2010,2047,2068,2044,2061,2034
2059,2063,2030,2054,2062,2048,2070,2031
2060,2062,2031,2055,2063,2045,2048,2035
2061,2060,2023,2055,2062,2046,2048,2037
2062,2056,2023,2054,2062,2056,2063,2043
2059,2056,2030,2067,2095,2062,2064,2048
2059,2054,2042,2068,2124,2063,2073,2051
2061,2062,2061,2062,2130,2061,2072,2048
2056,2054,2069,2051,2108,2061,2053,2049
2047,2044,2064,2035,2062,2055,2043,2052
2042,2039,2068,2016,2078,2048,2040,2064
2041,2040,2057,2011,2098,2052,2038,2068
2044,2044,2059,2024,2070,2052,2045,2077
2045,2047,2057,2034,2040,2055,2080,2084
2053,2052,2053,2038,2004,2057,2074,2086
2045,2039,2041,2028,1885,2034,2059,2073
2041,2038,2041,2018,1886,2036,2048,2072
2047,2045,2041,2028,1923,2039,2051,2068
2043,2045,2051,2030,1940,2029,2054,2061
2043,2044,2046,2035,1964,2017,2056,2059
2037,2049,2041,2028,1964,2008,2053,2052
2041,2045,2040,2032,1981,2017,2056,2046
2043,2048,2043,2038,2017,2032,2047,2042
2038,2044,2041,2042,2063,2036,2043,2038
2042,2039,2042,2055,2093,2043,2061,2034
2038,2039,2038,2057,2103,2040,2049,2024
2039,2041,2040,2057,2111,2043,2062,2030
2035,2040,2042,2057,2108,2044,2058,2024
2043,2044,2038,2060,2080,2040,2048,2023
2043,2046,2040,2059,2045,2030,2045,2024
2040,2050,2039,2047,2024,2028,2050,2018
2035,2040,2032,2049,2026,2032,2052,2021
2039,2033,2035,2051,2049,2038,2049,2025
2046,2038,2033,2055,2054,2039,2066,2035
2044,2043,2035,2055,2043,2036,2070,2034
2051,2035,2028,2052,2047,2044,2041,2030
2044,2041,2021,2050,2047,2038,2019,2023
2045,2033,2017,2046,2036,2029,2042,2025
2035,2021,2012,2046,2049,2032,2041,2027
2034,2021,2008,2046,2049,2036,2040,2033
2027,2020,2010,2045,2054,2045,2039,2038
2027,2015,2004,2047,2066,2058,2047,2051
2022,2020,1998,2052,2076,2061,2052,2050
2031,2014,1995,2043,2054,2054,2061,2065
2035,2013,1997,2041,2051,2053,2058,2069
2034,2020,1993,2049,2051,2055,2062,2069
2032,2011,1985,2039,2032,2048,2041,2064
2021,2003,1979,2039,2031,2037,2037,2064
2027,2003,1978,2048,2029,2045,2049,2062
2034,2021,1988,2053,2035,2049,2064,2062
2039,2024,1987,2057,2033,2044,2054,2054
2042,2032,1978,2064,2037,2054,2067,2055
2044,2027,1976,2072,2063,2060,2060,2048
2046,2038,1992,2076,2075,2056,2068,2045
2047,2047,2012,2077,2071,2048,2066,2034
2053,2044,2019,2075,2065,2042,2059,2031
2053,2051,2024,2069,2067,2041,2064,2033
2060,2058,2031,2066,2063,2045,2051,2032
2051,2053,2032,2056,2048,2047,2039,2024
2051,2053,2040,2046,2042,2038,2032,2027
2049,2042,2067,2039,2039,2040,2057,2021
2054,2059,2109,2042,2039,2037,2047,2028
2058,2076,2146,2036,2045,2030,2056,2023
2054,2074,2154,2043,2036,2038,2040,2029
2054,2077,2139,2058,2048,2046,2035,2028
2060,2078,2111,2058,2053,2047,2041,2032
2062,2072,2090,2058,2057,2045,2058,2037
2056,2073,2087,2067,2055,2051,2065,2032
2058,2065,2087,2077,2060,2049,2064,2041
2056,2071,2079,2080,2058,2057,2055,2041
2052,2064,2080,2077,2063,2059,2059,2042
2057,2062,2076,2091,2060,2063,2078,2052
2061,2061,2084,2103,2063,2060,2064,2060
2058,2062,2086,2106,2064,2061,2059,2060
2060,2060,2088,2108,2063,2059,2069,2074
2053,2053,2083,2108,2043,2051,2066,2074
2054,2050,2070,2097,2037,2048,2066,2066
2052,2044,2066,2100,2037,2046,2059,2067
2048,2045,2057,2090,2026,2036,2029,2060
2042,2028,2047,2081,2020,2034,2035,2067
2033,2033,2044,2074,2011,2041,2051,2059
2039,2033,2042,2063,2004,2041,2059,2062
2040,2040,2038,2056,2006,2039,2050,2057
2045,2034,2032,2052,2016,2046,2056,2055
2040,2024,2008,2028,2011,2042,2052,2041
2033,2008,1983,1996,2014,2035,2045,2032
2027,2003,1989,1977,2036,2027,2031,2023
2027,2024,2026,1997,2067,2039,2041,2024
2039,2058,2070,2024,2074,2054,2059,2032
2054,2085,2100,2050,2083,2068,2046,2033
2070,2092,2101,2049,2097,2072,2043,2041
2068,2089,2089,2047,2105,2070,2055,2038
2067,2081,2084,2049,2089,2067,2046,2036
2062,2075,2083,2042,2084,2067,2053,2035
2062,2075,2079,2052,2100,2061,2041,2033
2053,2069,2084,2058,2088,2058,2058,2030
2058,2074,2081,2063,2081,2064,2062,2024
2064,2072,2069,2057,2091,2063,2059,2031
2054,2065,2066,2056,2090,2051,2053,2030
2056,2066,2059,2030,2033,2030,2054,2034
2062,2061,2055,2041,2034,2020,2060,2034
2057,2056,2054,2052,2025,2015,2049,2034
2049,2051,2056,2054,2019,2024,2057,2038
2040,2050,2054,2057,2045,2042,2056,2047
2042,2047,2054,2051,2044,2050,2058,2060
2042,2054,2052,2045,2028,2045,2054,2064
2044,2048,2049,2033,2035,2043,2058,2067
2039,2045,2054,2035,2017,2043,2057,2069
2040,2041,2052,2042,2020,2049,2061,2076
2045,2040,2044,2048,2039,2048,2057,2076
2042,2031,2034,2038,2033,2037,2049,2069
2036,2029,2032,2038,2029,2033,2036,2071
2038,2044,2054,2040,2041,2038,2049,2069
2042,2048,2046,2047,2034,2040,2046,2062
2044,2045,2037,2050,2025,2035,2044,2060
2044,2046,2044,2050,1992,2029,2042,2047
2046,2056,2045,2039,1977,2032,2038,2037
2034,2050,2043,2032,2002,2038,2054,2029
2035,2052,2038,2049,2041,2049,2051,2030
2031,2052,2036,2047,2059,2054,2052,2029
2033,2044,2029,2042,2063,2059,2055,2028
2028,2033,2019,2043,2072,2058,2055,2022
2034,2034,2015,2042,2071,2063,2049,2029
2042,2041,2024,2046,2063,2068,2059,2022
2044,2043,2027,2051,2066,2068,2062,2025
2040,2042,2036,2052,2060,2071,2059,2025
2046,2044,2031,2049,2057,2059,2054,2024
2044,2037,2024,2043,2059,2039,2052,2025
2048,2043,2022,2040,2041,2029,2060,2020
2049,2042,2029,2046,2036,2025,2057,2024
2043,2045,2043,2053,2052,2030,2057,2032
2045,2041,2049,2069,2057,2035,2043,2027
2048,2047,2064,2077,2060,2037,2052,2037
2043,2051,2061,2076,2066,2046,2061,2044
2050,2049,2061,2079,2060,2044,2055,2043
2050,2061,2082,2084,2061,2047,2060,2050
2049,2070,2091,2092,2066,2051,2060,2056
2052,2068,2092,2086,2070,2050,2057,2061
2054,2059,2073,2075,2059,2046,2053,2064
2048,2055,2060,2063,2057,2041,2050,2068
2042,2058,2050,2062,2052,2036,2044,2070
2043,2062,2055,2062,2058,2047,2032,2072
2044,2061,2056,2055,2059,2035,2047,2068
2035,2065,2046,2050,2065,2034,2036,2071
2046,2071,2050,2049,2061,2040,2050,2071
2049,2061,2040,2039,2061,2037,2042,2072
2049,2062,2047,2032,2051,2029,2058,2062
2046,2058,2047,2021,2044,2017,2049,2052
2041,2052,2042,2017,2047,2025,2050,2049
2042,2054,2047,2016,2049,2035,2041,2041
2052,2059,2047,2027,2054,2051,2035,2034
2051,2050,2040,2032,2055,2052,2062,2022
2047,2057,2036,2034,2063,2058,2046,2030
2040,2057,2033,2030,2055,2045,2044,2021
2040,2050,2027,2025,2035,2027,2034,2020
2036,2042,2017,2028,2037,2029,2028,2010
2040,2049,2023,2032,2049,2041,2042,2012
2049,2052,2026,2041,2054,2050,2047,2010
2045,2047,2024,2042,2056,2046,2053,2003
2046,2036,2028,2040,2056,2048,2054,2017
2046,2051,2044,2053,2066,2067,2063,2017
2050,2052,2042,2064,2067,2065,2070,2024
2043,2047,2042,2066,2068,2065,2064,2028
2052,2052,2044,2074,2063,2060,2079,2029
2054,2048,2046,2059,2044,2052,2062,2039
2049,2048,2044,2052,2050,2043,2071,2042
2052,2053,2049,2053,2069,2047,2067,2044
2041,2056,2051,2052,2072,2053,2062,2043
2042,2056,2053,2046,2042,2046,2044,2046
2036,2046,2049,2048,2052,2040,2032,2054
2040,2042,2036,2057,2082,2047,2035,2065
2043,2048,2044,2061,2076,2052,2041,2070
2046,2055,2051,2066,2058,2061,2034,2073
2048,2052,2047,2069,2062,2069,2040,2073
2047,2038,2034,2062,2063,2077,2056,2074
2042,2030,2029,2063,2063,2091,2067,2079
2053,2045,2038,2074,2062,2106,2046,2079
2061,2047,2034,2063,2057,2104,2049,2067
2052,2047,2029,2056,2055,2079,2052,2064
2054,2049,2029,2043,2017,2027,2048,2053
2063,2059,2025,2039,2005,1994,2037,2041
2056,2057,2027,2033,2015,2012,2044,2033
2058,2056,2025,2036,2025,2023,2046,2028
2055,2047,2027,2047,2027,2035,2045,2022
2051,2044,2035,2040,2026,2036,2025,2027
2047,2041,2042,2036,2030,2034,2032,2016
2039,2035,2042,2027,2046,2030,2029,2011
2039,2031,2039,2019,2051,2038,2024,2013
2038,2036,2041,2023,2047,2045,2040,2013
2035,2037,2049,2032,2044,2042,2048,2015
2032,2034,2048,2035,2035,2036,2046,2018
2030,2036,2048,2047,2038,2040,2040,2014
2043,2043,2066,2054,2046,2045,2033,2017
2042,2030,2057,2052,2040,2035,2047,2023
2045,2033,2058,2056,2044,2040,2033,2019
2037,2047,2070,2061,2052,2046,2028,2024
2042,2050,2072,2067,2052,2042,2041,2033
2048,2056,2068,2069,2059,2047,2049,2037
2054,2050,2053,2067,2050,2039,2037,2044
2048,2055,2045,2072,2052,2040,2041,2043
2048,2049,2029,2062,2048,2047,2061,2049
2047,2045,2016,2060,2057,2049,2036,2053
2050,2044,2011,2064,2054,2043,2056,2066
2049,2048,2002,2050,2043,2047,2058,2068
2045,2048,2014,2039,2046,2044,2046,2071
2049,2052,2013,2038,2046,2042,2029,2064
2042,2042,2009,2024,2037,2038,2013,2063
2047,2044,2012,2030,2048,2045,2036,2072
2055,2055,2026,2043,2058,2048,2043,2067
2061,2053,2028,2044,2098,2055,2042,2059
2058,2054,2030,2053,2127,2053,2043,2056
2061,2056,2040,2058,2126,2056,2033,2052
2057,2054,2042,2056,2109,2050,2028,2047
2052,2049,2044,2045,2090,2052,2031,2033
2045,2049,2053,2037,2083,2050,2013,2027
2041,2041,2059,2017,2055,2036,2006,2025
2038,2039,2060,2000,2031,2030,2017,2030
2046,2046,2077,2002,2005,2036,2036,2036
2058,2060,2100,2015,1922,2035,2037,2032
2060,2066,2107,2013,1864,2032,2037,2025
2066,2066,2083,2012,1908,2036,2044,2025
2063,2061,2071,2024,1948,2040,2046,2025
2056,2047,2054,2017,1954,2038,2038,2027
2049,2034,2031,2015,1978,2039,2033,2026
2046,2035,2029,2029,2019,2049,2049,2024
2050,2044,2028,2032,2045,2053,2049,2022
2059,2043,2038,2040,2057,2059,2047,2026
2056,2044,2032,2045,2069,2059,2043,2030
2054,2035,2025,2048,2096,2069,2038,2036
2054,2038,2027,2053,2117,2071,2052,2037
2053,2037,2017,2044,2117,2073,2049,2046
2054,2037,2002,2049,2107,2066,2055,2047
2054,2025,1996,2042,2103,2058,2042,2045
2057,2026,1989,2034,2090,2057,2012,2053
2052,2017,1996,2030,2079,2053,2041,2054
2040,2021,2014,2033,2068,2049,2038,2049
2027,2030,2044,2046,2063,2055,2036,2048
2029,2031,2044,2039,2055,2049,2036,2052
2015,2015,2032,2016,2039,2042,2030,2056
2019,2022,2039,2024,2021,2045,2022,2068
2027,2037,2065,2038,2024,2044,2035,2062
2039,2051,2092,2046,2028,2047,2032,2065
2054,2059,2097,2053,2042,2048,2026,2058
2061,2068,2096,2061,2043,2053,2031,2056
2058,2062,2096,2065,2050,2055,2034,2045
2057,2056,2081,2062,2054,2055,2033,2034
2048,2065,2090,2059,2062,2055,2020,2028
2059,2059,2089,2061,2066,2056,2020,2021
2057,2064,2084,2055,2065,2055,2033,2025
2051,2056,2081,2055,2070,2055,2029,2022
2053,2055,2070,2055,2064,2055,2035,2025
2050,2050,2053,2044,2057,2054,2050,2022
2048,2052,2030,2037,2039,2044,2036,2026
2055,2044,2012,2013,2011,2035,2018,2016
2043,2024,2000,1989,1968,2014,2016,2007
2034,2015,1997,1982,1997,2028,2031,2011
2042,2035,2015,1992,2050,2048,2037,2026
2052,2045,2012,1993,2043,2056,2031,2038
2056,2043,2013,1995,2042,2068,2052,2044
2057,2045,2033,2017,2022,2072,2059,2043
2064,2051,2048,2034,2005,2072,2056,2048
2062,2050,2055,2038,2002,2074,2060,2047
2062,2057,2063,2040,1982,2059,2044,2055
2065,2057,2061,2022,1958,2036,2031,2049
2053,2044,2054,2008,1995,2021,2033,2052
2037,2029,2043,2022,2036,2028,2033,2050
2036,2022,2042,2025,2027,2022,2005,2048
2028,2022,2058,2042,2056,2036,2036,2060
2031,2036,2087,2050,2080,2055,2038,2063
2039,2054,2097,2057,2074,2062,2061,2077
2046,2060,2087,2050,2062,2053,2061,2073
2047,2067,2085,2058,2054,2053,2049,2080
2056,2071,2083,2058,2059,2059,2048,2080
2057,2064,2075,2055,2061,2056,2023,2071
2064,2059,2071,2061,2057,2054,2026,2068
2063,2056,2065,2055,2049,2040,2021,2058
2064,2053,2059,2051,2051,2015,2020,2048
2050,2050,2053,2055,2074,2022,2027,2049
2057,2044,2046,2063,2098,2036,2039,2049
2052,2043,2054,2076,2112,2050,2038,2046
2056,2065,2073,2085,2118,2059,2051,2039
2062,2064,2069,2076,2127,2056,2034,2032
2055,2058,2059,2067,2107,2045,2029,2021
2055,2056,2054,2050,2090,2037,2028,2027
2049,2048,2049,2044,2077,2038,2034,2016
2044,2052,2055,2055,2082,2048,2042,2021
2045,2043,2044,2043,2031,2038,2032,2015
2040,2034,2034,2011,1920,2022,2002,2014
2040,2043,2042,2011,1917,2028,2018,2022
2045,2043,2047,2015,1968,2035,2033,2019
2043,2045,2046,2030,2019,2048,2045,2023
2048,2049,2045,2040,2050,2065,2056,2030
2050,2046,2045,2036,2042,2069,2056,2032
2041,2041,2043,2032,2037,2068,2055,2038
2041,2045,2047,2037,2034,2074,2051,2042
2046,2043,2046,2045,2034,2070,2062,2050
2042,2049,2049,2048,2034,2070,2051,2048
2048,2054,2052,2045,2026,2070,2038,2058
2051,2052,2053,2041,2030,2070,2053,2073
2046,2054,2046,2040,2015,2060,2029,2073
2049,2048,2042,2045,2030,2052,2044,2069
2045,2044,2041,2053,2044,2049,2017,2066
2043,2044,2038,2042,2028,2048,2038,2067
2043,2043,2032,2035,2018,2045,2049,2067
2041,2050,2034,2038,2013,2049,2048,2069
2035,2045,2031,2032,2014,2053,2037,2058
2037,2037,2024,2035,2018,2057,2046,2049
2038,2043,2031,2030,2025,2060,2045,2044
2044,2046,2026,2028,2042,2057,2053,2039
2048,2042,2028,2032,2062,2052,2040,2040
2048,2038,2021,2037,2070,2050,2040,2026
2043,2037,2026,2036,2066,2048,2023,2028
2042,2035,2024,2034,2050,2047,2037,2026
2047,2032,2025,2034,2044,2046,2045,2020
2038,2033,2025,2038,2043,2049,2043,2020
2040,2028,2032,2037,2035,2045,2021,2014
2034,2027,2028,2040,2038,2045,2037,2015
2035,2024,2033,2043,2034,2042,2028,2010
2029,2020,2040,2040,2030,2035,2017,2011
2028,2017,2044,2047,2032,2040,2029,2015
2039,2029,2058,2055,2047,2045,2057,2021
2041,2039,2070,2058,2053,2051,2057,2023
2039,2049,2078,2066,2049,2055,2060,2029
2049,2051,2083,2064,2055,2056,2049,2032
2046,2056,2089,2066,2057,2061,2040,2043
2056,2060,2083,2069,2054,2060,2060,2054
2056,2061,2077,2065,2055,2061,2044,2056
2053,2066,2070,2067,2056,2065,2044,2055
2053,2065,2074,2073,2059,2062,2048,2059
2048,2053,2081,2077,2051,2057,2033,2060
2045,2047,2066,2076,2056,2061,2029,2062
2043,2048,2059,2063,2050,2066,2025,2065
2042,2043,2053,2055,2055,2065,2035,2064
2045,2032,2048,2051,2046,2066,2054,2067
2041,2026,2033,2038,2047,2053,2028,2072
2039,2029,2024,2030,2052,2058,2042,2074
2048,2045,2030,2046,2054,2061,2033,2070
2047,2040,2032,2044,2058,2045,2033,2062
2046,2044,2024,2044,2051,2042,2023,2056
2056,2045,2020,2043,2052,2044,2017,2051
2043,2044,2022,2046,2049,2038,2030,2041
2044,2039,2009,2032,2048,2029,2040,2028
2041,2034,2000,2028,2057,2024,2028,2027
2038,2025,1996,2023,2043,2020,2024,2022
2038,2028,1988,2012,2049,2018,2023,2023
2039,2014,1977,2012,2041,2012,2030,2019
2033,2014,1986,2015,2046,2018,2020,2018
2029,2027,2002,2027,2045,2017,2022,2011
2034,2032,2011,2036,2053,2018,2018,2014
2043,2025,2016,2037,2056,2023,2014,2012
2037,2024,2013,2043,2056,2032,2031,2013
2036,2034,2019,2052,2056,2039,2028,2020
2052,2041,2029,2058,2066,2054,2043,2008
2047,2042,2030,2057,2060,2061,2039,2016
2059,2039,2030,2055,2057,2066,2053,2019
2044,2024,2031,2043,2052,2066,2037,2028
2041,2024,2049,2050,2101,2072,2050,2033
2042,2034,2070,2062,2115,2068,2052,2046
2044,2043,2070,2068,2107,2064,2039,2047
2043,2036,2050,2057,2102,2062,2038,2049
2041,2030,2033,2052,2113,2064,2040,2055
2031,2019,2017,2045,2094,2049,2038,2064
2022,2011,2013,2046,2079,2054,2046,2069
2035,2022,2033,2041,2059,2060,2052,2076
2052,2054,2063,2058,2045,2061,2078,2076
2053,2060,2085,2062,1958,2046,2057,2077
2046,2048,2086,2046,1888,2030,2035,2070
2047,2042,2092,2035,1924,2035,2048,2067
2050,2047,2102,2043,1973,2043,2046,2065
2047,2042,2088,2041,2024,2046,2046,2058
2038,2032,2058,2047,2061,2036,2039,2051
2038,2033,2046,2040,2064,2041,2034,2051
2044,2046,2048,2032,2048,2043,2014,2049
2051,2051,2042,2020,2083,2037,2030,2045
2052,2050,2044,2026,2109,2039,2039,2046
2049,2056,2065,2041,2104,2050,2048,2045
2053,2059,2080,2058,2122,2061,2050,2040
2054,2060,2082,2061,2099,2059,2034,2040
2052,2055,2069,2048,2045,2064,2051,2036
2053,2056,2064,2054,2044,2061,2052,2028
2056,2062,2071,2056,2067,2065,2046,2023
2051,2056,2068,2039,2010,2045,2038,2016
2039,2046,2046,2007,1977,2031,2027,2019
2037,2049,2044,2003,1995,2046,2048,2029
2054,2064,2057,2012,1998,2046,2045,2033
2056,2060,2055,2010,2006,2042,2040,2039
2053,2063,2059,2011,2031,2048,2047,2033
2047,2064,2069,2036,2052,2054,2028,2049
2061,2075,2098,2056,2058,2064,2042,2053
2061,2084,2104,2055,2081,2062,2055,2056
2064,2076,2092,2053,2088,2057,2028,2053
2060,2068,2080,2042,2069,2058,2066,2066
2050,2056,2073,2041,2057,2051,2060,2066
2050,2050,2061,2036,2044,2042,2070,2061
2052,2040,2056,2036,2043,2042,2044,2068
2048,2038,2052,2027,2016,2041,2044,2068
2040,2030,2039,2022,1964,2026,2069,2076
2035,2030,2031,2029,2015,2031,2053,2081
2036,2027,2022,2028,2057,2034,2021,2072
2034,2020,2014,2034,2081,2052,2039,2056
2041,2027,2016,2043,2086,2062,2060,2056
2035,2029,2015,2045,2082,2061,2048,2053
2032,2033,2020,2044,2079,2061,2046,2048
2037,2039,2030,2046,2082,2081,2079,2051
2046,2044,2030,2047,2075,2083,2056,2051
2049,2046,2026,2038,2062,2089,2045,2050
2052,2043,2031,2038,2053,2091,2040,2050
2050,2038,2027,2029,2048,2088,2047,2034
2050,2038,2031,2035,2056,2068,2030,2030
2051,2034,2027,2037,2043,2024,2019,2026
2046,2031,2034,2040,2040,2004,2009,2033
2050,2035,2029,2049,2054,2016,2027,2027
2043,2043,2030,2050,2066,2033,2040,2022
2040,2044,2035,2047,2088,2042,2025,2010
2033,2031,2033,2035,2097,2039,2032,2012
2038,2040,2066,2045,2095,2051,2046,2017
2046,2059,2081,2060,2091,2059,2062,2028
2049,2062,2091,2042,2022,2049,2051,2030
2052,2056,2078,2035,2003,2049,2058,2032
2053,2066,2074,2044,2045,2059,2056,2032
2057,2071,2065,2056,2060,2065,2060,2045
2057,2064,2060,2055,2069,2072,2065,2054
2059,2060,2064,2061,2066,2083,2075,2059
2064,2052,2062,2057,2079,2082,2075,2060
2055,2039,2054,2051,2084,2068,2061,2057
2036,2025,2039,2046,2080,2053,2042,2066
2037,2025,2044,2046,2073,2044,2029,2062
2039,2033,2048,2048,2071,2047,2043,2064
2045,2048,2058,2049,2078,2041,2055,2070
2048,2052,2067,2048,2067,2034,2046,2081
2054,2047,2075,2042,2065,2031,2020,2076
2060,2060,2080,2044,2066,2041,2042,2084
2066,2070,2084,2050,2107,2061,2056,2089
2059,2061,2074,2052,2131,2054,2036,2079
2049,2050,2059,2040,2085,2033,2043,2059
2046,2043,2057,2023,1965,2020,2039,2044
2051,2053,2061,2026,1991,2035,2047,2040
2047,2046,2058,2029,1989,2035,2044,2036
2043,2054,2064,2035,1979,2041,2034,2042
2051,2058,2061,2049,2022,2045,2040,2036
2052,2057,2065,2057,2034,2053,2030,2029
2054,2064,2070,2061,2034,2046,2029,2031
2055,2058,2066,2066,2035,2048,2052,2024
2056,2060,2066,2062,2040,2043,2036,2024
2050,2055,2068,2067,2046,2048,2033,2022
2054,2053,2065,2064,2040,2051,2032,2017
2046,2043,2052,2052,2034,2037,2037,2013
2043,2038,2049,2047,2043,2038,2042,2020
2045,2047,2055,2061,2079,2051,2046,2021
2052,2041,2052,2065,2086,2053,2044,2024
2052,2046,2057,2071,2084,2059,2056,2031
2055,2064,2067,2076,2085,2069,2066,2040
2059,2064,2071,2080,2078,2069,2060,2046
2064,2056,2062,2076,2066,2060,2064,2042
2054,2053,2051,2068,2061,2051,2049,2039
2056,2049,2054,2060,2060,2051,2062,2033
2045,2040,2051,2060,2062,2050,2064,2045
2047,2038,2051,2063,2058,2049,2059,2056
2039,2041,2054,2067,2061,2047,2048,2061
2039,2041,2055,2062,2059,2047,2049,2064
2035,2045,2056,2070,2049,2047,2052,2072
2040,2048,2056,2065,2035,2036,2020,2074
2036,2045,2045,2055,2022,2027,2042,2072
2045,2038,2040,2057,2028,2032,2023,2069
2042,2044,2053,2072,2033,2045,2038,2068
2049,2047,2067,2075,2029,2050,2033,2069
2045,2052,2068,2083,2043,2053,2038,2066
2043,2052,2069,2079,2041,2048,2040,2058
2048,2053,2068,2080,2035,2044,2034,2050
2050,2049,2060,2078,2040,2046,2059,2043
2044,2045,2052,2075,2044,2045,2054,2042
2049,2047,2047,2078,2048,2049,2050,2033
2057,2047,2043,2072,2044,2056,2061,2033
2051,2044,2032,2070,2052,2056,2067,2032
2045,2044,2026,2073,2049,2063,2054,2034
2046,2048,2039,2071,2048,2077,2062,2030
2052,2052,2036,2074,2054,2074,2050,2031
2054,2048,2028,2056,2056,2081,2052,2026
2054,2028,2007,2029,2043,2066,2048,2020
2044,2022,1992,2013,2039,2065,2046,2018
2046,2034,1997,2022,2043,2066,2070,2033
2050,2033,1982,2014,2038,2061,2049,2037
2048,2028,1986,2008,2037,2056,2054,2030
2039,2025,1998,2017,2036,2053,2076,2039
2035,2039,2022,2038,2050,2054,2065,2041
2045,2050,2038,2051,2051,2057,2067,2043
2048,2043,2039,2055,2045,2043,2032,2045
2044,2032,2028,2048,2043,2037,2039,2051
2028,2025,2024,2039,2036,2036,2051,2049
2030,2034,2040,2050,2045,2051,2062,2051
2045,2041,2055,2065,2053,2058,2064,2060
2047,2050,2061,2072,2051,2070,2076,2068
2048,2050,2051,2068,2050,2069,2085,2074
2048,2043,2043,2061,2051,2059,2078,2068
2040,2031,2029,2050,2037,2048,2057,2067
2038,2028,2024,2049,2031,2055,2051,2066
2044,2041,2029,2056,2042,2057,2045,2062
2049,2044,2035,2058,2042,2051,2050,2062
2047,2054,2035,2065,2041,2049,2040,2064
2048,2052,2039,2062,2037,2044,2048,2055
2052,2050,2046,2058,2037,2047,2054,2049
2049,2046,2043,2057,2039,2056,2062,2046
2055,2052,2045,2051,2046,2059,2060,2041
2052,2052,2056,2048,2044,2057,2059,2041
2056,2052,2065,2056,2045,2060,2063,2048
2053,2057,2074,2062,2042,2053,2039,2043
2051,2051,2081,2059,2040,2049,2044,2036
2045,2051,2093,2066,2040,2049,2055,2031
2047,2058,2097,2070,2051,2052,2055,2029
2054,2064,2092,2072,2051,2050,2045,2025
2049,2044,2074,2060,2049,2040,2052,2021
2042,2039,2064,2054,2048,2036,2055,2018
2041,2044,2072,2062,2054,2046,2057,2021
2042,2050,2074,2063,2055,2050,2053,2026
2045,2051,2076,2062,2051,2054,2054,2035
2049,2050,2068,2063,2050,2062,2053,2036
2047,2045,2062,2062,2052,2069,2051,2036
2048,2042,2062,2065,2064,2075,2063,2040
2047,2040,2063,2073,2064,2073,2070,2042
2043,2035,2068,2078,2062,2077,2070,2046
2046,2034,2064,2081,2057,2074,2065,2038
2042,2029,2061,2079,2058,2068,2050,2051
2034,2030,2062,2077,2053,2061,2058,2057
2032,2023,2060,2080,2047,2056,2052,2057
2038,2028,2054,2083,2038,2044,2042,2070
2041,2032,2056,2083,2030,2031,2041,2071
2035,2017,2048,2082,2025,2029,2015,2062
2030,2017,2034,2079,2022,2037,2027,2065
2037,2028,2045,2082,2025,2050,2057,2060
2028,2029,2041,2074,2019,2049,2048,2054
2025,2019,2024,2047,2014,2052,2040,2047
2023,2012,2002,2026,2018,2046,2051,2042
2030,2017,2016,2009,2019,2053,2046,2043
2038,2034,2024,2003,2030,2054,2044,2033
2035,2028,2023,1992,2048,2057,2058,2033
2040,2036,2022,1988,2048,2049,2073,2035
2044,2046,2035,2000,2043,2048,2052,2043
2055,2060,2047,2000,2036,2045,2043,2045
2057,2064,2051,2018,2042,2044,2037,2037
2066,2072,2054,2027,2047,2040,2052,2031
2061,2065,2049,2030,2051,2044,2046,2024
2062,2058,2044,2032,2061,2046,2043,2016
2055,2043,2040,2024,2057,2038,2022,2005
2045,2030,2031,2027,2052,2039,2033,2008
2042,2040,2035,2033,2058,2042,2068,2024
2049,2044,2034,2043,2063,2044,2070,2027
2053,2046,2043,2051,2069,2044,2064,2031
2058,2047,2033,2056,2070,2054,2078,2039
2061,2053,2033,2054,2071,2045,2065,2042
2061,2049,2025,2053,2063,2049,2078,2047
2057,2048,2029,2049,2062,2052,2069,2045
2058,2051,2040,2054,2064,2055,2076,2046
2054,2049,2041,2044,2066,2060,2065,2052
2057,2049,2048,2044,2056,2065,2055,2061
2053,2046,2035,2044,2056,2064,2067,2072
2056,2041,2032,2048,2055,2064,2071,2075
2045,2049,2058,2052,2050,2064,2072,2086
2052,2059,2072,2047,2039,2062,2067,2079
2041,2056,2089,2039,2043,2062,2066,2083
2053,2064,2103,2047,2046,2072,2067,2081
2062,2085,2111,2058,2059,2074,2075,2074
2058,2082,2102,2054,2057,2073,2078,2070
2060,2074,2093,2050,2059,2074,2076,2063
2056,2070,2079,2047,2068,2063,2081,2064
2059,2064,2069,2047,2050,2050,2081,2058
2063,2065,2062,2050,2049,2044,2078,2048
2055,2063,2063,2057,2058,2042,2063,2042
2060,2067,2065,2056,2060,2038,2070,2037
2060,2061,2074,2056,2057,2030,2061,2035
2064,2066,2068,2056,2059,2044,2064,2036
2064,2064,2063,2053,2054,2048,2051,2034
2063,2055,2069,2054,2055,2050,2056,2032
2047,2052,2056,2050,2046,2039,2056,2026
2058,2052,2052,2053,2042,2028,2045,2028
2051,2041,2045,2042,2030,2023,2033,2024
2041,2040,2045,2040,2043,2027,2050,2032
2056,2041,2048,2056,2049,2037,2061,2039
2059,2050,2047,2048,2049,2039,2074,2042
2058,2049,2043,2051,2061,2040,2066,2042
2061,2051,2049,2051,2061,2043,2072,2041
2058,2051,2045,2056,2061,2040,2064,2044
2061,2052,2043,2054,2067,2041,2065,2043
2052,2043,2036,2050,2064,2045,2061,2047
2053,2042,2032,2051,2061,2053,2070,2048
2056,2043,2032,2056,2060,2064,2078,2054
2048,2040,2027,2051,2059,2064,2058,2054
2037,2042,2023,2052,2059,2063,2060,2058
2042,2045,2022,2047,2060,2072,2058,2062
2036,2037,2022,2049,2062,2090,2049,2074
2048,2045,2024,2049,2067,2107,2052,2078
2048,2044,2031,2044,2060,2108,2039,2070
2044,2035,2022,2045,2063,2112,2069,2074
2040,2037,2024,2050,2064,2099,2073,2071
2050,2048,2037,2050,2064,2054,2044,2070
2056,2049,2054,2056,2061,2024,2032,2072
2055,2048,2055,2044,2053,2023,2037,2067
2047,2048,2062,2050,2052,2034,2053,2055
2039,2045,2056,2045,2053,2039,2046,2050
2043,2040,2053,2033,2045,2041,2047,2044
2043,2044,2055,2040,2048,2047,2048,2039
2041,2049,2060,2043,2056,2047,2051,2035
2047,2050,2063,2049,2057,2049,2048,2032
2046,2050,2067,2054,2056,2051,2046,2040
2047,2047,2071,2050,2050,2039,2052,2034
2051,2055,2067,2050,2056,2042,2038,2033
2050,2056,2064,2048,2054,2037,2034,2036
2052,2047,2059,2048,2054,2037,2046,2027
2047,2040,2046,2040,2051,2028,2025,2017
2035,2032,2038,2036,2048,2032,2030,2023
2038,2040,2045,2042,2057,2034,2049,2025
2040,2049,2048,2045,2054,2039,2056,2034
2036,2051,2047,2046,2055,2039,2038,2038
2049,2046,2048,2047,2045,2035,2045,2041
2043,2042,2046,2047,2047,2031,2064,2047
2041,2043,2046,2056,2055,2032,2058,2052
2050,2048,2058,2057,2061,2035,2063,2049
2052,2047,2054,2060,2068,2041,2083,2060
2050,2053,2056,2059,2069,2045,2068,2069
2050,2045,2056,2059,2061,2033,2063,2064
2051,2044,2053,2058,2071,2039,2053,2073
2046,2048,2054,2057,2073,2037,2041,2076
2044,2054,2060,2058,2064,2036,2029,2076
2047,2046,2061,2057,2068,2037,2052,2076
2045,2045,2051,2050,2062,2041,2049,2069
2040,2034,2041,2042,2053,2063,2047,2073
2036,2032,2036,2044,2054,2087,2061,2083
2042,2049,2057,2049,2047,2083,2043,2083
2054,2051,2056,2053,2052,2069,2039,2080
2052,2051,2057,2053,2056,2066,2052,2076
2051,2050,2052,2054,2053,2073,2058,2064
2050,2048,2052,2049,2051,2068,2064,2058
2054,2045,2052,2043,2047,2069,2051,2044
2053,2045,2051,2043,2044,2060,2054,2038
2050,2037,2048,2040,2043,2049,2041,2039
2044,2034,2044,2039,2037,2049,2043,2029
2045,2039,2047,2042,2040,2051,2052,2022
2047,2038,2044,2048,2047,2056,2051,2025
2048,2050,2044,2051,2043,2056,2045,2022
2050,2053,2043,2048,2050,2062,2038,2025
2043,2048,2041,2046,2058,2061,2031,2019
2038,2043,2038,2048,2055,2058,2018,2010
2032,2033,2032,2049,2056,2057,2021,2011
2038,2044,2042,2058,2064,2062,2038,2024
2046,2056,2046,2057,2065,2061,2045,2024
2049,2051,2048,2057,2064,2052,2039,2029
2050,2050,2045,2054,2061,2056,2045,2031
2049,2051,2046,2057,2066,2058,2044,2035
2049,2050,2049,2055,2069,2061,2032,2044
2049,2049,2053,2050,2061,2062,2029,2041
2052,2049,2044,2045,2059,2063,2035,2051
2057,2046,2046,2049,2067,2066,2046,2058
2054,2041,2043,2040,2069,2062,2045,2058
2044,2040,2037,2030,2051,2052,2041,2058
2040,2032,2033,2032,2054,2049,2037,2071
2040,2036,2039,2032,2058,2049,2043,2068
2051,2040,2049,2035,2056,2049,2037,2076
2046,2039,2052,2037,2053,2044,2035,2069
2040,2045,2048,2036,2046,2038,2019,2069
2026,2045,2040,2032,2050,2037,2020,2068
2035,2051,2054,2044,2062,2043,2043,2068
2044,2053,2055,2045,2060,2035,2039,2074
2042,2051,2053,2045,2054,2033,2019,2066
2051,2060,2054,2045,2061,2040,2025,2063
2056,2060,2058,2044,2053,2043,2050,2056
2055,2061,2055,2050,2056,2046,2057,2053
2059,2058,2053,2051,2058,2045,2039,2043
2058,2051,2055,2050,2053,2044,2027,2031
2050,2053,2053,2051,2049,2038,2033,2030
2043,2051,2047,2041,2056,2045,2030,2030
2050,2058,2054,2044,2063,2060,2026,2030
2047,2062,2057,2046,2061,2073,2035,2017
2049,2053,2052,2049,2056,2078,2034,2024
2039,2051,2057,2047,2061,2078,2035,2024
2044,2052,2057,2051,2050,2068,2036,2020
2041,2040,2050,2047,2048,2059,2022,2014
2034,2041,2052,2050,2048,2063,2025,2022
2049,2055,2056,2058,2061,2072,2044,2029
2050,2057,2060,2064,2066,2077,2046,2037
2050,2053,2060,2063,2064,2069,2043,2037
2052,2051,2055,2062,2068,2056,2050,2034
2051,2052,2050,2058,2060,2042,2043,2028
2046,2049,2051,2056,2060,2025,2041,2035
2050,2046,2056,2052,2059,2019,2052,2045
2048,2049,2052,2056,2065,2018,2062,2054
2048,2047,2061,2060,2066,2028,2066,2062
2043,2051,2060,2060,2075,2036,2071,2068
2047,2050,2055,2056,2077,2037,2065,2069
2041,2045,2054,2053,2062,2037,2052,2066
2037,2039,2049,2051,2059,2040,2032,2067
2037,2038,2046,2050,2059,2035,2041,2068
2038,2036,2046,2045,2057,2028,2029,2066
2027,2028,2035,2040,2052,2024,2031,2064
2029,2030,2029,2042,2057,2037,2043,2071
2042,2033,2035,2046,2061,2037,2047,2070
2040,2036,2028,2039,2057,2042,2034,2066
2042,2034,2027,2036,2053,2041,2011,2056
2040,2037,2028,2034,2049,2033,2004,2053
2041,2036,2025,2034,2042,2031,2010,2048
2037,2033,2022,2032,2041,2031,2004,2036
2041,2033,2022,2036,2044,2044,2044,2030
2040,2033,2021,2037,2054,2050,2035,2027
2044,2031,2027,2038,2050,2063,2034,2024
2044,2034,2029,2038,2059,2067,2018,2022
2042,2026,2023,2040,2055,2072,2031,2029
2044,2030,2026,2045,2051,2066,2042,2026
2040,2028,2025,2039,2048,2060,2044,2027
2043,2026,2027,2040,2044,2048,2043,2022
2038,2041,2038,2039,2037,2040,2033,2013
2037,2040,2057,2049,2038,2044,2036,2014
2043,2053,2069,2056,2054,2054,2043,2029
2054,2064,2075,2064,2054,2054,2050,2038
2062,2064,2076,2061,2059,2053,2053,2037
2059,2067,2082,2061,2059,2053,2054,2037
2059,2065,2080,2055,2062,2051,2054,2039
2053,2062,2082,2054,2059,2050,2053,2042
2056,2059,2068,2049,2056,2045,2028,2041
2049,2059,2066,2051,2049,2040,2042,2050
2052,2060,2061,2056,2054,2046,2049,2053
2049,2063,2061,2053,2059,2043,2045,2065
2046,2059,2055,2056,2053,2046,2048,2068
2046,2056,2053,2050,2051,2050,2040,2061
2043,2057,2051,2040,2051,2049,2042,2063
2041,2055,2047,2044,2048,2055,2053,2073
2044,2053,2049,2045,2054,2057,2048,2072
2044,2048,2044,2040,2050,2059,2042,2070
2043,2045,2044,2044,2057,2068,2055,2069
2046,2054,2051,2051,2059,2078,2044,2077
2040,2058,2056,2054,2057,2073,2055,2068
2048,2061,2050,2047,2057,2070,2051,2067
2050,2058,2047,2052,2053,2076,2058,2061
2048,2055,2041,2046,2055,2072,2043,2056
2058,2055,2041,2048,2046,2070,2058,2044
2053,2056,2050,2049,2053,2069,2050,2041
2056,2055,2047,2048,2056,2062,2050,2039
2052,2059,2053,2049,2056,2069,2053,2042
2052,2057,2042,2056,2056,2059,2043,2026
2054,2057,2041,2054,2056,2053,2052,2025
2047,2050,2043,2054,2057,2051,2047,2024
2049,2042,2037,2047,2054,2045,2025,2022
2044,2046,2042,2054,2053,2028,2025,2020
2048,2042,2039,2054,2046,2017,2036,2015
2040,2025,2031,2049,2045,2033,2041,2017
2031,2019,2022,2049,2053,2041,2045,2018
2035,2033,2033,2058,2063,2047,2053,2021
2034,2035,2035,2052,2059,2052,2045,2021
2040,2036,2031,2050,2068,2050,2046,2024
2040,2032,2025,2052,2061,2053,2059,2021
2041,2035,2019,2052,2064,2059,2047,2028
2038,2028,2016,2052,2060,2059,2049,2031
2042,2024,2013,2044,2065,2056,2055,2037
2040,2023,2003,2045,2064,2062,2046,2037
2042,2037,2016,2050,2069,2065,2042,2047
2043,2042,2022,2052,2070,2062,2047,2053
2045,2042,2022,2052,2059,2043,2034,2053
2041,2041,2020,2044,2057,2033,2018,2056
2037,2037,2018,2040,2044,2040,1999,2061
2041,2038,2017,2041,2043,2038,2030,2069
2043,2039,2016,2034,2032,2035,2021,2066
2038,2037,2010,2023,2020,2026,2019,2066
2049,2040,2006,2021,2023,2027,2020,2070
2050,2054,2018,2032,2022,2028,2013,2062
2054,2052,2029,2028,2024,2035,2020,2062
2048,2053,2043,2035,2034,2040,2047,2058
2061,2059,2061,2045,2038,2046,2045,2057
2058,2068,2083,2047,2035,2043,2024,2058
2064,2080,2093,2048,2033,2051,2037,2052
2067,2087,2101,2052,2036,2050,2038,2051
2067,2082,2097,2054,2047,2050,2050,2047
2065,2078,2098,2050,2050,2052,2058,2052
2059,2075,2102,2052,2048,2048,2073,2044
2068,2070,2092,2053,2050,2056,2080,2044
2060,2064,2086,2049,2060,2057,2076,2043
2068,2068,2086,2053,2049,2061,2064,2040
2065,2065,2084,2051,2048,2061,2063,2039
2061,2070,2078,2043,2050,2058,2056,2032
2053,2058,2066,2044,2048,2054,2051,2032
2055,2065,2073,2046,2053,2043,2053,2036
2066,2071,2073,2053,2053,2047,2046,2039
2065,2068,2076,2056,2060,2056,2041,2044
2058,2068,2076,2058,2058,2062,2065,2045
2057,2064,2069,2059,2060,2060,2078,2051
2060,2066,2072,2057,2061,2058,2066,2056
2059,2062,2073,2058,2067,2059,2056,2059
2066,2061,2073,2055,2064,2059,2067,2058
2055,2058,2070,2060,2053,2058,2058,2069
2049,2061,2070,2063,2064,2055,2058,2066
2051,2058,2066,2062,2059,2055,2051,2079
2050,2054,2064,2060,2069,2064,2054,2071
2047,2057,2063,2060,2071,2076,2050,2074
2050,2054,2061,2062,2071,2082,2046,2080
2050,2054,2061,2056,2065,2079,2053,2078
2043,2044,2052,2046,2042,2065,2034,2077
2038,2039,2048,2044,2047,2069,2036,2073
2037,2050,2055,2044,2045,2052,2031,2074
2049,2054,2057,2044,2038,1998,2030,2063
2046,2051,2061,2036,2029,1982,2007,2054
2037,2052,2050,2033,2025,1991,2022,2044
2050,2050,2048,2035,2032,2016,2018,2044
2045,2054,2053,2044,2038,2036,2035,2045
2038,2048,2055,2042,2047,2040,2057,2042
2051,2046,2055,2045,2048,2043,2057,2039
2052,2050,2055,2039,2047,2040,2056,2039
2055,2050,2051,2039,2049,2034,2059,2040
2050,2042,2047,2039,2051,2031,2058,2032
2040,2042,2046,2040,2047,2029,2045,2032
2046,2039,2050,2029,2041,2029,2035,2023
2040,2036,2041,2036,2043,2032,2052,2016
2051,2030,2046,2043,2034,2027,2037,2014
2042,2019,2037,2041,2028,2022,2032,2014
2037,2021,2030,2040,2030,2031,2038,2016
2046,2032,2036,2052,2041,2041,2045,2024
2051,2040,2045,2052,2039,2052,2063,2037
2049,2039,2042,2049,2039,2051,2059,2028
2044,2029,2041,2042,2037,2046,2074,2030
2036,2032,2035,2047,2043,2042,2070,2031
2032,2031,2039,2053,2047,2048,2076,2043
2038,2044,2043,2055,2044,2034,2062,2050
2047,2046,2046,2052,2044,2028,2067,2055
2051,2045,2044,2048,2045,2016,2054,2064
2051,2049,2047,2049,2041,2020,2040,2071
2051,2053,2053,2048,2046,2037,2042,2078
2056,2059,2057,2046,2052,2033,2074,2081
2058,2065,2063,2050,2055,2029,2058,2074
2055,2065,2060,2046,2053,2025,2057,2077
2049,2059,2056,2046,2049,2021,2040,2070
2043,2048,2052,2039,2046,2027,2030,2068
2038,2049,2056,2036,2051,2042,2021,2080
2051,2061,2069,2045,2054,2074,2043,2081
2059,2062,2067,2051,2055,2077,2051,2073
2064,2064,2071,2047,2055,2069,2061,2072
2058,2064,2063,2043,2045,2071,2070,2070
2053,2063,2059,2043,2045,2069,2070,2067
2054,2061,2055,2041,2041,2068,2058,2064
2058,2058,2055,2044,2048,2061,2055,2061
2054,2060,2051,2048,2054,2059,2073,2050
2052,2057,2054,2052,2052,2050,2064,2048
2052,2050,2050,2052,2042,2044,2053,2044
2048,2051,2050,2042,2044,2033,2054,2036
2044,2046,2043,2043,2041,2028,2043,2032
2043,2046,2043,2037,2040,2021,2044,2033
2043,2054,2048,2042,2039,2026,2053,2033
2044,2058,2053,2043,2037,2008,2051,2029
2043,2053,2055,2043,2035,2004,2059,2027
2034,2049,2056,2048,2042,2015,2059,2034
2050,2060,2057,2047,2041,2016,2060,2037
2046,2057,2055,2050,2036,2022,2060,2044
2052,2064,2057,2049,2041,2032,2046,2046
2053,2063,2052,2049,2047,2045,2067,2044
2054,2064,2056,2049,2053,2044,2051,2050
2054,2057,2047,2048,2043,2057,2050,2050
2052,2054,2048,2047,2045,2082,2060,2051
2056,2053,2053,2047,2049,2095,2050,2055
2056,2057,2058,2044,2051,2114,2037,2063
2051,2060,2054,2041,2048,2138,2073,2070
2048,2051,2052,2042,2045,2151,2062,2069
2047,2050,2049,2045,2044,2139,2056,2074
2055,2053,2045,2046,2052,2064,2052,2069
2052,2047,2049,2050,2045,2010,2056,2079
2047,2049,2041,2037,2041,2023,2061,2084
2046,2039,2037,2038,2036,2045,2052,2080
2045,2047,2041,2040,2041,2050,2070,2077
2050,2047,2043,2040,2037,2042,2063,2076
2051,2047,2043,2039,2023,2035,2068,2078
2053,2047,2045,2037,2028,2030,2076,2068
2047,2046,2043,2040,2025,2033,2061,2068
2043,2048,2049,2037,2023,2037,2059,2061
2052,2047,2048,2044,2024,2041,2056,2067
2051,2049,2050,2044,2031,2041,2062,2067
2060,2052,2054,2054,2041,2057,2073,2062
2054,2054,2054,2052,2037,2056,2068,2054
2051,2047,2047,2054,2038,2047,2046,2051
2049,2047,2046,2048,2037,2045,2045,2036
2050,2046,2046,2049,2023,2035,2038,2029
2044,2046,2045,2042,2023,2045,2041,2027
2045,2047,2044,2045,2020,2049,2039,2022
2034,2032,2030,2035,2023,2049,2037,2019
2028,2024,2031,2033,2030,2042,2026,2020
2038,2035,2033,2043,2042,2052,2033,2030
2039,2043,2041,2048,2060,2063,2042,2036
2047,2050,2048,2047,2072,2064,2054,2042
2048,2050,2050,2044,2072,2060,2052,2050
2050,2049,2036,2035,2061,2060,2052,2044
2047,2041,2033,2026,2048,2047,2037,2044
2044,2040,2032,2020,2032,2064,2042,2049
2037,2037,2031,2017,2027,2082,2041,2044
2036,2035,2036,2024,2042,2108,2050,2055
2045,2036,2037,2033,2057,2119,2065,2072
2048,2044,2043,2032,2054,2103,2051,2083
2044,2041,2051,2042,2044,2076,2046,2094
2053,2042,2058,2045,2033,2053,2039,2094
2051,2047,2055,2035,2033,2055,2045,2082
2044,2038,2044,2028,2035,2060,2047,2069
2033,2024,2030,2028,2028,2062,2051,2074
2028,2022,2030,2028,2035,2050,2040,2065
2036,2040,2042,2034,2046,2051,2048,2066
2038,2038,2047,2035,2050,2059,2063,2067
2042,2044,2056,2032,2038,2055,2071,2073
2047,2050,2052,2043,2052,2036,2062,2072
2057,2045,2055,2042,2039,2008,2053,2063
2050,2046,2051,2041,2036,2007,2042,2045
2055,2048,2058,2043,2040,2028,2016,2045
2049,2048,2056,2040,2041,2028,2004,2034
2054,2048,2048,2043,2040,2028,2006,2024
2049,2046,2045,2039,2036,2023,2006,2025
2052,2042,2047,2034,2035,2014,2005,2026
2048,2045,2052,2034,2036,2018,2023,2028
2050,2044,2048,2038,2040,2017,2008,2029
2048,2043,2048,2032,2038,2030,2050,2030
2049,2044,2045,2031,2022,2034,2043,2038
2050,2041,2044,2035,2020,2041,2055,2047
2055,2045,2051,2035,2028,2067,2068,2064
2064,2053,2051,2035,2022,2073,2041,2057
2054,2045,2040,2024,2014,2071,2054,2046
2046,2042,2032,2019,2002,2098,2036,2054
2052,2054,2048,2036,2022,2139,2068,2050
2068,2060,2055,2046,2014,2150,2071,2050
2065,2059,2044,2047,2001,2123,2055,2049
2059,2054,2040,2041,2001,2051,2053,2053
2057,2063,2038,2057,2026,2023,2061,2057
2057,2061,2039,2061,2064,2056,2070,2058
2057,2057,2029,2066,2074,2069,2062,2067
2054,2054,2032,2065,2077,2058,2060,2076
2048,2051,2028,2064,2070,2027,2044,2077
2050,2044,2020,2058,2044,2034,2041,2073
2049,2041,2020,2054,2029,2038,2049,2076
2039,2026,2011,2045,2023,2049,2035,2065
2036,2023,2002,2033,2033,2053,2043,2065
2035,2031,2014,2044,2047,2063,2037,2062
2035,2032,2014,2044,2056,2060,2034,2064
2040,2027,2010,2036,2059,2068,2046,2064
2041,2031,2010,2035,2074,2075,2043,2057
2045,2031,2017,2034,2073,2077,2054,2047
2041,2034,2035,2029,2069,2076,2053,2044
2037,2040,2049,2034,2060,2064,2056,2040
2045,2056,2056,2029,2068,2057,2058,2040
2042,2044,2049,2041,2076,2033,2030,2035
2043,2042,2033,2035,2062,2007,2037,2034
2043,2033,2021,2027,2043,1988,2022,2031
2038,2030,2018,2018,2037,1995,2015,2028
2039,2026,2022,2011,2037,2001,2010,2027
2037,2015,2030,2011,2036,2010,2019,2024
2039,2026,2038,2019,2020,2013,2036,2024
2032,2025,2053,2021,1999,2013,2032,2023
2027,2026,2058,2032,2018,2022,2042,2023
2042,2039,2059,2035,2022,2030,2039,2034
2047,2039,2064,2034,2028,2035,2046,2032
2047,2048,2071,2047,2036,2043,2047,2040
2053,2056,2071,2056,2039,2064,2061,2045
2052,2065,2060,2055,2039,2069,2065,2049
2048,2051,2055,2051,2046,2067,2069,2046
2047,2055,2053,2052,2042,2046,2059,2057
2049,2058,2063,2059,2053,2061,2058,2063
2052,2065,2065,2057,2061,2078,2071,2068
2054,2056,2063,2051,2067,2080,2065,2076
2053,2057,2058,2058,2070,2089,2047,2081
2051,2056,2059,2053,2063,2082,2055,2087
2057,2060,2057,2051,2059,2067,2060,2094
2054,2061,2049,2047,2048,2046,2047,2092
2050,2054,2045,2041,2042,2038,2032,2081
2049,2044,2035,2034,2035,2039,2037,2084
2047,2042,2035,2040,2039,2042,2047,2086
2053,2051,2046,2044,2044,2053,2026,2086
2051,2045,2041,2049,2049,2058,2038,2074
2053,2045,2037,2045,2044,2060,2055,2083
2042,2043,2044,2040,2046,2028,2043,2066
2043,2047,2035,2046,2041,2002,2054,2062
2047,2047,2038,2044,2045,2003,2058,2054
2052,2053,2040,2040,2036,2019,2071,2059
2055,2062,2043,2048,2034,2051,2067,2050
2059,2060,2053,2055,2040,2089,2067,2049
2059,2059,2050,2047,2038,2105,2042,2041
2049,2054,2048,2043,2022,2081,2038,2038
2044,2046,2046,2046,2023,2054,2030,2027
2038,2046,2036,2046,2035,2045,2027,2017
2032,2049,2032,2052,2081,2061,2024,2015
2037,2032,2011,2046,2079,2047,2022,2009
2034,2020,1994,2039,2099,2042,2010,2000
2034,2024,2005,2049,2128,2060,2032,2003
2039,2032,2018,2061,2159,2072,1991,2013
2036,2037,2036,2067,2171,2078,2003,2021
2047,2038,2031,2070,2165,2085,2022,2025
2039,2038,2031,2063,2133,2092,2025,2035
2047,2047,2032,2076,2124,2100,2033,2047
2052,2048,2034,2073,2109,2101,2027,2054
2050,2042,2040,2067,2010,2081,2043,2048
2045,2045,2035,2043,1888,2061,2028,2051
2044,2040,2026,2016,1850,2052,2017,2054
2052,2058,2036,2022,1890,2056,2017,2061
2059,2073,2038,2028,1897,2044,2024,2070
2067,2080,2047,2034,1890,2032,2034,2076
2059,2080,2052,2029,1908,2001,2036,2074
2057,2079,2056,2036,1955,1964,2024,2071
2045,2066,2056,2044,1985,1958,2037,2067
2042,2064,2076,2062,2012,1984,2039,2071
2044,2066,2085,2062,2035,2008,2036,2072
2039,2062,2066,2046,2023,2043,2038,2068
2045,2057,2063,2027,1972,2067,2032,2072
2049,2061,2068,2006,1918,2056,2051,2055
2043,2056,2073,2008,1952,2058,2059,2046
2047,2064,2078,2046,2081,2087,2043,2046
2052,2072,2078,2067,2135,2090,2056,2040
2047,2056,2069,2063,2114,2082,2072,2034
2040,2048,2056,2060,2100,2084,2064,2036
2041,2038,2044,2048,2081,2087,2049,2027
2044,2033,2030,2031,2068,2117,2040,2027
2034,2031,2033,2030,2084,2136,2047,2029
2041,2044,2043,2047,2105,2126,2060,2029
2056,2060,2063,2056,2095,2027,2059,2031
2061,2067,2067,2064,2077,1962,2040,2023
2055,2055,2065,2051,2074,1967,2044,2022
2053,2050,2056,2052,2055,1989,2050,2030
2051,2051,2061,2054,2046,2007,2045,2026
2054,2047,2057,2047,2030,2007,2024,2040
2063,2056,2057,2047,2021,2009,2042,2040
2068,2062,2058,2013,1977,2017,2032,2038
2073,2065,2057,2010,2015,2034,2031,2042
2065,2055,2048,2006,2070,2050,2048,2056
2055,2040,2041,2030,2136,2065,2040,2064
2053,2037,2043,2063,2194,2088,2056,2073
2060,2040,2050,2077,2242,2108,2056,2083
2071,2060,2060,2100,2291,2111,2077,2092
2081,2074,2071,2108,2315,2117,2065,2096
2078,2080,2073,2094,2284,2101,2048,2080
2066,2064,2055,2072,2179,2060,2035,2060
2045,2051,2045,2052,2046,2037,2040,2044
2036,2037,2035,2032,1927,2024,2019,2032
2025,2022,2028,2024,1872,2022,2026,2038
2034,2032,2038,2034,1976,2038,2039,2046
2042,2044,2041,2030,1967,2028,2019,2034
2038,2047,2034,2017,1909,2006,2015,2028
2036,2043,2033,2013,1903,2015,1993,2032
2040,2041,2021,2005,1890,2020,2003,2033
2040,2039,2017,2000,1857,2016,1991,2028
2051,2036,2022,2006,1851,2003,2024,2029
2052,2048,2034,2008,1841,1985,2009,2035
2061,2052,2041,2009,1813,1966,2028,2035
2061,2054,2043,2023,1846,1981,2029,2052
2077,2061,2049,2039,1887,2031,2041,2046
2072,2053,2036,2033,1869,2056,2037,2036
2054,2031,2019,2011,1883,2085,2026,2015
2044,2021,2016,2003,1895,2106,2020,2004
2046,2032,2030,2009,1915,2116,2012,1998
2034,2046,2052,2024,1990,2124,2018,2011
2045,2052,2055,2052,2106,2149,2038,2036
2060,2069,2069,2081,2171,2118,2071,2062
2070,2060,2062,2069,2152,2078,2055,2050
2056,2040,2047,2042,2049,2013,2023,2025
2048,2035,2030,2008,1914,1967,1995,2012
2046,2049,2040,1995,1920,1940,1980,2017
2046,2058,2052,2018,2041,1986,2003,2024
2059,2072,2076,2053,2126,2042,2028,2027
2055,2072,2083,2097,2262,2113,2049,2022
2043,2062,2077,2117,2307,2157,2051,2025
2043,2059,2073,2103,2255,2175,2068,2046
2046,2057,2067,2085,2202,2155,2078,2059
2045,2049,2054,2062,2151,2117,2087,2066
2040,2045,2049,2041,2103,2078,2079,2078
2048,2047,2046,2036,2094,2025,2069,2093
2055,2060,2054,2046,2108,2027,2067,2098
2054,2056,2053,2040,2037,2025,2075,2088
2046,2051,2050,2000,1876,2009,2052,2084
2044,2054,2041,1971,1753,1977,2024,2069
2041,2046,2038,1979,1785,1983,2030,2059
2038,2046,2032,2024,1932,2029,2049,2061
2037,2039,2027,2062,2063,2054,2043,2050
2029,2025,2011,2071,2138,2072,2048,2037
2033,2028,2022,2094,2171,2088,2049,2045
2047,2032,2036,2099,2170,2075,2065,2041
2051,2031,2037,2087,2154,2056,2054,2043
2049,2017,2024,2079,2160,2040,2027,2042
2042,2020,2024,2080,2155,2037,2038,2030
2039,2026,2027,2087,2165,2053,2055,2023
2024,2024,2030,2079,2180,2061,2049,2002
2021,2035,2031,2074,2179,2073,2048,2007
2039,2045,2042,2061,2145,2103,2059,2030
2052,2032,2034,2049,2133,2144,2050,2026
2043,2014,2026,2054,2148,2166,2062,2027
2036,2011,2025,2060,2137,2139,2084,2027
2046,2017,2014,2020,2018,2020,2052,2023
2047,2014,1991,1984,1981,1972,2041,2019
2028,1998,1978,1977,2019,1978,2023,2002
2003,1987,1976,1978,2014,1983,2017,1991
1989,1988,2000,2005,2042,2006,2052,2001
1998,2022,2042,2049,2105,2047,2050,2021
2025,2056,2069,2074,2144,2055,2069,2033
2032,2065,2071,2077,2159,2058,2072,2052
2050,2061,2059,2078,2154,2052,2068,2060
2044,2056,2060,2078,2123,2055,2074,2070
2048,2062,2066,2082,2116,2066,2072,2068
2035,2064,2066,2080,2060,2059,2056,2066
2033,2065,2072,2077,2047,2036,2050,2069
2035,2060,2063,2065,2105,2064,2060,2062
2037,2049,2054,2056,2131,2062,2035,2061
2031,2043,2041,2023,2036,2060,2058,2063
2030,2036,2043,2014,2016,2098,2053,2070
2054,2034,2052,2031,2088,2135,2053,2078
2061,2035,2056,2051,2119,2135,2060,2082
2083,2043,2063,2054,2008,2093,2063,2088
2096,2056,2062,2024,1777,2034,2034,2088
2097,2067,2061,1987,1690,2016,2048,2072
2106,2072,2053,1983,1710,2019,2041,2053
2097,2064,2053,1973,1730,2013,2044,2029
2074,2042,2038,1991,1823,2004,2032,2011
2045,2031,2030,2001,1864,1990,2024,2013
2026,2045,2029,2004,1933,1982,2012,2011
2008,2049,2018,2005,2009,1979,2022,2006
1998,2048,2019,2023,2063,1987,2025,2014
2023,2068,2022,2031,2035,2000,2030,2010
2043,2075,2029,2061,2150,2003,2019,2005
2041,2069,2029,2074,2230,1993,2010,1995
2041,2063,2038,2109,2246,2014,2015,2001
2054,2073,2053,2106,2136,2003,2044,2006
2062,2067,2040,2076,2022,2005,2039,2007
2057,2042,2031,2040,1947,2025,2044,2014
2044,2036,2029,2047,1957,2074,2071,2028
2051,2033,2045,2070,2043,2108,2091,2014
2034,2014,2044,2082,2076,2140,2115,2023
2033,2007,2036,2083,2058,2150,2124,2074
2078,2011,2034,2078,2027,2136,2148,2106
2098,2015,2029,2064,2032,2137,2148,2121
2108,2009,2026,2055,2034,2132,2101,2114
2098,1989,2012,2036,2026,2090,2069,2073
2069,1997,2026,2039,2048,2050,2039,2015
2030,1996,2030,2044,2081,2027,2012,2009
2032,2012,2054,2053,2077,2034,2022,2002
2012,2014,2046,2034,2079,2066,2014,1986
1973,1994,2020,2013,2035,2048,2018,2009
1971,1997,2034,2006,1990,2035,2034,2040
2025,2043,2058,2025,1993,2018,2053,2057
2044,2072,2063,2031,1978,1987,2045,2064
2053,2093,2070,2059,2056,2001,2068,2078
2074,2101,2076,2096,2164,2051,2071,2067
2081,2096,2075,2101,2211,2080,2075,2049
2075,2084,2058,2097,2200,2093,2063,2045
2063,2067,2051,2086,2173,2087,2067,2033
2039,2072,2047,2069,2155,2075,2054,2017
2041,2072,2050,2054,2158,2062,2061,2009
2030,2060,2060,2037,2112,2062,2061,2022
2044,2071,2077,2041,2080,2057,2064,2027
2056,2071,2077,2039,2042,2025,2056,2015
2050,2058,2066,2012,1952,1985,2040,2016
2043,2037,2048,2014,1961,1980,2036,2014
2051,2034,2053,2043,2050,2011,2037,2007
2046,2034,2070,2059,2059,2032,2046,2004
2034,2027,2066,2056,2040,2058,2054,2007
2028,2034,2066,2078,2077,2086,2065,2006
2032,2063,2084,2112,2078,2106,2056,2004
2027,2058,2075,2099,2066,2084,2052,2007
2051,2045,2070,2092,2087,2105,2063,2034
2074,2040,2068,2101,2155,2141,2069,2037
2053,2020,2035,2093,2188,2166,2067,2011
2029,2023,2034,2086,2183,2162,2063,1999
2029,2035,2043,2094,2175,2146,2063,1992
2029,2046,2049,2094,2104,2064,2036,2014
2042,2045,2038,2073,2006,1938,2045,2058
2054,2044,2027,2059,1989,1959,2059,2063
2031,2046,2016,2044,2044,1980,2033,2066
2036,2034,1988,2031,2090,1981,2015,2057
2049,2031,1970,2022,2088,1966,2004,2041
2048,2032,1975,2023,2070,1982,2004,2034
2054,2049,1995,2011,2022,1994,2015,2031
2062,2067,2026,2014,2030,2032,2018,2032
2065,2058,2043,2010,2062,2046,2021,2037
2033,2037,2038,2009,2072,2060,2031,2025
2022,2015,2029,2009,2052,2069,2037,2024
2017,2001,2034,2006,2000,2070,2058,2034
2030,2015,2040,2008,1992,2075,2072,2055
2049,2023,2020,2002,2022,2077,2063,2062
2044,2002,2006,1996,2050,2070,2052,2048
2047,1999,2010,2013,2076,2063,2044,2025
2070,2021,2038,2034,2114,2085,2051,2014
2064,2036,2056,2043,2109,2099,2061,1979
2026,2041,2058,2040,2098,2104,2048,1966
2021,2045,2057,2029,2083,2114,2053,1997
2028,2042,2041,2022,2096,2111,2074,2010
2032,2026,2036,2009,2093,2075,2061,1996
2033,2028,2030,1988,2020,2009,2025,1996
2012,2033,2037,1973,1920,1982,2034,1996
2031,2054,2050,1993,1945,2026,2044,2019
2058,2082,2065,2019,1992,2078,2054,2025
2078,2084,2064,2046,2046,2111,2054,2027
2070,2078,2068,2054,2074,2116,2024,2013
2064,2075,2081,2059,2045,2108,2023,1997
2055,2064,2076,2042,1938,2050,2017,2000
2031,2059,2064,2022,1907,2001,2024,2009
2011,2046,2051,2016,1912,1996,2028,2013
2016,2054,2047,2022,1951,2019,2023,2009
2020,2054,2047,2024,2009,2021,2009,2005
2018,2053,2038,2046,2052,2022,2041,2030
2038,2052,2041,2063,2042,2050,2052,2036
2040,2060,2047,2067,2014,2070,2058,2054
2046,2081,2050,2067,1930,2065,2058,2049
2045,2069,2040,2063,1842,2038,2041,2041
2015,2047,2005,2054,1790,2040,2050,2034
2024,2033,2006,2083,1880,2063,2066,2047
2048,2058,2027,2105,1973,2085,2076,2045
2046,2046,2006,2090,2011,2079,2071,2029
2026,2025,1979,2072,2110,2052,2048,2034
2042,2035,1995,2086,2174,2030,2025,2039
2076,2065,2017,2073,2115,2002,2023,2041
2075,2072,2022,2058,2077,1999,2029,2020
2035,2064,2011,2038,2058,2016,2036,1982
2010,2049,1996,2038,2117,2036,2029,1982
2010,2033,1991,2060,2208,2067,2042,1996
2020,2031,2001,2081,2232,2074,2065,2006
2018,2024,1999,2075,2164,2057,2057,2001
2024,2029,2017,2066,2094,2050,2055,2004
2028,2034,2039,2072,2079,2053,2053,2005
2035,2041,2063,2064,2039,2042,2049,2002
2031,2034,2069,2040,2010,2035,2009,1989
2029,2046,2093,2056,2058,2039,2021,1988
2018,2055,2104,2051,2078,2060,2036,1975
1992,2043,2096,2047,2053,2068,2038,1975
1998,2052,2104,2044,2042,2086,2068,2006
2033,2061,2117,2052,2045,2084,2058,2021
2064,2067,2121,2060,2059,2065,2059,2017
2052,2054,2105,2051,2068,2030,2054,2026
2047,2045,2093,2075,2103,2045,2053,2031
2060,2055,2101,2115,2191,2065,2054,2027
2064,2052,2103,2128,2238,2076,2064,2030
2057,2030,2101,2125,2227,2074,2087,2052
2059,2026,2109,2120,2212,2057,2060,2060
2044,2014,2086,2102,2186,2036,2065,2061
2036,2024,2091,2118,2231,2052,2065,2065
2042,2047,2122,2124,2103,2059,2072,2077
2051,2064,2132,2133,2142,2067,2065,2079
2049,2056,2102,2146,2208,2085,2061,2058
2049,2044,2080,2153,2236,2111,2066,2037
2033,2044,2061,2141,2208,2126,2081,2032
2033,2051,2037,2140,2210,2123,2051,2029
2030,2057,2033,2129,2184,2106,2059,2035
2042,2066,2031,2119,2137,2072,2045,2010
2045,2069,2029,2097,2005,2051,2041,1994
2040,2065,2029,2052,1811,2057,2038,1980
2012,2074,2016,2035,1860,2058,2034,1994
2016,2064,1990,2035,1974,2056,2020,1998
2003,2057,1975,2023,2020,2040,2028,2002
2011,2054,1956,2017,2037,2025,2039,2002
2024,2050,1956,2007,2034,2035,2041,1992
2021,2039,1959,1985,2008,2037,2034,1984
2019,2035,1950,1978,1991,2026,2014,1986
2024,2024,1946,1982,1969,2025,2029,1990
2030,2024,1955,1984,1944,1998,2019,1982
2030,2018,1960,1999,1935,1962,2045,1981
2029,2017,1967,2014,1972,1971,2033,1988
2039,2025,1981,2041,2037,2009,2050,1988
2045,2037,1996,2073,2094,2045,2050,1995
2048,2034,1989,2081,2134,2061,2060,1991
2032,2024,1987,2078,2139,2071,2057,2003
2032,2033,2014,2084,2129,2065,2063,2008
2037,2045,2041,2093,2104,2057,2056,2021
2035,2036,2037,2078,2083,2038,2032,2016
2027,2030,2028,2056,2068,2032,2038,2016
2026,2018,2013,2036,2049,2029,2031,2032
2034,2021,2021,2030,2043,2027,2033,2036
2026,2041,2064,2044,2055,2029,2017,2033
2026,2061,2103,2049,2049,2042,2033,2036
2030,2080,2109,2029,2031,2068,2025,2044
2045,2086,2101,2018,2025,2093,2029,2039
2046,2088,2084,2026,2038,2106,2035,2049
2038,2088,2087,2034,2054,2104,2058,2053
2037,2095,2104,2048,2076,2068,2070,2061
2045,2095,2093,2049,2083,2056,2066,2058
2043,2076,2067,2032,2072,2060,2070,2054
2044,2070,2054,2015,2058,2055,2054,2043
2033,2060,2046,2004,2038,2047,2060,2036
2032,2044,2038,2000,2047,2045,2052,2026
2024,2045,2049,1998,2042,2050,2044,2021
2019,2039,2036,1989,2047,2058,2061,2024
2032,2061,2045,1997,2060,2071,2074,2037
2050,2069,2050,2015,2078,2073,2043,2042
2063,2068,2032,2021,2084,2071,2068,2049
2070,2053,2005,2015,2069,2056,2050,2025
2068,2034,1987,2010,2054,2030,2031,2005
2065,2030,1992,2020,2048,2025,2030,1996
2052,2056,2031,2050,2063,2033,2036,1999
2046,2078,2049,2080,2072,2038,2041,1997
2026,2071,2049,2098,2080,2039,2033,1993
2018,2073,2058,2104,2090,2046,2042,2000
2021,2078,2058,2097,2084,2047,2039,2012
2031,2082,2046,2086,2084,2054,2033,2015
2037,2069,2037,2079,2086,2063,2045,2020
2038,2064,2027,2065,2081,2062,2038,2027
2038,2062,2033,2055,2074,2056,2041,2022
2036,2067,2059,2060,2085,2064,2049,2027
2043,2065,2078,2072,2085,2054,2057,2040
2038,2062,2122,2105,2085,2047,2063,2053
2042,2066,2172,2112,2080,2041,2057,2059
2058,2090,2216,2144,2102,2047,2049,2060
2069,2110,2213,2159,2104,2051,2086,2055
2082,2110,2214,2166,2121,2060,2071,2053
2069,2102,2198,2165,2119,2071,2095,2048
2057,2075,2158,2151,2107,2063,2073,2049
2047,2063,2116,2138,2095,2050,2054,2064
2045,2049,2077,2137,2091,2060,2056,2077
2049,2064,2037,2148,2097,2070,2063,2085
2044,2065,2003,2143,2092,2064,2060,2071
2056,2065,1972,2138,2081,2044,2055,2038
2055,2056,1950,2125,2066,2042,2039,2011
2065,2056,1942,2112,2066,2043,2034,1988
2035,2045,1935,2082,2051,2049,2028,1997
2025,2030,1935,2028,2037,2084,2032,2001
2017,2043,1958,1981,2027,2079,2038,1998
1997,2056,2001,1956,2017,2060,2036,2008
2018,2080,2048,1943,2013,2038,2047,2022
2031,2110,2079,1939,2019,2039,2034,2026
2048,2116,2092,1950,2038,2044,2055,2028
2051,2095,2069,1972,2050,2052,2067,2020
2037,2070,2051,1986,2053,2064,2057,2014
2037,2059,2052,2012,2073,2065,2055,2007
2026,2043,2046,2014,2062,2058,2058,2004
2019,2049,2043,2005,2060,2061,2047,2011
2026,2062,2077,2036,2071,2076,2062,2019
2031,2080,2111,2063,2082,2094,2071,2022
2041,2100,2134,2065,2081,2138,2061,2013
2039,2102,2128,2056,2043,2166,2052,2020
2036,2093,2104,2036,1990,2140,2054,2020
2033,2083,2081,2013,1967,2100,2039,2025
2029,2074,2056,1994,1946,2040,2021,2021
2023,2070,2044,1999,1983,1968,2035,2036
2032,2067,2041,2025,2095,1967,2054,2048
2043,2062,2047,2047,2179,2014,2063,2058
2071,2073,2057,2061,2205,2060,2076,2071
2066,2075,2061,2069,2195,2052,2076,2075
2058,2075,2080,2084,2165,2027,2050,2068
2038,2077,2085,2089,2137,2003,2060,2070
2033,2084,2087,2077,2110,1992,2050,2065
2047,2063,2076,2073,2089,1997,2058,2072
2068,2054,2062,2068,2084,2008,2023,2069
2070,2046,2046,2070,2082,2027,2014,2061
2059,2044,2025,2063,2090,2041,2028,2048
2051,2043,2025,2073,2092,2048,2029,2032
2042,2045,2030,2073,2095,2066,2048,2030
2043,2070,2030,2075,2079,2085,2048,2026
2028,2064,2034,2076,2071,2108,2054,2024
2007,2057,2015,2075,2076,2141,2056,2022
2016,2067,2019,2069,2101,2177,2060,2014
2041,2078,2015,2059,2097,2154,2059,2019
2040,2083,2030,2052,2090,2059,2042,2003
2042,2075,2040,2042,2063,1972,2033,1999
2028,2053,2017,2037,2058,2005,2032,1996
2015,2025,1995,2030,2052,2034,2048,1997
2016,2036,1999,2040,2067,2040,2046,2000
2021,2052,2035,2042,2074,2044,2042,2000
2030,2065,2083,2055,2085,2059,2062,1998
2030,2086,2116,2088,2093,2061,2061,2018
2043,2079,2112,2099,2091,2081,2076,2013
2038,2079,2075,2102,2095,2091,2071,2024
2042,2069,2045,2110,2100,2093,2063,2017
2045,2063,2014,2112,2105,2099,2052,2022
2046,2066,1999,2117,2102,2076,2047,2020
2033,2066,1975,2112,2101,2040,2040,2022
2032,2066,1966,2102,2094,2032,2045,2030
2039,2070,1967,2099,2089,2036,2045,2042
2040,2066,1975,2096,2088,2045,2046,2041
2030,2063,1971,2072,2079,2055,2046,2043
2023,2057,1957,2042,2082,2051,2031,2041
2028,2054,1958,2031,2076,2049,2023,2043
2019,2056,1981,2020,2055,2038,2033,2044
2027,2053,1999,2009,2058,2038,2037,2046
2019,2065,2026,2005,2056,2034,2039,2053
2036,2090,2055,2017,2066,2041,2041,2069
2051,2110,2078,2029,2082,2050,2038,2070
2058,2094,2077,2022,2071,2049,2063,2067
2048,2088,2077,2020,2069,2050,2057,2056
2038,2080,2076,2015,2069,2048,2048,2042
2044,2076,2078,2013,2064,2049,2049,2033
2038,2071,2095,2018,2056,2050,2045,2033
2034,2080,2116,2025,2070,2046,2016,2031
2022,2077,2106,2026,2062,2044,2026,2028
2024,2069,2086,2028,2059,2042,2029,2027
2024,2065,2086,2040,2071,2043,2054,2026
2039,2070,2086,2054,2081,2053,2070,2034
2046,2075,2082,2066,2088,2064,2072,2033
2056,2067,2074,2075,2096,2066,2085,2032
2056,2072,2066,2081,2092,2062,2076,2035
2065,2068,2064,2074,2084,2051,2069,2028
2038,2043,2040,2065,2073,2038,2036,2014
2026,2040,2042,2060,2065,2026,2037,2014
2032,2061,2060,2066,2064,2020,2035,2016
2043,2091,2080,2078,2073,2029,2020,2017
2055,2111,2092,2098,2077,2035,2041,2030
2066,2122,2085,2091,2080,2044,2048,2041
2066,2110,2072,2093,2087,2054,2051,2042
2065,2102,2072,2092,2087,2054,2056,2047
2061,2114,2082,2093,2089,2053,2073,2047
2063,2118,2090,2083,2086,2057,2068,2059
2065,2115,2089,2078,2080,2069,2057,2069
2059,2103,2068,2064,2079,2069,2061,2072
2050,2094,2046,2045,2069,2060,2050,2072
2040,2079,2035,2038,2074,2057,2043,2077
2042,2076,2044,2046,2078,2055,2044,2075
2039,2070,2046,2051,2080,2055,2016,2084
2039,2065,2032,2047,2072,2043,2032,2084
2034,2056,2024,2042,2076,2044,2040,2084
2043,2072,2046,2058,2082,2057,2041,2085
2047,2077,2069,2063,2089,2064,2044,2081
2049,2075,2062,2064,2078,2058,2053,2077
2045,2068,2038,2059,2069,2057,2060,2062
2041,2059,2036,2074,2080,2068,2059,2049
2042,2069,2094,2104,2085,2067,2069,2038
2050,2079,2147,2138,2096,2077,2067,2039
2058,2076,2181,2164,2105,2072,2064,2043
2054,2075,2181,2166,2107,2064,2061,2039
2054,2077,2163,2160,2092,2041,2053,2025
2054,2074,2153,2158,2084,2036,2040,2020
2048,2073,2134,2155,2082,2056,2052,2009
2041,2069,2119,2145,2077,2078,2054,2008
2037,2066,2098,2154,2088,2095,2053,2016
2049,2070,2090,2158,2090,2060,2045,2009
2046,2057,2066,2147,2085,2005,2025,2002
2030,2045,2035,2123,2060,1988,2003,2005
2029,2041,2014,2108,2053,1999,2011,2006
2016,2026,1982,2079,2045,2007,2015,2008
2023,2044,1978,2063,2048,2014,2021,2021
2030,2053,1977,2019,2039,2016,2041,2027
2036,2056,1976,1983,2031,2020,2043,2039
2035,2057,1983,1945,2035,2027,2031,2048
2038,2058,1989,1940,2037,2025,2034,2057
2045,2074,2016,1962,2046,2034,2054,2064
2054,2097,2054,1987,2063,2048,2066,2074
2067,2112,2090,2013,2069,2056,2067,2079
2069,2112,2094,2027,2068,2056,2045,2090
2061,2098,2090,2031,2053,2048,2058,2086
2052,2081,2077,2030,2053,2046,2061,2090
2056,2081,2078,2043,2064,2049,2052,2089
2049,2080,2079,2047,2072,2044,2049,2082
2040,2060,2067,2040,2066,2047,2054,2088
2049,2073,2074,2053,2068,2050,2050,2100
2061,2083,2073,2052,2060,2044,2035,2086
2058,2082,2064,2056,2060,2044,2029,2076
2062,2093,2068,2055,2060,2047,2028,2080
2070,2098,2074,2060,2063,2050,2050,2075
2068,2092,2074,2061,2056,2043,2053,2062
2058,2093,2067,2059,2051,2042,2054,2062
2058,2095,2070,2063,2059,2043,2060,2052
2057,2092,2066,2062,2056,2049,2061,2041
2049,2082,2065,2063,2053,2047,2061,2039
2051,2090,2065,2063,2062,2052,2046,2036
2054,2094,2068,2069,2070,2049,2038,2035
2055,2092,2068,2071,2067,2047,2061,2042
2058,2086,2064,2073,2073,2056,2055,2036
2059,2090,2062,2075,2076,2057,2057,2032
2058,2090,2061,2073,2075,2052,2052,2026
2045,2076,2049,2070,2079,2053,2048,2029
2043,2070,2047,2072,2081,2059,2058,2040
2051,2078,2048,2072,2076,2057,2060,2039
2048,2071,2044,2067,2069,2057,2057,2040
2051,2068,2036,2054,2059,2051,2062,2039
2044,2063,2029,2040,2048,2046,2056,2043
2039,2057,2018,2040,2053,2047,2059,2043
2040,2054,2004,2038,2050,2042,2080,2056
2044,2057,2005,2038,2047,2045,2066,2053
2040,2052,2009,2045,2054,2045,2048,2056
2041,2050,2015,2057,2057,2041,2047,2059
2040,2048,2018,2063,2052,2034,2063,2062
2042,2044,2020,2070,2051,2037,2057,2068
2042,2042,2028,2084,2050,2038,2057,2076
2044,2045,2048,2101,2061,2046,2060,2077
2049,2054,2067,2117,2068,2050,2067,2075
2047,2055,2061,2115,2067,2043,2050,2069
2034,2049,2036,2113,2063,2041,2054,2062
2036,2051,2020,2113,2056,2042,2060,2066
2043,2049,1995,2112,2057,2033,2053,2069
2045,2045,1983,2108,2050,2030,2056,2072
2047,2048,1984,2106,2048,2032,2052,2066
2052,2051,1994,2106,2043,2027,2046,2068
2042,2059,1986,2092,2039,2020,2045,2060
2042,2055,1977,2084,2029,2016,2052,2047
2040,2053,1970,2063,2024,2016,2039,2045
2042,2049,1971,2039,2026,2018,2035,2045
2041,2057,1997,2030,2024,2025,2048,2042
2052,2074,2037,2029,2023,2027,2035,2042
2057,2090,2065,2026,2031,2028,2036,2049
2060,2106,2082,2019,2037,2032,2038,2052
2070,2121,2108,2035,2044,2040,2036,2053
2077,2119,2110,2038,2052,2044,2054,2047
2061,2089,2093,2032,2051,2036,2048,2052
2050,2072,2067,2031,2040,2038,2059,2054
2063,2080,2082,2054,2056,2043,2072,2059
2074,2099,2109,2057,2066,2047,2055,2046
2064,2101,2124,2062,2062,2043,2058,2057
2060,2101,2118,2064,2064,2046,2056,2070
2067,2106,2113,2060,2056,2047,2074,2069
2070,2109,2113,2060,2067,2054,2072,2077
2071,2109,2106,2057,2072,2056,2073,2073
2070,2101,2098,2060,2076,2052,2071,2076
2063,2094,2096,2065,2074,2052,2069,2076
2058,2085,2083,2063,2076,2053,2046,2083
2061,2076,2072,2065,2084,2058,2046,2090
2058,2072,2064,2071,2092,2066,2036,2091
2056,2072,2064,2078,2091,2068,2051,2101
2055,2071,2064,2082,2085,2083,2064,2098
2054,2076,2068,2075,2090,2081,2058,2087
2040,2064,2050,2053,2063,2065,2052,2084
2032,2059,2039,2040,2044,2054,2049,2087
2036,2059,2044,2040,2032,2044,2050,2087
2048,2067,2043,2041,2044,2036,2050,2084
2054,2076,2055,2046,2039,2036,2056,2083
2055,2083,2063,2051,2043,2038,2051,2075
2061,2084,2062,2050,2049,2040,2053,2074
2066,2085,2062,2045,2044,2034,2051,2068
2060,2075,2048,2039,2038,2028,2042,2066
2062,2073,2052,2036,2023,2028,2047,2059
2065,2074,2055,2039,2020,2033,2064,2058
2070,2084,2052,2040,2018,2039,2055,2060
2070,2084,2038,2042,2020,2031,2048,2057
2066,2074,2016,2037,2022,2026,2049,2049
2058,2064,2020,2052,2028,2031,2039,2044
2062,2065,2032,2070,2038,2030,2038,2049
2066,2056,2024,2072,2042,2029,2028,2048
2056,2042,2008,2066,2040,2027,2035,2045
2041,2032,1999,2066,2038,2036,2029,2046
2044,2040,1997,2067,2042,2047,2026,2043
2058,2053,2000,2069,2041,2046,2055,2049
2066,2052,1986,2062,2039,2046,2063,2053
2063,2050,1982,2067,2042,2045,2064,2058
2059,2050,1988,2062,2033,2050,2070,2057
2058,2064,1995,2048,2030,2045,2046,2063
2060,2055,1991,2022,2020,2033,2030,2059
2046,2042,1982,2007,2009,2027,2040,2065
2050,2034,1982,1995,2013,2018,2049,2082
2050,2040,2011,1998,2006,2022,2050,2084
2051,2061,2063,2014,2011,2022,2060,2090
2052,2085,2117,2035,2025,2028,2057,2103
2069,2100,2140,2041,2037,2032,2040,2113
2070,2097,2133,2038,2032,2041,2048,2119
2075,2089,2125,2044,2034,2034,2049,2114
2069,2079,2128,2057,2038,2034,2038,2103
2067,2089,2148,2077,2040,2041,2036,2096
2070,2102,2144,2085,2040,2046,2055,2096
2065,2089,2124,2085,2044,2039,2061,2104
2068,2093,2119,2096,2033,2042,2045,2096
2077,2094,2122,2104,2032,2042,2045,2080
2075,2091,2104,2096,2025,2037,2055,2078
2074,2089,2088,2085,2025,2033,2046,2077
2080,2080,2069,2070,2015,2026,2057,2074
2067,2076,2047,2060,2005,2022,2033,2059
2057,2068,2051,2058,2010,2025,2025,2053
2052,2070,2055,2054,2018,2028,2035,2048
2053,2076,2053,2060,2025,2037,2057,2050
2060,2076,2039,2072,2030,2037,2055,2052
2061,2066,2034,2076,2038,2038,2054,2054
2061,2070,2035,2058,2033,2041,2055,2054
2058,2068,2031,2038,2020,2032,2045,2054
2053,2063,2036,2026,2010,2032,2044,2057
2065,2072,2049,2028,2019,2045,2061,2064
2067,2081,2045,2024,2024,2041,2056,2063
2056,2070,2041,2020,2028,2045,2063,2071
2064,2072,2043,2014,2029,2045,2045,2069
2061,2071,2033,2013,2018,2037,2049,2067
2056,2068,2054,2027,2017,2029,2057,2066
2057,2067,2058,2033,2024,2031,2062,2074
2061,2066,2064,2048,2028,2042,2060,2081
2060,2069,2066,2046,2030,2069,2066,2086
2058,2067,2059,2042,2031,2069,2072,2093
2051,2060,2053,2044,2038,2065,2061,2088
2054,2054,2042,2033,2028,2053,2044,2090
2052,2054,2047,2034,2030,2016,2039,2098
2054,2074,2057,2041,2034,1992,2048,2104
2063,2070,2055,2040,2029,1998,2035,2101
2050,2050,2041,2032,2012,2004,2040,2098
2054,2050,2038,2033,2010,2008,2050,2098
2057,2060,2041,2038,2006,2013,2045,2096
2058,2057,2035,2036,2007,2024,2034,2093
2060,2051,2019,2026,2001,2034,2035,2078
2051,2052,2017,2030,2009,2036,2028,2074
2056,2066,2012,2046,2008,2038,2037,2075
2060,2068,2004,2068,2014,2036,2050,2080
2061,2063,2002,2073,2015,2011,2041,2064
2054,2065,2006,2083,2035,1977,2049,2061
2055,2069,2011,2095,2040,1985,2048,2062
2053,2060,2019,2108,2040,2006,2054,2062
2060,2070,2021,2113,2037,2034,2057,2062
2064,2064,2020,2115,2040,2073,2057,2060
2064,2063,2015,2110,2031,2084,2062,2061
2055,2060,2025,2114,2031,2081,2062,2050
2053,2058,2038,2117,2024,2077,2038,2049
2049,2057,2037,2106,2029,2075,2045,2045
2052,2060,2050,2102,2026,2063,2030,2055
2060,2057,2053,2080,2016,2054,2050,2061
2057,2049,2057,2056,2016,2056,2041,2058
2054,2042,2046,2030,2011,2056,2033,2058
2041,2044,2061,2017,2008,2056,2045,2064
2043,2061,2086,2016,2013,2063,2026,2066
2050,2075,2098,2008,2011,2070,2039,2077
2056,2078,2092,2000,2010,2065,2052,2089
2067,2084,2082,2019,2021,2061,2077,2104
2075,2078,2074,2032,2036,2069,2060,2112
2065,2062,2071,2032,2044,2065,2052,2108
2056,2054,2063,2028,2039,2048,2032,2116
2057,2039,2042,2020,2037,2039,2038,2118
2053,2031,2046,2030,2041,2034,2050,2128
2062,2045,2064,2044,2042,2038,2054,2124
2057,2049,2065,2057,2046,2048,2049,2126
2056,2055,2062,2052,2030,2044,2054,2129
2060,2057,2054,2044,2022,2045,2054,2123
2052,2055,2040,2038,2020,2050,2044,2124
2064,2058,2039,2044,2017,2031,2035,2121
2070,2066,2052,2047,2017,2020,2043,2118
2080,2084,2068,2054,2018,2021,2046,2104
2076,2088,2068,2053,2032,2035,2043,2095
2072,2078,2061,2039,2035,2046,2041,2088
2067,2065,2042,2033,2026,2049,2028,2083
2060,2054,2035,2020,2009,2054,2027,2070
2050,2040,2025,2007,1999,2062,2046,2074
2056,2043,2022,2008,1988,2086,2034,2073
2057,2042,2020,2013,1974,2096,2042,2064
2057,2051,2028,2012,1960,2118,2045,2062
2055,2048,2024,2004,1957,2127,2031,2062
2050,2053,2034,2022,1982,2049,2043,2059
2049,2051,2044,2024,2010,2001,2061,2060
2061,2050,2035,2034,2051,2037,2071,2070
2067,2057,2045,2047,2064,2074,2089,2071
