CH1,CH2,CH3,CH4,CH5,CH6,CH7,CH8
2062,2083,2117,2060,2059,2049,2068,2030
2062,2079,2097,2053,2047,2045,2052,2022
2054,2063,2083,2035,2036,2039,2047,2015
2044,2051,2059,2018,2032,2038,2056,2016
2039,2047,2051,2023,2042,2045,2053,2021
2051,2058,2061,2037,2063,2044,2039,2022
2062,2062,2067,2040,2064,2048,2039,2027
2060,2055,2062,2047,2055,2047,2041,2031
2056,2057,2059,2046,2048,2041,2031,2034
2046,2063,2057,2050,2044,2038,2037,2040
2057,2066,2069,2054,2049,2039,2054,2049
2058,2071,2067,2055,2048,2050,2073,2054
2059,2068,2067,2053,2066,2059,2063,2057
2062,2063,2058,2049,2060,2062,2055,2059
2056,2054,2054,2038,2049,2054,2054,2062
2044,2049,2055,2037,2051,2056,2046,2066
2040,2042,2047,2034,2049,2056,2042,2071
2051,2052,2047,2033,2050,2056,2041,2069
2043,2049,2060,2048,2043,2056,2037,2067
2041,2037,2060,2047,2038,2047,2039,2067
2038,2038,2057,2045,2035,2051,2037,2072
2039,2043,2051,2047,2038,2056,2041,2070
2040,2038,2042,2057,2044,2049,2038,2064
2041,2036,2028,2061,2040,2042,2037,2056
2041,2030,2015,2067,2036,2040,2012,2053
2042,2028,1992,2075,2043,2038,2022,2051
2037,2021,1976,2068,2044,2041,2019,2044
2044,2027,1976,2067,2039,2044,2010,2036
2042,2030,1964,2061,2037,2052,2025,2029
2039,2026,1971,2067,2039,2050,2024,2025
2044,2022,1971,2067,2042,2044,2020,2026
2040,2019,1967,2058,2043,2046,2027,2023
2039,2018,1951,2038,2034,2047,2038,2015
2034,2014,1963,2036,2030,2043,2060,2018
2033,2014,1963,2022,2029,2042,2055,2013
2029,2013,1977,2013,2022,2037,2044,2015
2028,2022,2010,2021,2035,2037,2036,2023
2044,2049,2040,2044,2043,2052,2052,2034
2051,2051,2060,2042,2050,2050,2054,2031
2055,2052,2065,2034,2042,2050,2047,2032
2053,2061,2077,2039,2045,2054,2035,2039
2049,2059,2091,2033,2052,2056,2045,2036
2060,2058,2097,2037,2053,2051,2038,2042
2056,2056,2081,2023,2043,2048,2052,2051
2059,2046,2069,2006,2040,2049,2054,2051
2047,2040,2062,2001,2045,2051,2059,2049
2046,2049,2064,2003,2049,2056,2062,2064
2039,2050,2054,2007,2048,2059,2035,2075
2043,2052,2050,2009,2043,2053,2056,2088
2053,2053,2056,2016,2054,2063,2062,2091
2057,2068,2062,2031,2054,2066,2047,2094
2055,2056,2061,2034,2048,2053,2056,2085
2040,2053,2053,2026,2036,2049,2044,2084
2045,2056,2064,2034,2044,2054,2044,2094
2053,2065,2072,2038,2044,2056,2045,2092
2053,2071,2078,2039,2042,2054,2056,2077
2062,2074,2078,2042,2054,2061,2069,2078
2060,2072,2077,2033,2047,2061,2072,2070
2054,2064,2064,2034,2043,2061,2064,2066
2058,2062,2054,2033,2043,2057,2047,2060
2059,2053,2049,2030,2045,2054,2039,2054
2053,2048,2042,2031,2044,2052,2034,2047
2052,2052,2043,2037,2047,2051,2058,2042
2054,2063,2060,2044,2049,2052,2059,2037
2055,2060,2061,2045,2046,2051,2053,2036
2052,2054,2045,2042,2050,2057,2066,2036
2054,2054,2039,2043,2059,2053,2053,2034
2050,2050,2023,2038,2047,2050,2044,2029
2043,2037,2020,2040,2044,2050,2039,2031
2044,2040,2020,2048,2058,2056,2045,2041
2055,2042,2026,2052,2065,2053,2051,2035
2052,2043,2037,2063,2060,2049,2050,2039
2052,2042,2046,2066,2058,2052,2044,2040
2049,2051,2059,2067,2062,2049,2050,2038
2056,2061,2075,2071,2063,2043,2040,2042
2053,2058,2080,2072,2054,2026,2034,2047
2047,2048,2080,2072,2049,2031,2043,2047
2047,2054,2091,2073,2052,2044,2042,2052
2048,2062,2094,2076,2045,2047,2038,2058
2058,2061,2095,2070,2047,2044,2029,2069
2054,2056,2084,2073,2056,2043,2037,2072
2051,2064,2080,2075,2060,2046,2048,2079
2051,2061,2080,2086,2066,2054,2048,2086
2057,2061,2085,2087,2069,2052,2052,2085
2046,2051,2068,2069,2050,2040,2038,2082
2034,2035,2044,2058,2044,2039,2030,2081
2037,2038,2031,2054,2044,2039,2037,2077
2041,2034,2015,2049,2046,2040,2038,2075
2038,2041,2025,2055,2065,2048,2040,2080
2042,2056,2042,2056,2084,2062,2052,2077
2043,2057,2040,2058,2079,2059,2054,2072
2042,2058,2043,2054,2073,2065,2052,2065
2041,2055,2029,2041,2071,2059,2052,2054
2035,2042,2024,2026,2062,2060,2045,2047
2050,2061,2044,2009,2057,2070,2045,2052
2061,2075,2061,2019,2053,2071,2035,2053
2059,2074,2068,2030,2058,2063,2064,2052
2061,2076,2075,2040,2062,2063,2059,2046
2061,2070,2068,2040,2061,2053,2060,2043
2054,2062,2059,2043,2031,2044,2048,2042
2058,2052,2056,2033,2002,2030,2045,2035
2043,2047,2049,2027,2011,2023,2043,2028
2040,2046,2045,2038,2036,2030,2055,2025
2054,2055,2058,2043,2055,2039,2047,2032
2052,2065,2058,2056,2048,2041,2056,2041
2056,2062,2053,2068,2044,2041,2056,2046
2053,2060,2058,2078,2040,2044,2048,2045
2047,2059,2054,2060,2037,2054,2056,2052
2039,2051,2044,2040,2005,2064,2049,2053
2039,2047,2047,2020,1998,2061,2035,2052
2044,2051,2058,2028,2011,2060,2033,2054
2044,2061,2069,2044,2012,2053,2041,2049
2040,2049,2072,2051,2018,2024,2038,2066
2045,2051,2072,2063,2034,1992,2037,2083
2046,2052,2067,2067,2022,1998,2043,2091
2045,2048,2063,2068,2022,2018,2038,2088
2041,2053,2049,2072,2026,2026,2046,2090
2037,2040,2034,2065,2027,2029,2038,2078
2025,2035,2029,2066,2025,2030,2034,2075
2030,2040,2040,2075,2022,2027,2065,2077
2035,2046,2034,2073,2008,2015,2039,2078
2034,2046,2026,2065,2010,2012,2043,2073
2031,2039,2014,2042,2012,2018,2050,2068
2041,2037,2012,2039,2019,2031,2046,2070
2045,2043,2017,2052,2045,2048,2046,2061
2055,2042,2027,2062,2077,2064,2050,2060
2051,2039,2028,2075,2096,2076,2050,2061
2049,2037,2019,2073,2084,2084,2059,2059
2048,2040,2019,2083,2084,2079,2058,2047
2050,2050,2036,2093,2080,2078,2059,2039
2055,2058,2054,2105,2076,2065,2047,2034
2054,2052,2056,2098,2048,2054,2039,2025
2039,2047,2051,2089,2054,2047,2042,2021
2037,2054,2051,2084,2069,2037,2037,2018
2034,2044,2033,2063,2079,2020,2038,2020
2026,2044,2023,2052,2059,2014,2032,2024
2037,2047,2017,2066,2085,2023,2043,2027
2032,2041,2006,2049,2088,2031,2035,2024
2031,2035,2000,2041,2102,2055,2037,2029
2035,2027,1992,2035,2166,2076,2055,2028
2026,2016,1985,2032,2213,2091,2057,2043
2030,2027,2000,2038,2203,2099,2063,2046
2041,2047,2033,2037,2178,2092,2062,2064
2044,2061,2040,2035,2148,2071,2069,2064
2056,2073,2040,2027,2106,2062,2060,2076
2055,2071,2031,2024,2059,2059,2063,2083
2051,2062,2029,2025,2008,2060,2051,2085
2045,2053,2027,2017,1902,2061,2046,2078
2042,2047,2014,1993,1826,2042,2058,2080
2039,2037,2018,1972,1822,2032,2035,2073
2030,2031,2022,1963,1855,2013,2034,2077
2031,2034,2043,1968,1880,2022,2039,2074
2036,2051,2083,1988,1905,2017,2034,2086
2042,2060,2094,2023,1975,2042,2053,2088
2053,2061,2081,2039,1980,2055,2062,2087
2050,2054,2079,2032,1965,2041,2050,2079
2051,2060,2092,2046,1997,2021,2048,2076
2056,2062,2108,2059,2025,2012,2040,2064
2059,2065,2107,2056,2016,2017,2040,2062
2047,2068,2114,2091,2159,2085,2046,2061
2055,2066,2103,2133,2288,2142,2083,2054
2048,2058,2081,2129,2300,2149,2058,2048
2044,2051,2060,2096,2183,2111,2040,2033
2039,2044,2055,2063,2035,2075,2062,2035
2041,2056,2068,2067,2056,2065,2049,2035
2055,2056,2087,2082,2040,2050,2022,2032
2049,2047,2079,2066,1995,2032,2008,2022
2036,2038,2064,2053,1964,2021,2015,2020
2042,2041,2056,2054,1981,2018,2024,2019
2034,2039,2050,2068,2054,2019,2028,2020
2034,2033,2046,2079,2100,2026,2013,2021
2028,2032,2036,2081,2104,2026,2026,2022
2025,2029,2035,2081,2095,2025,2040,2025
2025,2028,2024,2083,2075,2035,2045,2033
2031,2031,2026,2095,2064,2034,2059,2039
2030,2025,2034,2089,2051,2028,2036,2036
2042,2035,2052,2087,2052,2038,2060,2047
2042,2040,2071,2094,2049,2043,2057,2054
2038,2043,2081,2095,2063,2047,2059,2068
2039,2036,2083,2088,2054,2044,2072,2074
2038,2045,2093,2090,2058,2042,2049,2079
2042,2046,2089,2084,2072,2048,2058,2074
2036,2035,2069,2063,2052,2043,2052,2080
2023,2018,2045,2046,2068,2068,2057,2080
2026,2016,2036,2050,2108,2083,2060,2086
2034,2021,2035,2080,2173,2098,2053,2079
2033,2033,2055,2107,2194,2108,2060,2076
2044,2063,2080,2112,2202,2119,2052,2075
2058,2079,2081,2103,2193,2116,2037,2073
2061,2079,2058,2068,2130,2078,2070,2062
2060,2064,2045,2011,2017,2014,2046,2046
2051,2052,2013,1969,1959,1982,2036,2037
2039,2038,1998,1967,1985,1994,2058,2022
2038,2041,1996,1990,1978,2009,2053,2022
2042,2036,1987,1989,1894,2014,2040,2022
2031,2024,1981,1982,1924,2029,2030,2016
2032,2017,1995,1979,1915,2041,2045,2016
2043,2045,2035,1994,1889,2056,2032,2017
2050,2060,2066,2003,1896,2084,2036,2008
2041,2053,2050,1990,1922,2080,2041,2002
2042,2044,2040,1999,1969,2071,2048,2010
2043,2066,2054,2030,2040,2079,2044,2017
2050,2069,2057,2055,2101,2080,2044,2028
2066,2067,2060,2062,2126,2034,2045,2050
2056,2063,2056,2044,2049,2014,2066,2052
2061,2049,2048,2027,1984,2010,2053,2057
2060,2052,2038,2019,1908,1966,2063,2053
2056,2054,2033,2017,1893,1957,2069,2045
2049,2059,2036,2027,1929,1994,2056,2057
2056,2063,2046,2051,1951,2047,2062,2076
2059,2069,2053,2060,1975,2055,2050,2080
2055,2068,2067,2053,2024,2087,2063,2088
2052,2072,2062,2042,2073,2126,2064,2078
2051,2067,2057,2018,2071,2130,2075,2080
2053,2055,2054,2015,2128,2124,2068,2078
2051,2052,2054,2031,2184,2108,2067,2082
2056,2052,2050,2040,2180,2088,2078,2099
2073,2072,2077,2047,2136,2079,2082,2102
2073,2078,2104,2046,2069,2062,2073,2089
2062,2069,2092,2026,1942,2016,2049,2062
2037,2041,2063,2004,1827,1979,2029,2041
2029,2034,2055,2055,1897,1966,2022,2038
2040,2042,2059,2119,2086,1980,2019,2034
2040,2042,2061,2134,2152,1989,2040,2037
2046,2059,2069,2136,2147,2012,2055,2041
2056,2060,2056,2120,2129,2055,2058,2039
2051,2060,2046,2124,2156,2078,2054,2026
2052,2052,2030,2123,2158,2080,2052,2028
2047,2056,2026,2108,2166,2091,2062,2034
2056,2056,2028,2094,2192,2105,2059,2033
2054,2051,2026,2082,2242,2100,2066,2034
2053,2051,2036,2095,2258,2109,2051,2025
2058,2056,2043,2111,2258,2092,2069,2028
2060,2054,2036,2100,2228,2078,2064,2038
2064,2049,2028,2086,2173,2061,2059,2026
2064,2047,2034,2076,2136,2064,2058,2033
2068,2050,2042,2075,2041,2043,2057,2033
2059,2053,2055,2058,1886,2000,2049,2027
2053,2045,2043,2045,1946,1968,2029,2026
2033,2032,2041,2058,2100,1985,2044,2031
2039,2046,2059,2091,2187,2024,2049,2042
2045,2057,2060,2099,2179,2045,2056,2058
2049,2047,2043,2076,2127,2049,2041,2056
2044,2038,2040,2061,2168,2053,2049,2059
2042,2040,2039,2050,2202,2059,2050,2068
2038,2037,2034,2028,2174,2059,2065,2065
2034,2037,2030,2004,2113,2059,2062,2069
2043,2043,2036,1996,2013,2050,2060,2065
2035,2037,2030,1993,1923,2028,2039,2069
2035,2033,2031,1979,1723,2007,2041,2063
2043,2038,2040,1991,1716,1996,2023,2062
2037,2035,2038,2006,1824,2006,2037,2058
2041,2033,2036,2039,1911,2023,2042,2069
2039,2035,2044,2058,1915,2027,2080,2057
2039,2037,2046,2081,1934,2031,2056,2052
2046,2037,2052,2105,2027,2030,2061,2036
2036,2037,2044,2104,2060,2039,2058,2039
2040,2036,2051,2083,2017,2048,2044,2034
2042,2048,2052,2031,1926,2038,2063,2034
2050,2052,2038,1971,2013,2051,2047,2018
2037,2037,2018,1921,2030,2051,2052,2002
2041,2024,2009,1927,2002,2069,2052,2000
2038,2034,2025,1997,2071,2095,2064,2010
2043,2050,2042,2033,2080,2092,2064,2011
2042,2043,2038,2037,2030,2075,2064,2014
2041,2042,2041,2028,1998,2074,2054,2007
2048,2055,2044,2018,2017,2076,2060,2019
2052,2051,2041,2013,2048,2075,2051,2027
2051,2049,2044,2038,2111,2075,2065,2034
2055,2049,2039,2032,2069,2066,2078,2036
2055,2056,2047,2033,2002,2073,2084,2047
2064,2053,2053,2047,1965,2070,2092,2047
2067,2059,2048,2042,1899,2037,2073,2048
2058,2056,2041,2005,1771,1977,2038,2038
2044,2032,2028,1977,1772,1961,2032,2039
2041,2032,2033,2010,1969,2004,2044,2045
2042,2040,2037,2039,2099,2048,2050,2052
2043,2039,2040,2045,2096,2041,2052,2052
2037,2034,2037,2051,2149,2030,2051,2059
2040,2037,2046,2084,2229,2065,2076,2076
2052,2053,2060,2113,2258,2087,2056,2065
2048,2057,2069,2108,2201,2093,2050,2062
2051,2059,2067,2093,2167,2114,2047,2066
2055,2063,2063,2083,2120,2114,2050,2066
2051,2052,2054,2066,2059,2079,2035,2057
2047,2048,2042,2052,1992,2049,2028,2046
2044,2039,2029,2054,1985,2044,2043,2045
2045,2038,2037,2061,2006,2030,2046,2047
2049,2043,2043,2076,2064,2019,2023,2044
2062,2056,2057,2094,2049,2029,2038,2037
2057,2064,2054,2085,2035,2041,2035,2027
2047,2054,2040,2069,2092,2055,2040,2016
2048,2048,2029,2066,2133,2060,2043,2015
2050,2042,2032,2049,2097,2016,2016,2013
2048,2038,2035,2037,2113,2001,2030,2013
2047,2043,2039,2041,2139,2024,2039,2023
2050,2049,2041,2041,2025,2039,2037,2021
2042,2032,2019,1993,1817,2028,2053,2009
2041,2022,2009,1985,1844,2038,2039,2023
2047,2043,2026,2032,2029,2062,2053,2030
2060,2048,2036,2069,2182,2075,2054,2036
2061,2049,2037,2080,2250,2075,2066,2034
2052,2038,2035,2067,2169,2043,2056,2034
2047,2043,2040,2046,2113,2028,2068,2038
2049,2048,2045,2064,2115,2042,2059,2039
2052,2044,2040,2064,2108,2046,2062,2044
2052,2045,2039,2075,2176,2058,2059,2054
2054,2044,2041,2094,2210,2062,2059,2056
2046,2035,2029,2053,2063,2013,2057,2059
2032,2021,2019,1988,1840,1970,2051,2054
2024,2020,2014,1982,1789,1971,2032,2057
2030,2032,2031,2011,1871,1989,2038,2067
2035,2040,2033,2025,2001,2013,2037,2065
2052,2056,2050,2044,2082,2038,2055,2072
2056,2059,2050,2081,2135,2053,2055,2080
2056,2060,2053,2071,2140,2060,2050,2081
2052,2053,2041,2051,2125,2069,2051,2078
2054,2055,2037,2045,2035,2057,2060,2078
2061,2048,2038,2032,1954,2056,2063,2071
2069,2044,2039,2034,1948,2064,2076,2070
2062,2051,2045,2059,2008,2092,2084,2066
2056,2072,2071,2077,2020,2111,2097,2066
2057,2085,2074,2094,2043,2118,2093,2073
2068,2089,2073,2101,2030,2112,2090,2076
2078,2086,2073,2079,1979,2108,2092,2062
2069,2076,2057,2043,1830,2105,2082,2056
2062,2071,2052,2051,1927,2105,2079,2047
2058,2070,2047,2068,2132,2094,2083,2038
2065,2070,2053,2077,2275,2061,2063,2027
2053,2056,2039,2064,2273,2063,2039,2012
2038,2040,2029,2077,2224,2078,2045,2008
2038,2036,2033,2111,2354,2108,2044,2016
2045,2047,2048,2125,2412,2127,2055,2021
2042,2044,2046,2103,2379,2116,2055,2024
2042,2044,2039,2090,2383,2089,2053,2027
2043,2043,2036,2075,2290,2072,2044,2015
2026,2034,2028,2006,2008,2034,2024,2014
2023,2030,2025,1999,1992,2035,2036,2031
2044,2041,2047,2027,2039,2045,2037,2051
2051,2053,2055,2028,1971,2028,2025,2050
2050,2040,2047,2005,1905,2014,2015,2047
2040,2034,2040,2002,1901,2016,2009,2043
2039,2035,2034,2017,1873,2007,2019,2046
2033,2032,2035,2014,1862,2017,2035,2040
2028,2032,2034,2023,1889,2012,2020,2050
2040,2037,2043,2024,1931,1976,2029,2067
2047,2042,2039,2027,1949,1983,2019,2058
2040,2034,2038,2015,1994,1996,2028,2069
2047,2048,2039,2017,2004,2004,2027,2067
2041,2042,2039,2017,1975,2000,2027,2065
2043,2050,2041,2027,1979,1999,2031,2061
2045,2045,2042,2036,2004,2013,2035,2058
2046,2042,2040,2030,2020,2040,2034,2049
2050,2043,2039,2035,2037,2056,2062,2046
2055,2047,2051,2031,1995,2066,2042,2046
2065,2052,2052,2018,1993,2064,2061,2045
2065,2058,2057,2022,2031,2052,2065,2053
2072,2057,2066,2036,2062,2076,2082,2055
2071,2055,2060,2053,2097,2103,2102,2050
2069,2063,2069,2056,2070,2121,2096,2049
2068,2066,2070,2053,2013,2117,2096,2043
2069,2060,2051,2022,1861,2063,2071,2035
2058,2037,2027,1992,1757,2009,2051,2022
2044,2026,2015,1983,1657,1986,2042,2015
2040,2027,2018,2010,1806,2031,2037,2013
2037,2030,2031,2053,2015,2093,2072,2014
2045,2042,2047,2075,2124,2120,2065,2021
2057,2050,2049,2055,2160,2098,2060,2020
2054,2037,2038,2041,2156,2080,2070,2032
2050,2034,2041,2035,2041,2056,2053,2031
2047,2035,2042,2060,2106,2030,2038,2037
2046,2039,2037,2088,2251,2057,2061,2043
2046,2024,2034,2098,2288,2079,2051,2045
2039,2024,2028,2092,2267,2072,2032,2037
2032,2017,2036,2077,2218,2065,2030,2041
2037,2029,2050,2058,2114,2054,2030,2043
2039,2039,2052,2050,2051,2043,2029,2043
2032,2032,2050,2057,2034,2027,2032,2053
2032,2029,2043,2050,1942,1972,2010,2066
2039,2028,2053,2065,2002,1966,2008,2066
2043,2042,2060,2079,2040,1994,2014,2066
2053,2051,2054,2070,2052,2014,2015,2070
2052,2044,2038,2064,2066,2024,2022,2058
2050,2040,2024,2062,2083,2032,2042,2060
2042,2037,2019,2058,2081,2038,2032,2052
2043,2029,2012,2061,2079,2043,2038,2042
2031,2028,2012,2059,2084,2052,2068,2044
2044,2033,2015,2062,2081,2053,2057,2041
2053,2039,2029,2062,2077,2049,2051,2033
2045,2039,2031,2068,2070,2046,2070,2025
2041,2040,2032,2054,1981,2031,2054,2018
2042,2038,2032,2043,1933,2023,2053,2015
2037,2032,2030,2050,1995,2025,2071,2017
2043,2031,2026,2057,2045,2023,2049,2012
2031,2026,2018,2039,2039,2014,2039,2010
2031,2020,2016,2041,2046,2025,2037,2007
2039,2024,2047,2070,2078,2043,2049,2021
2047,2048,2081,2079,2070,2049,2056,2021
2056,2058,2093,2094,2080,2060,2056,2023
2058,2062,2099,2097,2072,2081,2056,2021
2058,2055,2097,2086,2055,2092,2032,2026
2055,2059,2094,2083,2033,2078,2042,2030
2054,2058,2084,2066,2015,2053,2026,2036
2053,2060,2065,2034,1968,2000,2023,2040
2052,2053,2040,1996,1848,1919,2017,2051
2057,2051,2030,2000,1905,1920,2046,2054
2045,2046,2036,2022,2007,1989,2060,2065
2050,2048,2047,2049,2036,2047,2084,2071
2052,2061,2062,2073,2085,2082,2065,2082
2058,2067,2086,2099,2180,2106,2085,2087
2055,2058,2079,2102,2176,2099,2075,2076
2047,2044,2075,2086,2144,2084,2064,2080
2042,2041,2075,2083,2164,2072,2065,2081
2048,2047,2067,2066,2166,2058,2056,2081
2047,2051,2069,2064,2168,2073,2065,2079
2053,2058,2081,2087,2183,2081,2061,2078
2051,2054,2078,2033,1930,2028,2063,2068
2045,2042,2059,1975,1652,1993,2045,2059
2055,2045,2061,2018,1774,2010,2062,2052
2059,2052,2067,2051,1878,2018,2030,2043
2050,2057,2067,2050,1917,2013,2042,2034
2044,2056,2059,2046,1964,2016,2017,2026
2034,2044,2032,2026,2006,2028,2018,2018
2027,2029,2018,2042,2083,2039,2034,2014
2028,2033,2026,2055,2127,2053,2032,2017
2032,2030,2032,2059,2130,2057,2034,2017
2029,2031,2031,2038,2061,2056,2035,2028
2040,2030,2026,2003,2012,2043,2029,2026
2043,2034,2025,2004,2024,2050,2030,2033
2045,2038,2028,2030,2068,2060,2039,2035
2045,2032,2020,2033,2080,2071,2062,2039
2041,2035,2028,2046,2075,2074,2060,2046
2044,2042,2030,2045,2046,2065,2058,2038
2054,2046,2034,2046,2058,2068,2048,2043
2052,2047,2037,2054,2086,2062,2063,2045
2047,2049,2038,2056,2090,2062,2076,2049
2057,2052,2044,2057,2089,2077,2084,2046
2048,2056,2061,2070,2096,2066,2070,2048
2050,2052,2073,2073,2093,2054,2057,2049
2043,2044,2073,2075,2090,2028,2058,2050
2045,2043,2077,2083,2112,2035,2048,2060
2045,2042,2068,2088,2100,2046,2061,2064
2046,2029,2058,2078,2050,2041,2039,2066
2036,2022,2046,2060,2023,2020,2015,2064
2034,2017,2026,2068,2061,2022,2004,2064
2039,2022,2027,2074,2062,2024,2013,2059
2040,2021,2014,2069,2070,2031,2011,2056
2036,2014,2001,2043,2066,2026,2015,2042
2024,2006,1990,2043,2088,2032,2032,2036
2026,2019,2012,2055,2093,2040,2018,2036
2042,2039,2021,2062,2080,2055,2035,2047
2052,2050,2029,2068,2100,2067,2052,2044
2055,2052,2026,2065,2131,2077,2032,2041
2056,2059,2026,2042,2116,2074,2040,2047
2059,2055,2003,2020,2080,2064,2057,2044
2056,2050,1998,2009,2101,2062,2026,2038
2057,2045,2003,2022,2121,2065,2035,2029
2059,2046,2030,2030,2073,2043,2034,2022
2059,2068,2057,2053,2072,2029,2049,2028
2066,2077,2076,2060,2082,2019,2025,2026
2064,2072,2080,2056,2046,2027,2043,2020
2065,2070,2078,2066,2024,2032,2054,2018
2062,2059,2071,2067,2024,2021,2035,2025
2062,2059,2068,2065,2029,2035,2042,2026
2067,2055,2061,2062,2015,2055,2047,2018
2058,2053,2052,2051,2001,2047,2033,2026
2053,2049,2041,2043,1992,2029,2026,2020
2040,2041,2037,2035,1986,2016,2031,2017
2042,2043,2037,2041,2008,2000,2041,2043
2054,2047,2046,2064,2051,1998,2046,2060
2061,2051,2060,2068,2064,2018,2043,2066
2054,2060,2066,2063,2052,2032,2040,2072
2052,2048,2065,2042,2035,2045,2057,2067
2056,2037,2057,2050,2044,2060,2043,2073
2050,2042,2058,2067,2057,2075,2061,2068
2053,2042,2050,2073,2095,2076,2040,2068
2046,2044,2052,2081,2126,2081,2041,2081
2050,2056,2064,2082,2090,2094,2072,2077
2056,2062,2060,2077,2098,2093,2085,2073
2053,2059,2057,2064,2055,2071,2052,2060
2060,2055,2056,2068,2072,2074,2064,2059
2051,2056,2061,2061,2050,2074,2034,2047
2049,2060,2076,2062,2067,2084,2061,2036
2057,2071,2081,2071,2027,2076,2065,2026
2048,2066,2074,2043,1979,2030,2039,2010
2046,2044,2050,2012,1919,1995,2016,2004
2036,2039,2039,2013,1933,1986,2018,2002
2030,2037,2033,2014,1923,1984,2029,2008
2043,2046,2046,2035,1986,2012,2041,2013
2050,2048,2052,2041,1980,2015,2043,2007
2052,2045,2047,2036,1962,2003,2047,2010
2048,2039,2036,2035,1989,1995,2040,2005
2036,2024,2029,2035,2001,2018,2024,1998
2039,2029,2038,2052,2069,2041,2023,2008
2050,2039,2046,2078,2140,2066,2042,2011
2045,2050,2054,2079,2154,2069,2044,2017
2045,2045,2047,2071,2123,2070,2052,2025
2044,2043,2046,2067,2101,2079,2054,2019
2048,2039,2054,2061,2084,2071,2052,2019
2039,2045,2050,2060,2090,2060,2039,2023
2051,2048,2046,2065,2069,2062,2050,2028
2046,2039,2042,2056,2038,2053,2006,2030
2037,2033,2029,2058,2046,2051,2026,2034
2034,2027,2035,2068,2064,2064,2027,2047
2025,2022,2038,2071,2065,2066,2037,2051
2026,2025,2035,2079,2068,2066,2049,2057
2033,2020,2030,2088,2073,2065,2064,2056
2038,2025,2036,2096,2086,2064,2062,2055
2036,2016,2028,2098,2087,2054,2049,2054
2031,2020,2026,2102,2081,2045,2047,2048
2038,2029,2013,2102,2082,2040,2057,2042
2036,2022,1990,2104,2084,2043,2036,2043
2039,2019,1973,2094,2078,2036,2016,2029
2032,2015,1970,2092,2067,2031,2009,2028
2035,2019,1976,2090,2063,2031,2013,2026
2041,2029,1974,2078,2061,2027,2032,2021
2036,2020,1960,2060,2047,2028,2022,2017
2031,2014,1943,2040,2034,2031,2044,2014
2033,2010,1933,2024,2041,2034,2038,2010
2026,1997,1940,2006,2032,2032,2041,2007
2024,1996,1959,2000,2016,2024,2035,2011
2030,2023,2004,2010,2028,2024,2038,2012
2042,2064,2078,2028,2051,2035,2035,2017
2059,2102,2124,2040,2052,2042,2030,2023
2059,2097,2135,2031,2047,2046,2028,2020
2056,2090,2127,2030,2056,2044,2052,2026
2064,2089,2135,2030,2045,2043,2060,2024
2065,2084,2136,2039,2046,2054,2066,2028
2066,2075,2129,2050,2060,2062,2062,2030
2066,2074,2114,2059,2065,2060,2058,2031
2066,2072,2115,2062,2063,2055,2046,2036
2061,2067,2118,2064,2064,2066,2046,2037
2056,2074,2123,2071,2064,2064,2045,2049
2059,2077,2113,2064,2069,2065,2046,2046
2058,2071,2098,2069,2057,2056,2059,2054
2056,2064,2090,2065,2064,2059,2055,2066
2056,2060,2085,2062,2053,2064,2044,2076
2051,2062,2076,2059,2055,2066,2059,2075
2055,2059,2073,2061,2057,2064,2062,2072
2059,2058,2071,2058,2062,2064,2052,2069
2045,2054,2066,2060,2062,2075,2048,2072
2051,2055,2061,2058,2068,2094,2049,2075
2055,2059,2065,2060,2071,2122,2045,2072
2054,2057,2065,2050,2069,2146,2049,2063
2051,2052,2065,2047,2059,2142,2057,2060
2057,2056,2059,2048,2051,2122,2061,2056
2052,2052,2057,2042,2038,2072,2066,2054
2054,2050,2062,2053,2045,2022,2061,2048
2056,2052,2061,2058,2053,2020,2067,2040
2056,2055,2057,2054,2051,2018,2053,2038
2056,2056,2063,2062,2050,2000,2062,2032
2060,2053,2059,2054,2045,2002,2062,2032
2055,2050,2052,2052,2049,1997,2067,2030
2052,2051,2043,2052,2043,1989,2051,2026
2056,2046,2031,2051,2047,1992,2055,2022
2051,2052,2027,2057,2048,2019,2052,2016
2045,2035,2018,2049,2054,2054,2050,2010
2039,2033,2023,2050,2046,2064,2068,2007
2042,2038,2023,2050,2049,2055,2060,2016
2044,2040,2026,2054,2058,2064,2058,2010
2040,2039,2031,2066,2064,2072,2070,2012
2044,2045,2036,2068,2069,2073,2051,2016
2043,2042,2040,2070,2078,2065,2058,2016
2045,2038,2048,2071,2080,2058,2045,2016
2041,2039,2051,2072,2065,2054,2033,2025
2044,2041,2055,2072,2061,2042,2032,2030
2039,2038,2047,2064,2049,2037,2035,2039
2040,2032,2047,2058,2049,2043,2054,2045
2036,2038,2053,2060,2046,2060,2074,2054
2032,2036,2059,2057,2051,2076,2076,2064
2040,2038,2071,2056,2047,2057,2060,2059
2040,2042,2074,2060,2049,2006,2053,2056
2033,2033,2068,2049,2040,1986,2044,2054
2035,2032,2064,2043,2035,2000,2053,2059
2041,2044,2067,2040,2035,2013,2062,2058
2038,2053,2064,2045,2039,2017,2051,2055
2046,2054,2060,2041,2035,2018,2055,2050
2045,2055,2066,2043,2043,2022,2052,2040
2043,2057,2064,2039,2041,2028,2046,2033
2046,2055,2052,2040,2039,2033,2044,2031
2040,2051,2045,2037,2043,2053,2047,2028
2043,2047,2047,2041,2043,2039,2046,2020
2044,2045,2045,2040,2041,2035,2041,2021
2043,2053,2051,2046,2054,2036,2056,2020
2047,2050,2056,2047,2052,2034,2050,2016
2046,2048,2053,2050,2054,2031,2053,2021
2046,2052,2050,2047,2055,2043,2064,2015
2050,2055,2053,2056,2069,2050,2066,2017
2037,2046,2045,2050,2056,2046,2063,2015
2033,2041,2044,2042,2056,2039,2059,2025
2039,2049,2051,2050,2059,2041,2052,2025
2043,2050,2054,2050,2056,2051,2063,2022
2046,2050,2058,2050,2061,2065,2070,2025
2045,2047,2057,2049,2068,2073,2076,2029
2051,2044,2059,2055,2075,2073,2073,2030
2048,2044,2056,2057,2072,2058,2069,2034
2045,2047,2052,2056,2067,2050,2076,2044
2046,2049,2052,2052,2067,2027,2076,2044
2043,2052,2052,2047,2061,2009,2067,2045
2044,2047,2046,2044,2056,2017,2072,2049
2043,2039,2049,2039,2050,2009,2063,2049
2041,2044,2049,2041,2039,2010,2061,2056
2040,2044,2049,2041,2049,2030,2068,2067
2045,2043,2053,2043,2052,2054,2066,2072
2038,2043,2036,2040,2043,2059,2072,2068
2039,2036,2033,2037,2040,2072,2072,2074
2043,2044,2032,2040,2044,2103,2070,2078
2051,2042,2028,2043,2039,2114,2067,2068
2053,2046,2030,2040,2037,2091,2055,2058
2046,2046,2032,2039,2031,2025,2044,2058
2047,2041,2024,2040,2030,1950,2038,2040
2041,2047,2022,2033,2020,1957,2036,2032
2043,2045,2022,2037,2030,1997,2048,2038
2048,2049,2045,2047,2034,2013,2057,2033
2052,2045,2060,2052,2036,2013,2050,2028
2056,2046,2060,2062,2043,2030,2040,2029
2051,2045,2072,2070,2044,2054,2055,2021
2049,2046,2092,2076,2051,2075,2060,2012
2041,2039,2100,2086,2045,2068,2042,2009
2044,2039,2102,2085,2047,2058,2032,2008
2036,2035,2099,2080,2045,2044,2029,2007
2035,2034,2091,2084,2050,2046,2041,2004
2043,2041,2085,2085,2053,2052,2061,2009
2044,2037,2068,2078,2052,2049,2047,2006
2043,2033,2050,2073,2050,2046,2054,2011
2044,2025,2029,2063,2050,2049,2049,2009
2040,2021,2020,2053,2056,2056,2059,2011
2044,2016,2011,2043,2056,2069,2063,2018
2044,2023,2014,2041,2061,2072,2076,2018
2038,2034,2016,2025,2056,2068,2072,2032
2038,2030,2013,2007,2038,2051,2062,2040
2034,2029,2013,1985,2033,2048,2062,2042
2037,2030,2027,1976,2032,2048,2053,2051
2043,2039,2046,1977,2032,2046,2063,2064
2045,2046,2051,1987,2035,2056,2079,2066
2056,2056,2062,1997,2047,2060,2074,2077
2053,2056,2059,2000,2043,2050,2060,2077
2050,2051,2058,2011,2034,2043,2063,2072
2052,2047,2054,2020,2044,2050,2067,2072
2044,2047,2052,2025,2043,2045,2067,2071
2048,2042,2048,2021,2039,2052,2046,2071
2051,2041,2042,2022,2034,2053,2038,2059
2052,2038,2046,2025,2031,2056,2040,2050
2051,2046,2050,2027,2033,2061,2055,2043
2049,2049,2054,2032,2039,2059,2033,2047
2055,2053,2052,2029,2033,2066,2039,2037
2055,2060,2062,2037,2040,2069,2029,2037
2053,2066,2070,2038,2036,2072,2038,2033
2063,2058,2072,2042,2042,2073,2042,2029
2058,2062,2066,2039,2052,2075,2044,2026
2059,2065,2065,2037,2054,2068,2029,2014
2050,2052,2057,2028,2042,2066,2008,2007
2035,2039,2050,2020,2014,2053,2021,2005
2043,2042,2046,2014,1992,2043,2035,2013
2051,2054,2053,2016,1977,2015,2026,2023
2050,2048,2046,2019,1977,1987,2023,2029
2048,2045,2039,2027,2000,1987,2027,2029
2053,2043,2034,2033,2022,1998,2023,2032
2049,2040,2046,2037,2035,2033,2034,2030
2055,2046,2061,2064,2073,2073,2049,2038
2059,2055,2066,2081,2096,2072,2046,2038
2060,2055,2069,2084,2106,2074,2042,2040
2052,2053,2067,2084,2096,2063,2033,2049
2052,2055,2061,2073,2076,2038,2036,2045
2055,2052,2067,2076,2049,2025,2028,2054
2054,2053,2063,2081,2036,2041,2041,2052
2043,2046,2054,2072,2054,2057,2048,2048
2040,2034,2044,2061,2059,2073,2061,2047
2037,2025,2027,2039,2046,2095,2061,2052
2038,2023,2026,2036,2058,2105,2068,2064
2042,2033,2042,2038,2058,2104,2083,2068
2043,2036,2041,2024,2024,2073,2064,2068
2047,2047,2046,2012,1976,1993,2065,2074
2050,2056,2049,2016,1993,1990,2059,2073
2050,2059,2052,2010,1970,2015,2055,2059
2048,2053,2046,1990,2009,2051,2053,2054
2053,2059,2049,2001,2091,2091,2073,2043
2061,2061,2047,2016,2105,2109,2082,2041
2056,2052,2039,2013,2103,2115,2085,2029
2050,2056,2040,2022,2107,2120,2083,2028
2050,2052,2041,2027,2123,2114,2087,2030
2057,2053,2036,2024,2103,2093,2068,2036
2059,2048,2035,2011,2007,2062,2070,2025
2050,2042,2036,2008,1919,2045,2055,2019
2045,2040,2041,2013,1970,2031,2067,2017
2046,2038,2047,2032,2064,2043,2074,2032
2054,2051,2054,2039,2122,2040,2057,2029
2058,2041,2052,2031,2142,2016,2048,2038
2051,2046,2048,2040,2144,2034,2037,2044
2066,2051,2063,2048,2144,2052,2037,2045
2066,2055,2072,2023,2028,2048,2033,2045
2068,2057,2077,2027,2027,2049,2054,2044
2059,2060,2073,2043,2047,2072,2051,2030
2048,2047,2063,2044,2037,2111,2032,2031
2040,2040,2045,2041,2032,2120,2018,2032
2032,2029,2050,2040,1988,2105,2039,2041
2034,2033,2052,2038,1950,2065,2033,2056
2041,2045,2071,2063,1994,1991,2050,2080
2055,2061,2096,2090,2064,1975,2056,2092
2050,2064,2092,2069,2030,2008,2060,2088
2046,2064,2090,2058,2001,2036,2037,2081
2043,2055,2080,2055,2013,2051,2050,2083
2050,2055,2076,2053,2058,2043,2035,2077
2043,2049,2073,2059,2104,2053,2033,2068
2043,2051,2054,2052,2104,2063,2051,2061
2047,2044,2054,2055,2100,2073,2050,2058
2039,2050,2046,2061,2094,2064,2028,2047
2048,2052,2045,2058,2065,2050,2020,2041
2049,2048,2034,2048,2056,2062,2031,2037
2049,2041,2016,2031,2041,2062,2032,2031
2050,2043,2020,2021,2030,2083,2047,2032
2045,2046,2032,2036,2087,2111,2050,2033
2044,2043,2035,2057,2146,2140,2061,2031
2045,2046,2033,2050,2152,2133,2068,2034
2042,2044,2020,2042,2131,2082,2055,2034
2040,2047,2012,2042,2163,2053,2054,2031
2042,2039,2018,2034,2156,2045,2050,2022
2043,2044,2023,2026,2110,2050,2055,2033
2053,2055,2040,2024,2064,2051,2074,2040
2048,2060,2030,1992,1915,2037,2072,2043
2055,2047,2027,1974,1793,2052,2077,2045
2061,2049,2040,2013,1921,2074,2087,2048
2065,2056,2057,2038,1992,2068,2081,2056
2058,2058,2064,2042,2014,2043,2060,2046
2052,2052,2075,2043,2019,2016,2052,2043
2046,2051,2078,2047,2065,2016,2055,2053
2044,2043,2078,2064,2121,2034,2065,2060
2044,2050,2081,2075,2116,2035,2043,2060
2047,2046,2073,2064,2083,2018,2021,2066
2042,2046,2067,2049,2062,1993,2018,2068
2041,2045,2063,2035,2037,1990,2011,2063
2036,2041,2044,2013,2013,2010,2016,2064
2029,2029,2040,2025,2060,2052,2040,2075
2037,2041,2060,2053,2077,2061,2016,2075
2048,2057,2082,2045,2030,2038,2016,2075
2042,2058,2084,2040,2031,2056,2017,2073
2050,2058,2074,2029,2022,2080,2029,2073
2048,2051,2056,2020,2070,2086,2043,2069
2048,2053,2046,2013,2054,2084,2033,2066
2058,2052,2048,2012,2052,2080,2036,2059
2057,2058,2048,2000,2007,2068,2024,2048
2052,2054,2039,1987,1930,2048,2016,2037
2049,2040,2028,1987,1883,2036,2014,2020
2032,2034,2024,1970,1833,2011,2015,2010
2034,2036,2040,1971,1817,1975,2000,2016
2041,2047,2052,1999,1919,1968,2007,2032
2046,2055,2050,2021,1999,1988,2006,2025
2037,2044,2048,2048,2044,1962,2008,2027
2046,2036,2039,2070,2126,1975,2027,2025
2040,2028,2039,2081,2174,2056,2050,2021
2045,2032,2044,2079,2187,2100,2053,2020
2040,2034,2055,2087,2182,2106,2064,2019
2042,2033,2063,2096,2149,2092,2055,2024
2043,2032,2075,2103,2132,2074,2055,2032
2045,2031,2090,2110,2114,2063,2027,2040
2039,2030,2099,2113,2110,2058,2060,2036
2042,2027,2093,2115,2101,2046,2047,2036
2037,2029,2087,2102,2098,2050,2040,2041
2036,2036,2090,2101,2107,2065,2047,2040
2040,2035,2089,2102,2127,2078,2044,2046
2045,2040,2081,2094,2121,2082,2051,2059
2044,2034,2066,2081,2103,2071,2066,2060
2048,2037,2052,2077,2103,2073,2070,2072
2044,2037,2035,2058,2079,2070,2075,2072
2035,2026,2012,2035,2000,2060,2054,2064
2026,2027,2007,2005,1922,2045,2050,2066
2027,2030,2013,1979,1873,2026,2053,2061
2028,2028,1997,1949,1828,2010,2016,2051
2031,2030,2005,1939,1830,1997,2019,2041
2036,2042,2020,1948,1910,2002,2040,2062
2051,2055,2048,1991,2022,2038,2065,2065
2056,2062,2065,2007,2058,2063,2061,2054
2061,2061,2061,2006,2131,2070,2052,2054
2049,2054,2056,2022,2210,2077,2075,2044
2055,2064,2071,2048,2256,2081,2067,2043
2061,2062,2077,2061,2234,2077,2046,2040
2053,2059,2075,2051,2184,2069,2034,2040
2055,2057,2065,2049,2132,2061,2047,2037
2048,2045,2052,2042,2058,2042,2041,2027
2042,2043,2052,2046,2019,2039,2018,2018
2037,2032,2044,2033,1908,2018,2029,2020
2036,2032,2044,2031,1890,2017,2045,2030
2045,2048,2054,2055,1966,2039,2048,2032
2050,2051,2051,2058,2008,2043,2047,2040
2044,2044,2051,2064,2035,2052,2055,2039
2043,2049,2050,2067,2053,2062,2063,2041
2053,2042,2041,2066,2061,2068,2065,2046
2056,2047,2026,2058,2067,2074,2066,2049
2065,2047,2013,2048,2080,2073,2066,2055
2055,2045,2014,2045,2075,2068,2071,2060
2050,2040,2022,2053,2081,2067,2073,2062
2049,2040,2031,2057,2084,2073,2049,2065
2053,2038,2037,2056,2081,2073,2058,2069
2046,2034,2044,2046,2072,2064,2055,2070
2038,2029,2047,2043,2060,2070,2061,2071
2034,2041,2068,2054,2045,2069,2072,2074
2036,2043,2067,2048,2023,2074,2064,2087
2036,2042,2056,2035,1974,2074,2064,2084
2049,2048,2059,2028,1981,2074,2049,2082
2046,2049,2064,2035,2000,2056,2046,2078
2043,2045,2061,2042,2006,2034,2036,2069
2042,2045,2055,2049,2048,2026,2045,2071
2040,2036,2044,2060,2071,2010,2042,2056
2033,2032,2040,2048,2052,1989,2026,2043
2032,2033,2035,2032,2030,1989,2034,2048
2037,2034,2034,2022,2025,2014,2037,2040
2046,2032,2025,2010,2005,2044,2038,2046
2044,2033,2024,2003,1970,2052,2040,2036
2045,2040,2027,2007,1982,2059,2043,2037
2052,2046,2031,2016,1997,2042,2042,2035
2055,2056,2050,2035,2011,2009,2044,2044
2057,2057,2056,2043,2013,2025,2047,2041
2055,2053,2052,2031,2015,2052,2033,2031
2044,2046,2051,2026,2027,2093,2053,2038
2051,2061,2066,2035,2038,2096,2066,2043
2054,2055,2060,2053,2086,2093,2058,2046
2056,2056,2063,2063,2119,2082,2060,2050
2063,2057,2066,2058,2100,2082,2061,2047
2056,2054,2059,2048,2058,2075,2063,2044
2056,2056,2069,2051,2036,2080,2058,2037
2048,2057,2080,2060,2030,2089,2069,2037
2057,2063,2089,2057,2025,2119,2063,2046
2051,2050,2088,2060,2022,2142,2064,2049
2042,2042,2071,2051,2026,2112,2064,2058
2040,2034,2056,2042,2046,2020,2044,2064
2037,2039,2050,2056,2079,1990,2046,2075
2036,2045,2056,2076,2138,2038,2062,2084
2049,2054,2052,2090,2177,2068,2064,2085
2050,2044,2036,2073,2201,2065,2044,2088
2039,2038,2019,2075,2173,2062,2035,2086
2054,2044,2030,2078,2141,2058,2049,2079
2039,2047,2025,2064,2066,2039,2044,2066
2034,2031,2012,2035,1959,2025,2021,2065
2034,2028,2005,2033,1997,2032,2041,2069
2043,2031,2008,2029,1965,2036,2052,2053
2035,2030,2011,2008,1913,2049,2046,2046
2027,2024,2009,2008,1972,2037,2036,2031
2024,2013,1999,1994,1989,2036,2037,2021
2030,2013,1993,1997,2014,2047,2040,2025
2038,2023,1993,2006,2027,2062,2053,2037
2041,2021,1979,1999,2025,2068,2067,2037
2049,2031,1973,2008,2036,2073,2060,2038
2056,2029,1975,2027,2051,2068,2060,2033
2057,2031,1983,2029,2047,2066,2060,2026
2051,2027,1976,2023,2034,2033,2038,2018
2043,2024,1977,2017,2030,2017,2022,2017
2052,2038,1973,2017,2002,2036,2011,2018
2051,2030,1965,2015,1969,2046,2037,2018
2048,2024,1964,2021,1942,2040,2039,2020
2043,2023,1970,2015,1949,2019,2035,2019
2040,2024,1986,2037,2009,1994,2050,2028
2045,2034,2008,2063,2079,2017,2040,2042
2045,2035,2026,2068,2105,2046,2056,2044
2041,2034,2034,2063,2115,2061,2054,2046
2041,2041,2065,2057,2100,2075,2063,2053
2042,2058,2104,2051,2071,2079,2066,2063
2053,2070,2130,2057,2049,2078,2050,2073
2062,2082,2144,2063,2020,2072,2062,2077
2064,2082,2148,2074,2031,2066,2065,2082
2068,2087,2157,2085,2066,2035,2064,2093
2063,2081,2150,2076,2070,2044,2054,2089
2063,2073,2140,2090,2104,2062,2065,2090
2056,2065,2135,2080,2124,2074,2049,2087
2050,2058,2106,2073,2109,2090,2047,2088
2054,2064,2098,2072,2108,2090,2060,2087
2070,2072,2099,2055,2046,2072,2045,2079
2063,2071,2085,2041,2027,2056,2053,2072
2067,2072,2080,2045,2016,2045,2068,2073
2068,2068,2070,2036,1984,2023,2059,2060
2062,2058,2059,2004,1985,2008,2048,2050
2051,2051,2052,1986,1958,2016,2048,2040
2050,2053,2054,2002,2055,2063,2037,2042
2057,2054,2062,2020,2070,2081,2058,2041
2053,2047,2073,2020,2047,2074,2044,2036
2060,2050,2077,2041,2034,2072,2061,2040
2060,2054,2082,2057,2013,2056,2053,2030
2065,2047,2067,2026,1952,2033,2044,2028
2058,2040,2060,2009,1948,2006,2049,2025
2057,2045,2053,2006,1980,1985,2045,2022
2046,2044,2052,2000,1991,1960,2012,2019
2043,2045,2052,2033,2060,1977,2035,2025
2056,2048,2060,2064,2107,2010,2071,2031
2054,2048,2053,2076,2156,2054,2078,2034
2057,2045,2042,2092,2227,2090,2080,2037
2053,2037,2060,2102,2249,2089,2068,2039
2046,2033,2059,2102,2224,2076,2030,2042
2044,2027,2056,2101,2165,2043,2022,2046
2040,2021,2034,2076,2050,2022,2052,2050
2039,2014,2016,2029,1825,1998,2038,2047
2030,2008,1996,1991,1826,2002,2040,2049
2033,2019,2004,2033,2001,2038,2047,2062
2046,2023,2001,2069,2130,2071,2047,2064
2038,2018,1994,2078,2147,2079,2052,2074
2043,2015,2006,2085,2116,2085,2056,2073
2051,2041,2027,2092,2082,2088,2069,2076
2058,2052,2030,2089,2084,2080,2064,2067
2061,2053,2032,2078,2073,2072,2068,2070
2056,2049,2034,2062,2052,2062,2064,2061
2052,2045,2043,2050,2030,2047,2060,2050
2045,2041,2057,2039,1983,2013,2040,2047
2046,2044,2051,2023,1989,2018,2056,2041
2051,2049,2058,2025,2015,2053,2056,2042
2062,2070,2079,2024,2020,2089,2052,2031
2066,2080,2084,2024,1977,2092,2046,2038
2062,2072,2074,2046,1962,2079,2040,2036
2069,2068,2067,2069,1957,2001,2040,2045
2077,2069,2064,2072,2006,1966,2052,2050
2067,2053,2054,2067,2104,2026,2081,2041
2058,2046,2045,2064,2156,2094,2083,2036
2065,2052,2043,2031,2156,2139,2087,2045
2069,2055,2038,2009,2165,2136,2090,2049
2063,2054,2020,2018,2184,2134,2095,2048
2070,2057,2022,2049,2169,2139,2084,2047
2075,2066,2032,2059,2097,2085,2078,2056
2072,2065,2028,2038,1954,1993,2063,2057
2066,2045,2013,1968,1764,1923,2048,2053
2039,2023,2015,1946,1799,1921,2039,2049
2034,2020,2038,1988,1950,1971,2051,2048
2036,2043,2092,2043,2040,2021,2060,2066
2045,2068,2133,2093,2116,2086,2095,2073
2046,2082,2136,2097,2141,2129,2085,2080
2055,2078,2123,2064,2129,2147,2073,2090
2054,2073,2112,2078,2261,2196,2124,2107
2070,2080,2116,2088,2326,2208,2116,2118
2076,2072,2102,2071,2269,2180,2093,2101
2069,2067,2089,2048,2179,2148,2070,2094
2065,2073,2085,2043,2148,2111,2054,2075
2063,2061,2073,2046,2050,2041,2036,2069
2058,2051,2063,2031,1929,1944,2015,2059
2051,2047,2058,2010,1836,1844,2004,2057
2048,2043,2053,2008,1832,1860,2001,2039
2040,2039,2042,1969,1658,1950,2005,2035
2041,2040,2054,2012,1833,2048,2029,2043
2045,2048,2060,2071,2002,2070,2030,2025
2043,2049,2059,2069,1997,2074,2049,2028
2053,2050,2056,2046,1997,2064,2039,2018
2051,2043,2041,2040,2075,2041,2030,2019
2049,2034,2035,2017,1998,1980,2032,2005
2055,2037,2031,1983,1895,1966,2023,2003
2061,2048,2046,2039,2043,2034,2045,2012
2064,2050,2056,2079,2146,2060,2048,2017
2064,2044,2055,2070,2111,2060,2050,2021
2063,2051,2056,2056,2098,2058,2052,2015
2048,2038,2047,2048,2101,2084,2044,2013
2038,2036,2046,2054,2130,2114,2036,2018
2043,2033,2053,2064,2149,2118,2046,2028
2047,2043,2050,2061,2168,2109,2046,2037
2050,2044,2046,2089,2235,2151,2067,2050
2056,2051,2060,2135,2227,2163,2074,2048
2050,2054,2059,2133,2136,2139,2074,2056
2056,2053,2064,2106,2055,2088,2066,2049
2044,2041,2048,2079,1991,2023,2052,2054
2046,2040,2051,2073,1960,1984,2043,2053
2045,2039,2046,2077,1957,2016,2038,2061
2042,2041,2050,2082,1981,2052,2046,2068
2049,2040,2049,2061,1995,2069,2060,2071
2048,2033,2045,2038,1959,2056,2062,2074
2051,2042,2047,2040,1993,2012,2066,2092
2070,2060,2061,2071,2055,2020,2061,2086
2061,2056,2053,2085,2072,2052,2051,2080
2058,2056,2055,2081,2100,2054,2047,2065
2051,2057,2051,2075,2094,2046,2063,2046
2045,2039,2044,2066,2199,2040,2033,2033
2037,2037,2034,2094,2364,2054,2016,2033
2037,2035,2037,2110,2279,2020,2033,2037
2042,2045,2044,2117,2142,1998,2055,2029
2049,2044,2046,2095,1938,1987,2034,2030
2040,2032,2030,2053,1805,1977,2026,2012
2028,2018,2022,2019,1812,1980,2019,2016
2040,2031,2031,2020,1845,1996,2024,2014
2044,2056,2049,2036,1923,2031,2042,2017
2057,2062,2057,2048,1984,2026,2037,2011
2048,2047,2040,2045,2017,1994,2034,2017
2049,2047,2042,2046,2022,2008,2037,2032
2061,2058,2051,2060,2086,2053,2057,2038
2061,2052,2049,2064,2148,2081,2055,2045
2059,2055,2041,2062,2143,2051,2060,2044
2059,2055,2040,2036,2025,1999,2042,2030
2053,2049,2039,2024,1937,1971,2033,2032
2053,2060,2043,2010,1965,1958,2030,2031
2049,2054,2038,2005,1940,1969,2040,2027
2044,2050,2035,2003,1906,2004,2028,2039
2048,2049,2051,2054,2039,2047,2048,2051
2058,2061,2064,2076,2084,2073,2059,2067
2064,2060,2057,2068,2067,2095,2061,2075
2065,2056,2049,2064,2105,2091,2044,2066
2044,2041,2044,2063,2055,2082,2046,2072
2041,2036,2054,2071,2080,2070,2051,2078
2039,2039,2048,2071,2102,2048,2043,2075
2039,2046,2047,2043,2027,2022,2028,2088
2054,2051,2047,2020,1988,2036,2029,2080
2059,2044,2036,1988,1892,2000,2009,2078
2043,2033,2024,1968,1819,1991,2012,2067
2050,2043,2029,2013,2001,2035,2009,2061
2044,2043,2033,2017,2024,2024,1998,2040
2047,2044,2037,2014,1920,2006,2039,2036
2052,2051,2041,2045,1970,2021,2050,2028
2054,2050,2051,2037,1854,2003,2045,2022
2045,2051,2057,2033,1899,2023,2047,2017
2039,2042,2036,2022,1960,2056,2044,2001
2027,2032,2021,2001,1954,2064,2032,1990
2026,2041,2029,2027,2041,2074,2036,2006
2041,2054,2053,2061,2107,2080,2039,2011
2051,2057,2056,2069,2102,2048,2051,2032
2054,2056,2053,2073,2111,2050,2062,2022
2046,2044,2045,2071,2104,2087,2034,2019
2042,2041,2045,2074,2083,2107,2032,2016
2044,2044,2039,2046,1992,2077,2017,2015
2036,2033,2038,2035,1952,2016,2034,2028
2041,2049,2053,2067,2089,1982,2050,2042
2056,2063,2064,2093,2104,2015,2049,2048
2053,2064,2069,2095,2104,2088,2077,2049
2058,2061,2063,2100,2159,2139,2080,2057
2058,2061,2058,2106,2158,2137,2074,2056
2056,2058,2049,2107,2158,2123,2061,2040
2047,2039,2028,2089,2145,2113,2047,2036
2033,2029,2020,2080,2106,2100,2031,2046
2032,2033,2017,2076,2096,2109,2044,2056
2037,2034,2024,2072,2164,2089,2029,2064
2043,2036,2033,2104,2233,2066,2059,2078
2054,2048,2045,2121,2290,2062,2079,2085
2058,2053,2057,2126,2247,2004,2043,2099
2067,2058,2051,2087,2144,2019,2057,2096
2069,2058,2030,2065,2230,2081,2052,2080
2045,2028,2008,2063,2324,2125,2033,2054
2025,2012,1995,2047,2294,2118,2039,2042
2036,2022,2010,2031,2135,2033,2032,2039
2050,2041,2033,2054,2035,1951,2030,2043
2069,2059,2049,2059,2131,2006,2047,2032
2063,2051,2040,2052,2121,2039,2028,2016
2055,2045,2038,2016,1953,2029,2045,2018
2039,2037,2032,1982,1756,2009,2028,2028
2040,2045,2044,1991,1764,2034,2053,2026
2054,2054,2056,2012,1876,2068,2062,2022
2064,2057,2057,2037,2036,2130,2068,2017
2058,2057,2056,2062,2137,2178,2062,2015
2047,2048,2048,2065,2120,2161,2039,2000
2043,2043,2035,2026,2053,2093,2036,1996
2038,2036,2020,1973,1976,1985,2019,2013
2049,2027,2022,1955,1843,1905,2034,2027
2050,2035,2035,1994,1945,1953,2049,2039
2048,2043,2046,2042,2083,2015,2068,2030
2036,2030,2034,2059,2070,2015,2051,2017
2026,2021,2028,2052,1983,1996,2029,2024
2029,2024,2032,2056,1981,2003,2026,2035
2034,2035,2040,2059,1998,2011,2039,2033
2044,2041,2045,2063,2059,2024,2045,2044
2053,2045,2049,2072,2091,2029,2041,2046
2050,2037,2048,2063,2040,2023,2035,2050
2043,2034,2037,2052,2040,2013,2031,2054
2037,2029,2035,2061,2076,2010,2031,2062
2037,2034,2040,2069,2097,2025,2056,2078
2042,2041,2049,2066,2081,2042,2045,2085
2049,2043,2046,2058,2004,2039,2063,2089
2046,2039,2045,2041,1972,2038,2064,2082
2042,2042,2031,2040,1957,2033,2051,2074
2033,2032,2028,2034,1977,2031,2045,2067
2036,2031,2022,2044,1994,2039,2041,2065
2038,2029,2022,2053,2027,2062,2055,2071
2044,2041,2034,2070,2089,2101,2071,2085
2065,2071,2059,2080,2154,2111,2078,2076
2073,2070,2056,2068,2108,2086,2067,2062
2072,2065,2052,2054,2025,2075,2078,2052
2062,2051,2037,2032,1900,2074,2073,2052
2061,2049,2042,2041,1944,2099,2091,2063
2069,2060,2049,2073,1972,2105,2097,2063
2070,2067,2058,2083,1944,2089,2069,2058
2068,2069,2055,2074,1958,2074,2052,2036
2060,2060,2047,2076,2018,2062,2058,2031
2052,2055,2050,2107,2110,2069,2059,2027
2052,2057,2044,2103,2134,2051,2056,2032
2050,2059,2045,2093,2158,2016,2042,2031
2048,2052,2045,2079,2149,2000,2053,2036
2047,2046,2035,2049,2213,1982,2038,2024
2039,2033,2032,2067,2363,2019,2049,2037
2050,2048,2048,2116,2407,2047,2052,2048
2058,2056,2045,2057,2142,2035,2047,2045
2057,2050,2046,2041,2094,2045,2051,2044
2052,2046,2047,2070,2155,2071,2049,2053
2050,2049,2050,2054,2022,2059,2045,2044
2049,2045,2038,2022,1926,2052,2041,2053
2043,2041,2038,2050,2021,2057,2028,2060
2042,2036,2042,2057,2091,2049,2041,2075
2045,2042,2038,2065,2125,2082,2030,2074
2050,2042,2046,2067,2113,2118,2024,2065
2038,2032,2037,2035,2000,2113,2026,2064
2037,2028,2030,2008,1906,2094,2013,2068
2043,2041,2044,2024,1940,2035,2028,2082
2052,2053,2052,2037,1952,1978,2021,2092
2065,2068,2064,2061,2030,1958,2032,2102
2067,2076,2073,2064,2032,1981,2033,2099
2077,2074,2070,2057,1994,2016,2019,2073
2070,2061,2055,2048,2057,2060,2029,2045
2061,2056,2052,2098,2153,2107,2040,2040
2058,2050,2050,2122,2185,2124,2051,2028
2057,2043,2042,2108,2102,2119,2047,2025
2051,2035,2036,2081,2009,2086,2039,2020
2044,2035,2037,2092,2041,2052,2045,2021
2035,2043,2043,2107,2066,2025,2054,2027
2042,2047,2052,2106,2087,2033,2063,2037
2058,2056,2061,2117,2095,2038,2070,2038
2054,2045,2060,2110,2089,2021,2061,2032
2051,2047,2053,2111,2069,2018,2062,2032
2049,2056,2070,2123,2035,2018,2046,2035
2058,2060,2070,2124,2017,2006,2049,2041
2064,2056,2072,2116,1987,2008,2068,2051
2062,2060,2070,2112,2012,2017,2068,2053
2061,2059,2066,2116,2083,2028,2069,2057
2060,2054,2065,2107,2140,2050,2074,2065
2057,2055,2060,2089,2200,2068,2067,2064
2060,2046,2054,2068,2221,2090,2072,2069
2057,2047,2044,2051,2204,2114,2061,2069
2056,2041,2037,2036,2180,2110,2032,2060
2051,2033,2019,1999,2067,2088,2044,2054
2041,2024,2016,1953,1950,2119,2043,2054
2041,2018,2016,1981,2041,2159,2047,2064
2045,2021,2024,1988,1901,2119,2066,2062
2042,2020,2022,1970,1866,2016,2035,2056
2040,2017,2026,1964,1860,1941,2019,2057
2037,2028,2034,1978,1873,1958,2034,2058
2030,2031,2036,1996,1917,1999,2036,2060
2040,2035,2040,2011,1942,2014,2050,2063
2044,2037,2045,2011,1908,2022,2058,2061
2050,2046,2054,2018,1932,2015,2058,2061
2057,2057,2067,2052,2018,1993,2017,2059
2065,2061,2068,2070,2131,2023,2026,2056
2066,2059,2068,2070,2157,2050,2019,2039
2061,2041,2051,2043,2006,2040,2003,2028
2044,2028,2039,2017,1906,2054,2030,2023
2036,2020,2024,2017,1858,2048,2032,2020
2037,2025,2022,2013,1830,1978,2059,2038
2052,2052,2040,2042,1878,1983,2068,2043
2061,2050,2044,2053,1953,1999,2041,2040
2047,2035,2030,2050,2007,2023,2035,2026
2045,2031,2030,2061,2095,2033,2059,2031
2051,2037,2035,2061,2115,2000,2054,2037
2049,2049,2038,2039,2117,1964,2044,2042
2052,2046,2023,2029,2176,1976,2034,2036
2051,2032,2015,2036,2166,2015,2023,2041
2050,2029,2015,2036,2146,2060,2031,2036
2045,2032,2023,2045,2174,2071,2044,2041
2038,2033,2027,2026,2109,2102,2035,2040
2040,2035,2021,2025,2100,2142,2058,2052
2046,2042,2029,2039,2151,2174,2072,2067
2049,2048,2035,2043,2145,2124,2073,2065
2047,2040,2036,2043,2139,2032,2062,2070
2051,2042,2046,2056,2167,2027,2069,2074
2047,2040,2050,2056,2153,2050,2053,2077
2048,2047,2055,2051,2106,2063,2065,2079
2052,2041,2045,2042,2024,2046,2045,2084
2049,2036,2039,2029,1895,2038,2048,2084
2056,2048,2044,2033,1932,2066,2059,2097
2063,2053,2047,2030,1893,2063,2056,2094
2059,2051,2046,2011,1846,2043,2053,2080
2056,2043,2044,2011,1938,2053,2026,2069
2050,2044,2047,2020,1964,2046,2019,2045
2036,2033,2028,1996,1900,2039,1992,2028
2035,2028,2023,2012,1914,2060,1982,2012
2028,2032,2025,2055,2024,2070,1986,2003
2031,2032,2027,2052,2063,2016,2005,2017
2040,2039,2041,2055,2106,1963,2000,2036
2058,2053,2054,2085,2192,1963,2036,2041
2058,2062,2060,2096,2234,2018,2045,2034
2059,2059,2060,2095,2242,2099,2054,2031
2051,2055,2052,2089,2207,2122,2081,2027
2047,2048,2048,2068,2105,2081,2050,2026
2036,2032,2039,2055,2030,2052,2031,2028
2042,2037,2038,2055,2027,2060,2063,2035
2055,2047,2050,2071,2075,2072,2066,2041
2059,2056,2059,2085,2110,2088,2074,2041
2053,2046,2043,2079,2093,2078,2083,2030
2047,2042,2042,2057,2059,2067,2062,2038
2051,2037,2038,2037,2014,2062,2076,2049
2049,2040,2032,2033,2020,2054,2064,2057
2047,2039,2030,2034,2033,2057,2081,2059
2050,2040,2029,2038,2056,2059,2065,2065
2043,2036,2032,2061,2136,2073,2053,2061
2040,2040,2042,2086,2192,2115,2064,2066
2038,2049,2059,2113,2218,2142,2063,2077
2046,2055,2062,2124,2191,2141,2074,2083
2056,2064,2064,2108,2141,2083,2059,2081
2059,2048,2047,2079,2064,2025,2046,2066
2037,2023,2031,2056,1984,2012,2044,2067
2031,2027,2037,2032,1850,2029,2043,2071
2033,2036,2039,2048,1975,2052,2044,2074
2034,2042,2043,2051,2017,2052,2041,2064
2036,2040,2044,2049,1995,2034,2041,2059
2033,2041,2048,2054,1960,2024,2038,2054
2042,2046,2048,2051,2010,2021,2035,2059
2047,2053,2046,2064,2118,2042,2065,2058
2053,2055,2050,2074,2179,2057,2064,2056
2045,2053,2045,2067,2128,2065,2066,2056
2039,2046,2036,2056,2062,2056,2064,2052
2040,2046,2036,2050,2017,2044,2049,2044
2049,2037,2033,2013,1973,2025,2044,2038
2051,2044,2046,2057,2139,2052,2049,2045
2053,2047,2046,2060,2034,2056,2060,2040
2045,2045,2038,2055,1956,2050,2032,2039
2041,2031,2035,2067,1995,2083,2061,2041
2037,2038,2039,2066,2004,2097,2074,2050
2041,2037,2036,2024,1929,2075,2075,2034
2034,2030,2024,1995,1916,2063,2056,2016
2027,2024,2010,1945,1779,2045,2038,2010
2034,2022,2021,1955,1791,2049,2058,2013
2043,2041,2039,2008,1789,2037,2022,2020
2043,2038,2040,2028,1961,2017,2004,2029
2034,2039,2033,2062,2111,1983,2010,2024
2029,2027,2032,2086,2241,1949,2015,2032
2032,2026,2034,2080,2204,1959,2013,2042
2038,2028,2041,2068,2144,2010,2031,2056
2036,2025,2044,2069,2120,2043,2050,2056
2035,2035,2046,2070,2099,2063,2061,2066
2045,2042,2053,2068,2101,2076,2070,2088
2051,2046,2052,2068,2089,2072,2058,2085
2045,2037,2044,2063,2067,2053,2056,2077
2034,2038,2037,2062,2059,2039,2062,2085
2037,2042,2048,2062,2076,2043,2066,2074
2050,2046,2049,2067,2087,2057,2070,2075
2046,2042,2034,2063,2100,2061,2065,2073
2046,2038,2037,2057,2110,2048,2058,2060
2039,2031,2025,2040,2042,2038,2053,2048
2040,2032,2023,2040,2003,2049,2041,2044
2047,2039,2032,2052,2013,2065,2046,2041
2047,2041,2034,2054,2031,2068,2047,2032
2048,2044,2040,2056,2044,2076,2043,2031
2045,2044,2042,2061,2051,2066,2042,2035
2042,2048,2042,2064,2048,2061,2055,2030
2041,2044,2044,2064,2052,2057,2037,2025
2047,2053,2048,2069,2058,2068,2046,2027
2047,2055,2053,2067,2056,2064,2056,2028
2044,2053,2050,2069,2055,2062,2049,2019
2044,2043,2040,2059,2056,2040,2043,2013
2037,2037,2033,2055,2054,2039,2045,2025
2040,2037,2036,2058,2068,2048,2039,2032
2051,2040,2039,2065,2064,2057,2042,2037
2050,2044,2047,2058,2067,2056,2053,2046
2055,2053,2068,2069,2059,2056,2067,2049
2054,2050,2067,2073,2065,2059,2068,2046
2050,2042,2065,2074,2058,2049,2042,2039
2046,2040,2057,2074,2062,2040,2043,2045
2044,2036,2055,2082,2068,2049,2044,2054
2050,2042,2049,2082,2068,2056,2059,2053
2042,2045,2054,2086,2064,2053,2063,2061
2049,2045,2051,2090,2065,2051,2041,2066
2053,2048,2048,2086,2070,2053,2030,2067
2052,2045,2045,2078,2063,2064,2029,2070
2048,2037,2041,2064,2039,2071,2037,2071
2040,2032,2024,2050,2026,2045,2005,2062
2033,2022,2017,2039,2025,2022,1992,2064
2031,2023,2021,2044,2020,2021,2004,2068
2039,2033,2028,2057,2070,2030,2013,2066
2044,2050,2038,2059,2097,2046,2021,2054
2045,2057,2044,2058,2080,2045,2026,2058
2043,2053,2044,2044,2056,2027,2035,2060
2050,2047,2043,2039,2034,2020,2033,2050
2052,2046,2036,2026,2024,2016,2022,2037
2042,2047,2028,2025,2018,2011,2015,2031
2051,2048,2037,2028,2028,2024,2034,2033
2052,2052,2045,2041,2046,2038,2045,2041
2058,2062,2055,2052,2054,2059,2058,2033
2056,2060,2056,2053,2051,2066,2044,2027
2053,2059,2061,2056,2045,2072,2056,2033
2051,2054,2063,2050,2061,2071,2058,2031
2047,2052,2060,2039,2054,2055,2042,2016
2037,2045,2056,2034,2015,2040,2018,2000
2030,2031,2051,2024,1964,2035,2020,2002
2033,2040,2049,2021,1932,2028,2032,2013
2038,2044,2053,2012,1917,2015,2017,2007
2030,2037,2045,2004,1916,2014,2002,2003
2035,2043,2058,2034,1995,2003,2032,2036
2057,2060,2087,2083,2103,2013,2049,2046
2064,2067,2096,2100,2154,2056,2058,2053
2064,2065,2084,2099,2158,2083,2056,2052
2058,2056,2073,2089,2134,2096,2056,2052
2061,2052,2066,2079,2136,2093,2050,2052
2048,2050,2060,2080,2134,2082,2028,2062
2049,2049,2056,2076,2115,2037,2045,2065
2052,2045,2057,2073,2103,2021,2046,2073
2050,2047,2054,2074,2087,2037,2052,2080
2052,2044,2050,2067,2082,2065,2046,2080
2033,2037,2045,2062,2079,2087,2047,2081
2030,2029,2025,2048,2057,2100,2044,2070
2034,2030,2026,2046,2039,2105,2049,2080
2030,2040,2033,2038,2027,2067,2042,2071
2036,2038,2027,2037,2026,2047,2053,2063
2040,2040,2030,2030,2033,1989,2043,2056
2030,2042,2033,2032,2044,1992,2031,2057
2037,2045,2033,2039,2056,2036,2029,2063
2047,2060,2039,2043,2056,2065,2060,2059
2051,2056,2035,2047,2058,2076,2069,2051
2052,2056,2036,2053,2065,2077,2071,2039
2049,2049,2037,2053,2077,2074,2054,2029
2049,2051,2042,2053,2067,2063,2060,2014
2049,2048,2046,2061,2069,2047,2062,2023
2051,2054,2052,2056,2074,2024,2064,2021
2049,2050,2058,2061,2064,2005,2057,2017
2040,2049,2061,2060,2068,1996,2054,2019
2049,2055,2054,2052,2067,2009,2054,2013
2044,2042,2053,2052,2061,2021,2064,2004
2046,2038,2051,2055,2052,2032,2051,2006
2037,2036,2048,2058,2046,2044,2051,2009
2037,2039,2047,2063,2059,2055,2057,2016
2040,2037,2051,2063,2071,2057,2066,2019
2040,2041,2047,2061,2059,2043,2057,2026
2038,2043,2054,2060,2057,2037,2056,2030
2041,2042,2054,2060,2060,2040,2053,2038
2042,2040,2049,2058,2066,2027,2060,2048
2040,2034,2040,2052,2058,2025,2069,2059
2049,2041,2037,2048,2052,2012,2071,2072
2047,2039,2042,2047,2081,2025,2080,2079
2053,2043,2041,2053,2112,2042,2069,2080
2049,2048,2042,2060,2128,2046,2062,2081
2050,2052,2040,2065,2119,2045,2064,2082
2048,2049,2038,2059,2100,2031,2043,2076
2040,2042,2033,2050,2053,2011,2035,2078
2041,2042,2035,2039,1985,1986,2044,2068
2044,2051,2038,2036,1982,2027,2036,2064
2043,2051,2041,2047,2007,2056,2044,2053
2046,2048,2044,2044,2019,2056,2047,2053
2046,2050,2043,2049,2033,2045,2051,2048
2042,2049,2040,2048,2037,2043,2044,2040
2043,2048,2036,2043,2042,2057,2052,2040
2045,2047,2036,2049,2044,2055,2051,2030
2048,2045,2038,2044,2042,2056,2043,2026
2046,2047,2036,2045,2047,2048,2044,2026
2050,2053,2037,2050,2052,2050,2051,2028
2051,2052,2043,2050,2053,2047,2041,2027
2051,2052,2039,2052,2050,2049,2033,2021
2051,2053,2034,2047,2066,2046,2032,2017
2049,2053,2038,2055,2055,2045,2042,2015
2049,2041,2031,2048,2052,2039,2043,2016
2041,2038,2028,2045,2047,2035,2046,2008
2053,2045,2036,2049,2059,2043,2054,2025
2050,2047,2040,2046,2062,2039,2060,2026
2055,2045,2039,2044,2060,2038,2036,2021
2049,2045,2038,2047,2059,2040,2054,2028
2043,2040,2040,2046,2054,2038,2055,2032
2046,2037,2045,2043,2052,2033,2044,2040
2038,2032,2041,2039,2052,2037,2048,2040
2037,2038,2052,2043,2054,2045,2055,2043
2043,2043,2052,2048,2064,2056,2057,2053
2045,2048,2056,2052,2062,2054,2067,2061
2043,2048,2049,2051,2065,2060,2063,2068
2049,2050,2044,2055,2069,2060,2064,2068
2041,2046,2048,2052,2058,2063,2052,2064
2042,2045,2049,2052,2059,2055,2038,2062
2055,2045,2047,2045,2052,2030,2005,2065
2042,2041,2034,2039,2050,2017,2026,2072
2045,2045,2036,2037,2049,2034,2039,2081
2051,2048,2044,2044,2048,2046,2043,2084
2056,2054,2045,2042,2053,2048,2050,2078
2058,2054,2042,2046,2057,2051,2057,2078
2059,2043,2045,2047,2051,2054,2057,2070
2057,2046,2046,2043,2051,2046,2048,2062
2055,2053,2039,2040,2046,2039,2040,2057
2048,2049,2040,2037,2047,2039,2049,2041
2053,2051,2043,2038,2049,2044,2078,2038
2055,2049,2038,2039,2050,2046,2066,2037
2052,2054,2040,2037,2051,2041,2066,2030
2043,2055,2039,2039,2049,2028,2027,2021
2043,2056,2040,2039,2053,2038,2056,2023
2049,2056,2041,2040,2060,2041,2051,2020
2052,2061,2046,2046,2073,2042,2042,2020
2050,2059,2047,2044,2068,2037,2049,2018
2054,2046,2034,2042,2068,2051,2036,2021
2050,2049,2040,2045,2068,2054,2043,2022
2046,2040,2042,2035,2054,2039,2030,2015
2046,2047,2043,2033,2042,2045,2038,2023
2040,2042,2045,2030,2028,2058,2040,2026
2037,2051,2043,2032,1998,2078,2036,2023
2041,2050,2052,2041,2033,2080,2041,2028
2044,2056,2062,2059,2040,2046,2040,2043
2045,2056,2067,2060,2039,2052,2046,2045
2052,2059,2068,2064,2057,2056,2037,2053
2046,2059,2065,2056,2069,2043,2018,2048
2043,2044,2050,2028,2054,2026,2006,2048
2035,2044,2038,2024,2092,2055,2024,2059
2039,2044,2041,2033,2097,2050,2029,2065
2043,2047,2040,2034,2086,2032,2035,2064
2042,2049,2049,2041,2081,2037,2025,2062
2035,2043,2047,2042,2072,2041,2030,2073
2037,2047,2048,2034,2077,2043,2020,2077
2045,2058,2056,2048,2069,2043,2028,2074
2044,2060,2053,2049,2069,2045,2039,2068
2047,2055,2050,2045,2064,2035,2027,2065
2051,2059,2052,2050,2059,2036,2019,2059
2044,2062,2046,2050,2057,2039,2016,2050
2045,2061,2045,2046,2058,2046,2026,2038
2052,2057,2043,2045,2055,2046,2024,2034
2043,2051,2044,2042,2057,2052,2035,2034
2044,2053,2041,2039,2059,2063,2040,2028
2043,2051,2039,2040,2064,2068,2041,2020
2038,2053,2047,2042,2062,2061,2051,2030
2049,2051,2046,2039,2061,2041,2045,2027
2045,2056,2050,2038,2057,2032,2054,2020
2051,2053,2048,2042,2060,2032,2046,2024
2054,2048,2043,2039,2057,2045,2029,2027
2038,2045,2033,2043,2073,2082,2060,2034
2049,2053,2049,2050,2088,2136,2079,2043
2052,2061,2055,2051,2089,2159,2073,2034
2052,2060,2051,2040,2035,2128,2062,2023
2053,2054,2042,2026,1989,2091,2035,2019
2041,2051,2040,2022,1967,2061,2035,2014
2042,2050,2037,2013,1966,2032,2018,2019
2045,2050,2040,2020,2007,2036,2025,2028
2044,2053,2046,2040,2109,2088,2042,2048
2052,2059,2050,2064,2168,2101,2059,2057
2057,2056,2058,2070,2160,2064,2034,2051
2041,2056,2057,2064,2131,2028,2034,2052
2043,2059,2062,2063,2094,1992,2029,2062
2045,2057,2064,2058,2083,1975,2033,2068
2041,2056,2064,2055,2065,1975,2033,2076
2043,2050,2061,2054,2053,1982,2016,2066
2035,2043,2053,2048,2035,2007,2019,2068
2040,2046,2047,2040,2034,2012,2019,2070
2042,2054,2056,2043,2049,2033,2025,2070
2043,2061,2052,2043,2061,2026,2047,2067
2045,2063,2051,2039,2065,2014,2031,2059
2043,2060,2055,2036,2027,2029,2030,2056
2043,2056,2054,2032,1985,2045,2017,2043
2043,2051,2045,2021,1981,2061,2001,2023
2036,2047,2039,2017,1980,2047,2016,2021
2043,2050,2040,2011,1975,2018,2023,2031
2048,2052,2037,2024,2020,2008,2037,2036
2048,2055,2045,2053,2070,2005,2054,2044
2047,2047,2048,2063,2110,2030,2053,2048
2054,2057,2045,2062,2142,2046,2060,2035
2050,2043,2039,2061,2170,2043,2048,2026
2041,2045,2039,2057,2167,2034,2041,2012
2045,2041,2032,2057,2130,2018,2024,1996
2041,2029,2020,2041,2100,2026,2010,1999
2033,2036,2020,2039,2151,2051,2035,2005
2043,2040,2028,2037,2142,2060,2037,2012
2042,2041,2036,2026,1994,2042,2047,2010
2039,2036,2036,2007,1859,2007,2033,2013
2036,2040,2036,2022,1930,2024,2040,2019
2044,2043,2041,2036,2052,2052,2067,2034
2054,2053,2047,2052,2080,2058,2067,2041
2051,2055,2047,2035,2035,2056,2082,2044
2056,2049,2037,2030,2032,2073,2077,2043
2050,2050,2041,2026,2034,2082,2079,2043
2050,2045,2039,2030,2044,2082,2074,2063
2042,2040,2048,2034,2048,2063,2052,2063
2035,2043,2046,2032,2038,2013,2051,2069
2042,2044,2046,2023,2027,1988,2036,2078
2046,2050,2055,2020,2017,1998,2049,2083
2045,2043,2045,2014,2013,2010,2049,2074
2036,2041,2037,2012,2006,2018,2054,2080
2041,2048,2035,2015,2016,2019,2055,2077
2047,2048,2040,2034,2057,2047,2067,2072
2054,2058,2041,2043,2084,2062,2074,2068
2061,2064,2049,2043,2080,2062,2080,2066
2064,2066,2047,2047,2069,2059,2078,2060
2057,2059,2052,2040,2066,2071,2075,2047
2054,2059,2047,2041,2058,2066,2072,2030
2059,2060,2051,2034,2050,2048,2062,2039
2058,2057,2058,2035,2043,2025,2048,2030
2061,2060,2055,2036,2032,2016,2040,2036
2060,2065,2055,2037,2040,2026,2044,2031
2058,2066,2059,2043,2053,2038,2037,2027
2058,2063,2063,2045,2042,2053,2046,2020
2054,2056,2066,2041,2028,2062,2053,2014
2053,2047,2057,2037,2017,2066,2053,2013
2050,2044,2056,2039,2014,2055,2061,2014
2056,2064,2065,2047,2024,2021,2055,2031
2064,2067,2073,2054,2048,1992,2027,2033
2065,2065,2069,2062,2060,2004,2034,2028
2060,2064,2060,2053,2057,2013,2053,2031
2057,2060,2056,2046,2049,2020,2046,2033
2059,2059,2050,2041,2048,2016,2047,2028
2058,2059,2044,2042,2046,2020,2046,2041
2047,2050,2039,2041,2048,2019,2057,2042
2050,2043,2035,2042,2050,2018,2053,2054
2050,2046,2034,2038,2059,2010,2043,2062
2044,2042,2031,2040,2060,2012,2045,2066
2047,2040,2031,2031,2060,2017,2043,2069
2047,2038,2028,2027,2050,2012,2043,2073
2049,2042,2024,2028,2048,2023,2043,2075
2049,2036,2024,2022,2046,2023,2054,2071
2039,2022,2018,2014,2046,2039,2054,2068
2044,2021,2018,2016,2049,2047,2066,2070
2048,2026,2024,2020,2043,2070,2066,2071
2049,2030,2031,2029,2048,2103,2068,2060
2042,2043,2041,2035,2056,2148,2069,2067
2045,2048,2044,2037,2056,2132,2073,2066
2049,2043,2042,2042,2044,2037,2065,2047
2052,2046,2032,2037,2035,1987,2070,2042
2043,2040,2031,2040,2036,2062,2073,2042
2051,2041,2030,2036,2036,2101,2083,2033
2050,2040,2031,2037,2030,2096,2082,2033
2049,2055,2035,2034,2017,2080,2072,2035
2057,2059,2037,2036,2037,2070,2060,2037
2053,2058,2040,2039,2037,2057,2061,2030
2053,2058,2040,2038,2038,2043,2049,2024
2053,2061,2036,2037,2037,2038,2034,2012
2043,2056,2033,2032,2032,2033,2024,2002
2048,2056,2044,2034,2039,2036,2024,2004
2056,2065,2058,2031,2036,2043,2019,2009
2050,2063,2059,2032,2043,2039,2024,2023
2058,2069,2074,2039,2046,2034,2050,2025
2067,2079,2077,2039,2050,2048,2053,2041
2071,2081,2088,2039,2051,2057,2054,2045
2069,2076,2076,2040,2048,2038,2048,2051
2064,2079,2062,2030,2043,2031,2045,2052
2064,2077,2066,2030,2043,2008,2039,2058
2066,2079,2062,2028,2044,2006,2031,2061
2064,2079,2070,2027,2037,2010,2045,2068
2061,2073,2069,2032,2034,2019,2047,2072
2062,2069,2062,2037,2040,2026,2048,2072
2064,2069,2067,2044,2035,2035,2048,2074
2062,2066,2082,2053,2026,2045,2045,2068
2046,2048,2069,2044,2000,2037,2037,2066
2046,2051,2068,2046,1962,2022,2042,2067
2060,2062,2075,2051,1940,2010,2038,2073
2053,2058,2060,2036,1928,2014,2031,2063
2056,2053,2052,2037,1969,2037,2049,2055
2065,2071,2060,2075,2051,2075,2061,2062
2072,2074,2065,2092,2091,2080,2056,2062
2073,2082,2060,2094,2114,2076,2067,2062
2069,2077,2050,2085,2107,2064,2072,2060
2064,2065,2044,2065,2073,2030,2074,2041
2060,2068,2036,2059,2046,2003,2056,2042
2064,2066,2036,2062,2052,2019,2049,2040
2064,2064,2038,2055,2050,2037,2045,2035
2060,2061,2034,2038,2015,2035,2041,2030
2053,2055,2033,2014,1985,2027,2027,2022
2044,2041,2020,1995,2000,2024,2024,2017
2039,2031,2016,1981,1981,2019,2012,2023
2035,2034,2019,1988,1976,2021,2032,2035
2050,2049,2037,2007,2033,2054,2036,2040
2056,2058,2045,2031,2076,2080,2050,2048
2061,2062,2059,2054,2111,2079,2054,2054
2056,2057,2050,2044,2116,2060,2040,2043
2053,2053,2059,2043,2142,2066,2056,2034
2048,2056,2067,2053,2139,2063,2043,2052
2054,2058,2067,2036,2104,2068,2046,2063
2053,2064,2063,2046,2177,2098,2065,2069
2054,2067,2061,2043,2189,2099,2056,2074
2051,2056,2044,2010,2065,2079,2047,2064
2045,2048,2040,1983,1985,2047,2032,2064
2043,2049,2039,1973,1906,2030,2023,2062
2044,2054,2037,1971,1875,1986,2023,2079
2048,2058,2050,2001,1951,1947,2047,2102
2052,2054,2054,2027,2047,1992,2060,2099
2050,2048,2050,2030,2084,2051,2056,2086
2051,2056,2051,2027,2096,2133,2064,2081
2056,2063,2059,2031,2077,2141,2075,2074
2053,2058,2051,2003,1933,2108,2061,2062
2054,2050,2046,2000,1947,2088,2063,2067
2058,2058,2052,2028,2050,2037,2048,2075
2064,2062,2057,2040,2176,2066,2050,2062
2057,2055,2049,2038,2236,2075,2049,2053
2058,2055,2042,2033,2207,2049,2039,2051
2055,2060,2053,2035,2137,2036,2033,2045
2061,2063,2051,2021,2047,2024,2044,2041
2055,2059,2049,2012,1981,2025,2013,2032
2057,2062,2046,2004,1858,2029,2012,2035
2057,2062,2061,2008,1868,2036,2020,2032
2056,2063,2064,2016,1925,2055,2025,2033
2049,2064,2058,2024,1970,2073,2044,2022
2046,2058,2058,2034,2008,2091,2058,2025
2058,2064,2068,2055,2043,2100,2067,2032
2060,2062,2063,2057,2061,2092,2035,2040
2064,2064,2062,2059,2082,2078,2035,2040
2067,2063,2064,2047,2080,2042,2052,2038
2058,2058,2059,2044,2119,2048,2039,2046
2064,2067,2054,2027,2085,2046,2031,2039
2057,2060,2041,2007,1977,2045,2049,2046
2051,2045,2037,2006,1931,1999,2049,2047
2045,2046,2024,2013,1954,1965,2032,2051
2045,2043,2021,2028,2013,1977,2038,2064
2047,2047,2028,2042,2056,1986,2053,2070
2049,2044,2027,2030,2041,2003,2075,2075
2050,2051,2023,2024,2049,2028,2071,2088
2054,2049,2021,2034,2052,2035,2069,2092
2052,2039,2014,2020,2046,2029,2062,2089
2049,2042,2016,2021,2058,2036,2060,2081
2046,2051,2025,2025,2051,2045,2060,2073
2047,2048,2026,2015,2022,2042,2040,2064
2043,2045,2021,1992,1970,2061,2018,2058
2034,2043,2025,1984,1923,2008,1999,2062
2042,2049,2037,1989,1899,1955,1991,2062
2053,2064,2057,1989,1884,1934,1990,2069
2057,2065,2071,2002,1928,1917,2004,2069
2058,2063,2066,2015,2011,1943,2038,2063
2055,2060,2066,2036,2086,2001,2049,2054
2057,2061,2064,2046,2125,2069,2061,2043
2057,2058,2058,2051,2124,2120,2080,2050
2059,2057,2064,2052,2110,2148,2063,2050
2059,2059,2063,2043,2078,2152,2065,2046
2053,2052,2060,2035,2061,2143,2046,2040
2048,2040,2056,2028,2041,2134,2044,2032
2043,2042,2051,2026,2030,2103,2037,2029
2043,2051,2051,2020,2025,2059,2051,2031
2041,2051,2047,2014,1997,2031,2035,2024
2039,2041,2044,2013,1995,2014,2059,2025
2039,2040,2045,2029,2044,2038,2067,2032
2039,2044,2049,2046,2093,2039,2067,2042
2046,2051,2057,2053,2090,2037,2067,2053
2053,2056,2060,2052,2072,2028,2085,2071
2052,2052,2054,2042,2052,2039,2064,2065
2060,2047,2050,2030,2026,2046,2061,2068
2058,2044,2045,2034,2022,2050,2053,2074
2056,2047,2047,2039,2058,2051,2059,2080
2053,2051,2043,2043,2056,2053,2044,2080
2053,2047,2038,2041,2064,2059,2051,2082
2052,2049,2043,2047,2060,2068,2044,2083
2056,2052,2039,2040,2053,2072,2053,2079
2050,2042,2039,2037,2044,2053,2035,2090
2049,2046,2041,2020,1993,2014,2031,2083
2050,2051,2040,2024,2008,2013,2031,2078
2052,2057,2046,2030,2018,2024,2047,2065
2052,2056,2056,2032,2006,2026,2056,2066
2052,2059,2061,2031,2000,2029,2067,2068
2047,2059,2062,2035,1998,2039,2054,2056
2041,2053,2059,2027,1996,2059,2035,2042
2051,2049,2056,2032,1996,2063,2040,2042
2057,2048,2062,2030,2036,2072,2045,2038
2054,2050,2059,2045,2074,2074,2031,2031
2058,2042,2060,2042,2069,2009,2004,2031
2048,2036,2047,2033,2064,1990,2000,2026
2046,2032,2044,2040,2086,2033,2014,2022
2042,2035,2047,2040,2072,2068,2018,2018
2043,2031,2043,2033,2049,2082,2025,2009
2037,2026,2034,2022,2028,2069,2029,2009
2036,2028,2034,2022,2025,2044,2024,2029
2045,2035,2037,2028,2029,2018,2049,2038
2056,2035,2045,2037,2058,2032,2070,2044
2061,2045,2050,2051,2093,2069,2069,2047
2062,2055,2059,2072,2112,2075,2049,2039
2059,2049,2060,2055,2066,2051,2040,2039
2053,2039,2047,2050,2030,2034,2029,2044
2056,2044,2050,2047,2025,2043,2041,2049
2062,2042,2059,2060,2038,2060,2054,2061
2066,2053,2068,2056,2045,2069,2086,2072
2062,2051,2074,2059,2047,2063,2044,2073
2063,2053,2072,2061,2051,2058,2067,2078
2066,2052,2068,2055,2059,2041,2049,2082
2061,2050,2066,2050,2049,2028,2052,2087
2053,2046,2062,2047,2060,2024,2049,2078
2040,2032,2054,2046,2053,2028,2041,2080
2040,2027,2045,2053,2056,2034,2034,2080
2049,2036,2043,2052,2055,2040,2021,2072
2044,2034,2039,2045,2046,2044,2038,2075
2044,2038,2037,2046,2050,2035,2065,2071
2050,2036,2038,2045,2046,2042,2058,2072
2052,2044,2044,2039,2027,2044,2056,2075
2054,2047,2046,2037,2007,2032,2075,2070
2059,2047,2045,2045,2036,2035,2079,2063
2062,2050,2036,2040,2017,2021,2066,2057
2061,2048,2033,2039,2022,2013,2070,2054
2065,2042,2035,2031,2003,1999,2074,2048
2059,2043,2024,2012,1945,2007,2060,2039
2058,2047,2025,2011,1947,2017,2054,2039
2051,2049,2029,2010,2014,2014,2039,2028
2053,2048,2035,2023,2088,2021,2020,2023
2048,2044,2041,2023,2102,2016,2005,2016
2050,2053,2052,2028,2102,2056,2017,2028
2059,2064,2062,2033,2101,2138,2054,2037
2066,2066,2064,2042,2100,2165,2049,2040
2069,2064,2061,2036,2069,2100,2031,2051
2074,2064,2057,2032,2030,1999,2037,2047
2060,2062,2054,2037,1971,1997,2042,2042
2059,2055,2047,2046,2017,2043,2064,2059
2063,2054,2055,2074,2102,2073,2062,2059
2066,2057,2053,2080,2138,2061,2076,2070
2054,2048,2055,2058,2097,2031,2043,2074
2051,2047,2051,2032,2018,1986,2016,2070
2050,2044,2046,2026,2009,1988,2015,2066
2047,2048,2048,2025,2019,2009,2021,2067
2045,2043,2053,2026,2050,2023,2022,2065
2045,2045,2050,2029,2038,2027,2036,2069
2037,2038,2047,2020,1941,2038,2040,2076
2048,2049,2053,2015,1902,2080,2044,2074
2054,2047,2059,2042,1974,2097,2069,2071
2047,2047,2048,2056,2056,2089,2057,2061
2052,2041,2043,2057,2087,2086,2055,2066
2054,2042,2043,2052,2088,2080,2052,2068
2062,2052,2045,2051,2086,2089,2064,2056
2055,2053,2046,2051,2082,2081,2050,2050
2055,2050,2050,2040,2073,2075,2061,2044
2053,2053,2045,2052,2072,2076,2063,2045
2047,2049,2045,2051,2049,2055,2052,2033
2047,2049,2040,2038,1997,2017,2025,2028
2046,2051,2045,2043,1977,2006,2032,2020
2050,2049,2036,2043,2012,2016,2026,2026
2056,2053,2034,2043,2019,2029,2031,2025
2050,2047,2028,2045,2022,2027,2007,2021
2046,2037,2019,2045,2026,2019,2011,2016
2046,2044,2021,2057,2028,2040,2043,2029
2055,2047,2025,2057,2043,2057,2054,2035
2054,2042,2019,2054,2045,2064,2031,2027
2054,2034,2016,2054,2025,2065,2032,2035
2046,2040,2016,2062,2036,2071,2059,2040
2054,2034,2021,2065,2027,2066,2064,2044
2047,2027,2012,2060,2015,2049,2034,2048
2052,2032,2015,2050,2015,2037,2033,2050
2042,2025,2020,2032,2002,2032,2052,2051
2033,2016,2023,2017,1989,2021,2047,2054
2032,2021,2030,2024,1995,2028,2059,2050
2028,2028,2042,2026,2005,2026,2050,2064
2035,2032,2051,2039,2036,2029,2042,2074
2036,2038,2061,2041,2038,2036,2058,2076
2037,2030,2060,2034,2033,2042,2056,2074
2034,2023,2061,2037,2042,2054,2040,2073
2038,2034,2066,2043,2050,2068,2046,2072
2042,2032,2056,2037,2042,2073,2031,2068
2036,2032,2053,2037,2039,2071,2035,2066
2040,2036,2055,2042,2029,2067,2057,2058
2045,2036,2060,2045,2021,2066,2046,2058
2055,2044,2070,2051,2030,2072,2047,2050
2054,2046,2078,2052,2033,2076,2064,2052
2055,2049,2077,2050,2030,2066,2041,2045
2050,2059,2080,2054,2035,2064,2037,2036
2054,2053,2072,2053,2032,2065,2056,2040
2050,2056,2070,2049,2037,2061,2053,2039
2054,2049,2052,2042,2045,2039,2058,2041
2052,2045,2042,2036,2035,2027,2047,2039
2063,2041,2037,2027,2025,2019,2046,2035
2051,2041,2037,2040,2035,2033,2050,2030
2054,2041,2033,2057,2048,2044,2044,2039
2057,2052,2036,2058,2041,2054,2059,2039
2051,2051,2035,2046,2024,2058,2049,2037
2058,2050,2038,2044,2037,2060,2069,2035
2059,2055,2046,2054,2067,2058,2060,2042
2057,2054,2049,2056,2071,2050,2047,2038
2059,2059,2054,2047,2005,2035,2045,2044
2045,2050,2051,2034,1968,2040,2038,2043
2047,2057,2050,2040,1943,2030,2025,2051
2045,2047,2056,2044,1969,2033,2043,2060
2050,2053,2054,2052,1985,2044,2058,2072
2052,2048,2054,2052,1995,2050,2045,2077
2048,2056,2053,2052,2010,2047,2045,2084
2054,2051,2053,2045,2013,2034,2044,2082
2055,2054,2062,2047,2069,2030,2022,2078
2043,2044,2057,2050,2083,2019,2023,2072
2044,2042,2054,2049,2074,2013,2018,2075
2047,2043,2051,2058,2100,2036,2035,2073
2046,2055,2054,2070,2136,2065,2035,2073
2048,2055,2056,2070,2132,2069,2033,2065
2049,2054,2055,2063,2096,2067,2031,2062
2050,2051,2047,2053,2072,2065,2034,2061
2052,2051,2049,2049,2050,2064,2045,2056
2056,2049,2046,2048,2022,2049,2056,2048
2048,2046,2044,2045,2025,2045,2048,2042
2049,2042,2040,2037,2013,2040,2048,2034
2058,2048,2039,2034,1991,2030,2049,2034
2054,2050,2042,2036,1984,2026,2048,2034
2049,2052,2034,2033,1965,2012,2044,2033
2046,2047,2031,2017,1928,2002,2029,2021
2044,2041,2033,2025,1953,2002,2042,2024
2042,2041,2039,2052,2035,2024,2042,2019
2040,2034,2056,2051,2043,2034,2012,2019
2046,2050,2063,2074,2082,2056,2041,2023
2057,2057,2075,2088,2106,2061,2046,2020
2057,2052,2066,2081,2105,2066,2048,2025
2049,2051,2060,2076,2098,2076,2039,2017
2046,2043,2054,2070,2085,2077,2027,2018
2044,2043,2044,2064,2070,2071,2037,2026
2042,2038,2042,2061,2059,2066,2058,2031
2039,2044,2041,2064,2056,2065,2070,2044
2045,2046,2042,2066,2067,2050,2082,2050
2043,2046,2043,2064,2081,2049,2071,2053
2045,2045,2040,2067,2076,2054,2061,2058
2046,2040,2034,2060,2063,2041,2055,2069
2037,2035,2033,2054,2063,2051,2056,2064
2043,2035,2036,2048,2059,2067,2046,2064
2037,2035,2035,2039,2052,2071,2032,2060
2035,2030,2025,2033,2048,2065,2057,2063
2039,2045,2026,2030,2053,2073,2065,2069
2043,2046,2032,2032,2053,2074,2068,2069
2039,2044,2020,2027,2053,2085,2061,2068
2042,2040,2015,2028,2048,2076,2073,2059
2041,2040,2016,2031,2049,2069,2063,2051
2040,2040,2016,2034,2042,2048,2058,2060
2044,2043,2019,2035,2040,2044,2063,2046
2047,2042,2023,2031,2041,2045,2048,2038
2046,2042,2022,2032,2054,2048,2062,2038
2042,2043,2025,2033,2053,2043,2031,2039
2043,2051,2030,2038,2050,2016,2010,2033
2051,2053,2036,2038,2041,1985,2023,2034
2052,2048,2043,2040,2060,1998,2039,2040
2047,2051,2046,2051,2061,2022,2059,2038
2053,2052,2045,2045,2046,2032,2052,2029
2046,2041,2040,2044,2044,2033,2045,2025
2039,2039,2030,2040,2044,2041,2043,2028
2044,2043,2042,2041,2051,2055,2045,2028
2041,2040,2043,2045,2043,2068,2042,2026
2044,2045,2038,2039,2004,2072,2053,2019
2034,2039,2034,2027,1958,2072,2036,2018
2035,2031,2027,2026,1951,2062,2041,2023
2035,2030,2026,2020,1972,2046,2035,2022
2037,2026,2028,2027,2018,2024,2026,2037
2039,2038,2028,2039,2042,2017,2047,2056
2045,2048,2044,2052,2068,2036,2049,2067
2049,2057,2056,2071,2093,2058,2056,2072
2060,2058,2059,2068,2069,2060,2062,2073
2052,2056,2055,2064,2061,2054,2052,2074
2052,2048,2062,2061,2095,2063,2045,2078
2045,2050,2061,2061,2106,2054,2059,2081
2052,2047,2064,2062,2094,2040,2056,2076
2042,2040,2057,2063,2095,2041,2044,2085
2042,2045,2058,2054,2084,2046,2067,2084
2052,2058,2057,2036,2047,2035,2063,2085
2058,2060,2059,2038,2030,2032,2061,2080
2060,2064,2060,2048,2067,2022,2039,2080
2061,2059,2060,2050,2084,2027,2040,2068
2056,2057,2053,2044,2075,2017,2034,2058
2052,2053,2055,2037,2052,2009,2026,2047
2057,2053,2047,2017,1985,1996,2021,2035
2048,2052,2039,2017,1954,1994,2023,2027
2047,2038,2040,2018,1973,2023,2042,2034
2041,2037,2041,2025,1989,2041,2037,2029
2042,2034,2044,2033,2006,2042,2031,2029
2039,2043,2045,2039,2028,2037,2034,2024
2037,2041,2047,2049,2050,2046,2048,2026
2045,2040,2045,2057,2060,2060,2046,2023
2040,2031,2029,2053,2062,2059,2055,2020
2033,2027,2027,2049,2077,2055,2040,2021
2045,2037,2044,2057,2082,2049,2046,2025
2052,2048,2044,2054,2067,2029,2050,2031
2051,2057,2052,2059,2075,2035,2049,2035
