CH1,CH2,CH3,CH4,CH5,CH6,CH7,CH8
2046,2061,2082,2026,1946,2044,2051,2038
2049,2060,2079,2035,2002,2052,2044,2045
2046,2052,2065,2044,2037,2055,2049,2061
2046,2044,2053,2042,2043,2057,2062,2068
2038,2030,2043,2041,2049,2057,2046,2073
2030,2025,2036,2041,2045,2054,2044,2080
2033,2024,2039,2039,2020,2046,2050,2080
2027,2019,2027,2031,2005,2034,2026,2078
2024,2017,2026,2027,2002,2031,2030,2081
2029,2019,2034,2037,2010,2043,2030,2078
2029,2024,2037,2036,2013,2043,2023,2071
2036,2029,2044,2037,2016,2037,2035,2068
2035,2033,2042,2033,2004,2035,2028,2059
2040,2034,2046,2034,2003,2030,2032,2053
2032,2036,2046,2035,2000,2032,2039,2042
2032,2029,2044,2031,2014,2036,2038,2036
2036,2033,2042,2037,2029,2045,2040,2029
2039,2032,2040,2037,2049,2051,2038,2028
2040,2037,2044,2048,2061,2058,2046,2022
2042,2042,2046,2049,2060,2052,2032,2024
2046,2044,2057,2052,2064,2043,2041,2017
2040,2056,2057,2055,2071,2049,2043,2011
2039,2056,2049,2060,2090,2062,2057,2006
2039,2048,2031,2053,2088,2060,2049,1992
2026,2030,2020,2053,2071,2053,2045,1994
2028,2031,2031,2057,2067,2061,2049,2005
2041,2048,2038,2062,2061,2056,2051,2006
2040,2043,2039,2059,2064,2055,2030,2009
2037,2041,2048,2063,2058,2052,2037,2014
2042,2048,2056,2064,2059,2052,2058,2023
2046,2054,2076,2067,2064,2054,2072,2021
2038,2044,2070,2054,2060,2055,2073,2031
2033,2041,2060,2038,2048,2060,2080,2037
2036,2036,2057,2031,2060,2058,2052,2050
2034,2037,2054,2030,2048,2057,2024,2059
2032,2032,2049,2035,2058,2051,2043,2065
2033,2037,2060,2039,2051,2054,2037,2066
2039,2044,2057,2046,2052,2052,2041,2082
2041,2049,2050,2060,2052,2050,2049,2079
2047,2046,2052,2061,2050,2041,2042,2084
2037,2032,2047,2059,2052,2041,2029,2086
2041,2044,2051,2063,2056,2048,2025,2082
2041,2038,2055,2065,2055,2052,2052,2078
2040,2043,2050,2064,2058,2058,2044,2072
2036,2045,2044,2067,2066,2055,2059,2065
2042,2041,2028,2064,2059,2056,2046,2057
2042,2042,2033,2072,2053,2055,2040,2046
2042,2041,2045,2077,2056,2058,2039,2039
2047,2044,2041,2076,2056,2051,2051,2027
2040,2033,2038,2069,2049,2046,2036,2020
2038,2022,2040,2062,2045,2038,2029,2016
2036,2021,2037,2049,2041,2036,2044,2008
2031,2024,2031,2035,2038,2035,2041,2004
2028,2030,2033,2034,2046,2037,2035,2002
2033,2035,2036,2032,2053,2042,2031,2006
2030,2037,2042,2036,2047,2041,2035,2005
2030,2023,2041,2034,2039,2042,2044,2000
2032,2025,2042,2035,2033,2048,2042,2015
2040,2028,2043,2025,2030,2046,2059,2016
2043,2039,2040,2016,2023,2043,2049,2016
2040,2040,2045,2008,2003,2046,2050,2023
2037,2039,2051,2014,2003,2048,2058,2027
2038,2040,2056,2017,2012,2050,2068,2039
2041,2043,2060,2021,2026,2053,2065,2045
2042,2051,2069,2024,2031,2058,2042,2050
2040,2057,2066,2028,2030,2050,2047,2059
2038,2055,2062,2032,2046,2056,2055,2066
2041,2054,2061,2038,2072,2053,2058,2072
2034,2046,2057,2030,2096,2053,2057,2073
2038,2053,2067,2044,2104,2051,2064,2090
2042,2059,2085,2054,2088,2054,2064,2095
2045,2063,2090,2044,2069,2041,2055,2088
2033,2050,2080,2033,2039,2028,2058,2083
2036,2044,2079,2041,2030,2031,2047,2091
2037,2053,2071,2043,2029,2039,2060,2083
2038,2044,2060,2049,2041,2046,2061,2080
2041,2041,2045,2047,2052,2058,2046,2081
2034,2044,2052,2069,2049,2062,2059,2075
2036,2036,2052,2066,2051,2059,2068,2062
2036,2033,2044,2067,2036,2061,2062,2054
2039,2033,2042,2063,2035,2064,2056,2048
2042,2034,2056,2076,2045,2066,2060,2042
2045,2037,2062,2077,2052,2072,2060,2034
2040,2043,2064,2086,2043,2064,2052,2027
2039,2035,2068,2092,2030,2059,2038,2026
2032,2038,2070,2097,2030,2060,2035,2020
2039,2035,2073,2091,2029,2050,2034,2016
2042,2041,2076,2081,2023,2021,2040,2004
2032,2030,2056,2052,2023,2009,2035,1996
2022,2024,2074,2053,2051,2022,2052,2010
2038,2046,2108,2068,2062,2036,2062,2015
2039,2054,2123,2073,2057,2042,2062,2021
2044,2056,2113,2072,2046,2043,2053,2023
2046,2062,2106,2076,2059,2046,2047,2023
2039,2054,2086,2076,2055,2049,2054,2027
2045,2051,2052,2058,2055,2045,2045,2028
2038,2045,2023,2034,2045,2041,2045,2031
2041,2044,2019,2007,2042,2041,2029,2044
2043,2052,2025,2001,2033,2041,2032,2056
2037,2059,2025,1990,2031,2049,2044,2064
2047,2059,2029,1989,2049,2056,2052,2077
2051,2068,2040,2015,2089,2056,2062,2085
2045,2067,2045,2036,2101,2059,2062,2082
2049,2048,2035,2030,2091,2060,2041,2079
2039,2032,2019,2026,2074,2056,2047,2092
2039,2037,2012,2012,1972,2035,2058,2086
2038,2031,2026,2020,1934,2023,2035,2081
2037,2042,2043,2038,1962,2028,2041,2077
2047,2047,2064,2056,1993,2038,2053,2068
2042,2055,2073,2065,2013,2043,2033,2057
2044,2048,2072,2070,2025,2034,2039,2052
2042,2051,2073,2064,2047,2043,2037,2039
2044,2053,2074,2062,2051,2042,2036,2036
2037,2054,2066,2053,2022,2044,2050,2030
2042,2046,2061,2057,2011,2048,2046,2032
2036,2045,2067,2053,2032,2045,2043,2020
2039,2053,2083,2050,2048,2047,2043,2020
2051,2068,2096,2044,2060,2051,2032,2018
2056,2070,2098,2032,2037,2048,2047,2023
2049,2061,2087,2028,2021,2050,2044,2010
2042,2041,2051,2013,2042,2075,2040,2008
2037,2029,2046,2020,2074,2092,2042,2003
2044,2047,2042,2011,2062,2076,2011,2005
2037,2044,2047,2002,2053,2075,2034,2001
2037,2044,2063,2017,2073,2080,2040,2011
2043,2048,2076,2035,2079,2044,2047,2022
2046,2046,2077,2056,2099,2026,2066,2034
2047,2050,2074,2066,2112,2029,2066,2037
2037,2045,2067,2064,2091,2038,2048,2049
2039,2043,2062,2062,2066,2056,2066,2059
2040,2043,2056,2052,2007,2055,2070,2061
2040,2046,2048,2042,1958,2038,2053,2071
2042,2041,2057,2035,1990,2042,2033,2077
2036,2037,2056,2049,2020,2048,2047,2075
2036,2031,2050,2053,2048,2056,2053,2079
2031,2028,2040,2053,2066,2054,2033,2076
2019,2008,2036,2053,2100,2062,2023,2076
2019,2017,2044,2059,2107,2065,2046,2081
2026,2027,2047,2056,2107,2059,2057,2089
2033,2030,2039,2051,2079,2052,2054,2082
2037,2038,2039,2045,2035,2056,2065,2078
2050,2054,2054,2064,2031,2062,2060,2076
2057,2064,2054,2073,2047,2059,2062,2064
2057,2055,2052,2071,2045,2058,2051,2059
2054,2052,2044,2066,2005,2060,2043,2044
2056,2049,2051,2057,1991,2057,2056,2036
2051,2052,2052,2058,2005,2060,2041,2038
2052,2052,2059,2062,2025,2056,2051,2031
2051,2049,2061,2060,2027,2053,2056,2026
2049,2042,2051,2060,2043,2049,2048,2021
2045,2045,2045,2057,2066,2050,2056,2021
2047,2046,2048,2055,2089,2058,2061,2012
2034,2032,2037,2045,2099,2053,2046,2005
2031,2027,2029,2043,2103,2057,2057,2015
2043,2042,2037,2041,2076,2058,2017,2006
2046,2044,2038,2038,2064,2059,2028,2014
2057,2062,2053,2033,2050,2051,2036,2018
2058,2063,2051,2039,2032,2041,2025,2022
2049,2059,2064,2027,2024,2040,2030,2024
2050,2047,2062,2020,2017,2037,2036,2031
2038,2039,2060,2020,2026,2039,2048,2036
2043,2041,2068,2046,2044,2053,2057,2051
2045,2055,2082,2051,2053,2057,2064,2070
2050,2061,2081,2056,2045,2054,2058,2078
2049,2058,2074,2050,2025,2043,2056,2085
2050,2061,2073,2051,2023,2045,2061,2084
2049,2060,2071,2048,2036,2049,2044,2085
2050,2062,2062,2050,2049,2046,2057,2089
2039,2046,2053,2038,2036,2039,2056,2082
2038,2037,2053,2031,2026,2026,2020,2087
2040,2046,2053,2027,1997,2018,2040,2084
2034,2035,2048,2021,1969,2001,2044,2082
2036,2041,2049,2021,1976,1995,2039,2068
2040,2034,2049,2030,2005,2006,2038,2057
2038,2036,2054,2043,2032,2034,2040,2046
2046,2050,2064,2066,2056,2060,2051,2046
2045,2049,2059,2077,2075,2066,2059,2033
2046,2044,2052,2072,2077,2079,2058,2031
2045,2046,2053,2077,2090,2087,2059,2026
2045,2042,2055,2071,2078,2081,2043,2018
2039,2042,2054,2065,2068,2067,2051,2014
2040,2043,2055,2062,2058,2056,2052,2007
2038,2045,2062,2060,2046,2044,2057,2009
2046,2046,2056,2054,2021,2036,2045,2003
2034,2028,2044,2038,2007,2019,2027,1999
2032,2027,2037,2039,2004,2023,2037,2000
2041,2040,2047,2049,2027,2033,2051,2004
2036,2047,2045,2052,2025,2030,2042,2015
2036,2044,2043,2053,2038,2043,2054,2014
2039,2039,2049,2057,2050,2051,2060,2018
2042,2047,2050,2064,2056,2057,2071,2022
2045,2049,2047,2065,2057,2054,2055,2026
2049,2045,2035,2065,2053,2052,2060,2031
2046,2040,2028,2064,2047,2053,2055,2041
2044,2040,2033,2064,2057,2056,2048,2041
2039,2042,2036,2072,2052,2053,2039,2055
2044,2036,2038,2078,2056,2059,2037,2064
2045,2042,2050,2074,2050,2056,2046,2073
2042,2036,2052,2057,2044,2053,2049,2077
2039,2036,2050,2046,2028,2041,2034,2081
2029,2029,2035,2032,2008,2037,2018,2078
2026,2017,2024,2018,2001,2042,2017,2074
2033,2030,2037,2028,2006,2045,2022,2078
2037,2033,2031,2017,2008,2040,2010,2061
2034,2031,2041,2020,2016,2037,2017,2049
2043,2040,2044,2041,2030,2025,2016,2062
2054,2047,2041,2052,2034,2004,2018,2062
2050,2054,2046,2051,2018,2007,2039,2043
2049,2053,2038,2041,2015,2024,2032,2039
2042,2059,2040,2051,2039,2043,2038,2033
2055,2059,2035,2050,2069,2056,2041,2035
2053,2063,2027,2049,2094,2067,2045,2031
2062,2063,2020,2041,2093,2077,2059,2036
2066,2062,2020,2042,2077,2068,2062,2027
2054,2052,2023,2044,2077,2064,2052,2023
2058,2060,2022,2051,2074,2064,2053,2009
2049,2049,2036,2063,2058,2057,2040,2003
2042,2041,2047,2076,2055,2053,2027,2005
2037,2047,2065,2079,2061,2058,2044,2013
2046,2052,2094,2099,2065,2051,2038,2020
2048,2060,2115,2103,2060,2050,2040,2010
2043,2052,2099,2100,2053,2046,2015,2007
2038,2050,2073,2095,2057,2049,2031,2017
2043,2042,2072,2092,2055,2052,2056,2028
2044,2043,2071,2082,2046,2051,2052,2035
2042,2040,2069,2079,2044,2050,2049,2043
2059,2053,2073,2078,2039,2044,2049,2052
2055,2062,2085,2077,2029,2043,2030,2056
2052,2054,2071,2064,2030,2046,2057,2063
2047,2048,2044,2030,2028,2032,2048,2074
2042,2037,2034,2008,2017,2035,2042,2076
2043,2039,2038,1998,2031,2044,2043,2078
2045,2039,2041,1998,2049,2042,2022,2074
2040,2032,2032,1988,2067,2044,2025,2083
2041,2046,2036,1991,2056,2055,2033,2083
2049,2051,2046,2013,2056,2059,2028,2072
2047,2048,2060,2035,2052,2057,2032,2070
2042,2049,2070,2043,2047,2048,2031,2061
2041,2056,2076,2059,2038,2049,2032,2059
2046,2054,2085,2059,2041,2054,2053,2038
2052,2055,2075,2061,2041,2054,2040,2032
2049,2055,2060,2059,2040,2054,2042,2028
2045,2050,2042,2064,2028,2053,2044,2016
2045,2046,2027,2063,2022,2053,2041,2014
2045,2041,2019,2059,2008,2048,2042,2013
2043,2044,2015,2062,2012,2056,2019,2014
2047,2041,2008,2054,2012,2052,2042,2013
2051,2045,1997,2035,2013,2047,2036,2010
2052,2050,2002,2028,2010,2042,2038,2010
2047,2036,2004,2017,2017,2036,2028,2004
2050,2039,2005,2014,2038,2042,2042,2013
2053,2049,2015,2012,2048,2051,2045,2012
2052,2042,2028,2028,2047,2050,2017,2006
2049,2039,2041,2031,2062,2058,2039,2011
2049,2040,2041,2042,2071,2069,2066,2025
2047,2033,2032,2047,2090,2060,2057,2021
2041,2033,2037,2045,2081,2053,2047,2032
2040,2035,2043,2049,2056,2048,2046,2038
2050,2045,2057,2056,2047,2050,2052,2052
2052,2055,2063,2060,2052,2049,2048,2053
2057,2059,2063,2053,2054,2054,2064,2063
2051,2054,2061,2051,2060,2058,2064,2076
2052,2056,2058,2056,2063,2054,2063,2078
2047,2056,2055,2051,2061,2054,2053,2089
2052,2050,2049,2049,2046,2049,2042,2086
2041,2039,2039,2048,2022,2044,2040,2081
2042,2035,2034,2050,2004,2043,2031,2087
2045,2043,2045,2060,1985,2047,2034,2083
2046,2048,2054,2065,1998,2042,2041,2085
2053,2051,2061,2064,2013,2041,2055,2078
2046,2048,2060,2064,2005,2040,2039,2071
2045,2047,2068,2065,2002,2044,2043,2058
2044,2052,2078,2066,1987,2048,2060,2042
2055,2057,2070,2064,1997,2048,2056,2042
2054,2061,2065,2054,2020,2045,2045,2042
2048,2047,2046,2049,2044,2033,2053,2028
2044,2044,2025,2040,2047,2029,2044,2023
2041,2039,2018,2040,2097,2050,2036,2017
2042,2035,2014,2037,2110,2055,2029,2015
2043,2035,2014,2032,2092,2059,2038,2012
2040,2029,2012,2026,2071,2061,2050,2008
2039,2024,2004,2030,2088,2047,2041,1999
2039,2020,2002,2035,2100,2054,2060,2006
2042,2032,2022,2056,2103,2069,2072,2010
2054,2044,2028,2063,2093,2072,2041,2018
2052,2040,2034,2065,2078,2062,2044,2024
2052,2040,2029,2057,2077,2057,2034,2019
2052,2035,2019,2048,2060,2054,2020,2024
2046,2036,2026,2046,2042,2039,2041,2022
2041,2034,2030,2030,2005,2031,2041,2032
2045,2035,2036,2025,1951,2021,2038,2038
2050,2046,2058,2031,1975,2034,2026,2051
2052,2065,2081,2048,2060,2033,2022,2067
2052,2070,2090,2068,2103,2047,2069,2075
2050,2068,2081,2077,2144,2046,2053,2077
2048,2058,2068,2072,2145,2043,2048,2077
2040,2046,2062,2067,2123,2037,2033,2081
2036,2039,2061,2064,2096,2034,2037,2074
2029,2037,2065,2064,2078,2038,2042,2082
2044,2054,2071,2070,2000,2036,2049,2073
2048,2059,2075,2052,1935,2027,2050,2073
2051,2055,2072,2047,1959,2033,2042,2062
2053,2054,2065,2037,1993,2035,2039,2056
2045,2054,2058,2043,2020,2044,2052,2050
2050,2050,2058,2049,2046,2056,2052,2049
2048,2047,2054,2044,2050,2050,2052,2036
2041,2031,2045,2030,2029,2051,2050,2029
2041,2027,2044,2027,2027,2045,2049,2020
2035,2031,2040,2028,2018,2041,2033,2017
2043,2035,2038,2030,2024,2040,2052,2013
2041,2039,2042,2028,2028,2043,2048,2013
2045,2045,2044,2038,2044,2046,2060,2005
2049,2042,2045,2042,2058,2046,2033,2000
2037,2032,2039,2041,2067,2037,2023,1995
2035,2029,2036,2038,2077,2049,2036,2015
2044,2040,2050,2057,2085,2056,2039,2011
2047,2042,2052,2064,2083,2065,2046,2018
2046,2043,2053,2067,2076,2076,2062,2022
2057,2050,2054,2062,2054,2078,2068,2018
2054,2045,2053,2066,2036,2081,2047,2022
2049,2039,2055,2071,2029,2069,2040,2024
2048,2038,2052,2068,2022,2047,2035,2030
2047,2042,2041,2064,2009,2033,2058,2045
2052,2043,2040,2073,2034,2033,2068,2058
2053,2044,2036,2075,2044,2039,2065,2072
2052,2035,2027,2064,2056,2043,2041,2084
2043,2034,2020,2069,2052,2038,2059,2086
2044,2033,2028,2054,2046,2040,2058,2090
2049,2038,2033,2047,2040,2035,2039,2082
2039,2029,2030,2037,2038,2038,2054,2083
2041,2033,2029,2033,2058,2045,2048,2092
2047,2040,2020,2039,2068,2041,2036,2084
2040,2037,2018,2039,2071,2037,2037,2074
2041,2041,2030,2048,2060,2023,2029,2063
2032,2050,2052,2064,2053,2016,2040,2064
2037,2055,2072,2077,2053,2026,2042,2054
2040,2056,2074,2079,2049,2040,2028,2045
2044,2060,2070,2081,2034,2041,2033,2041
2039,2054,2059,2074,2035,2045,2032,2034
2042,2058,2057,2083,2036,2052,2032,2029
2041,2045,2057,2082,2042,2051,2040,2023
2045,2040,2055,2079,2053,2051,2038,2015
2039,2032,2046,2075,2050,2050,2040,2006
2034,2035,2036,2060,2064,2051,2040,2004
2041,2030,2028,2050,2054,2042,2022,2000
2033,2018,2028,2050,2057,2048,2049,2005
2037,2031,2040,2056,2069,2049,2060,2008
2044,2033,2030,2050,2073,2055,2053,2012
2047,2036,2024,2043,2066,2049,2050,2013
2040,2034,2023,2039,2060,2048,2049,2014
2037,2036,2039,2035,2065,2046,2058,2018
2038,2035,2052,2025,2065,2047,2062,2032
2039,2033,2039,2019,2058,2054,2054,2041
2043,2036,2034,2018,2059,2054,2069,2052
2043,2051,2064,2029,2070,2058,2065,2058
2048,2060,2079,2032,2065,2053,2053,2061
2050,2051,2060,2033,2064,2053,2064,2075
2043,2042,2045,2038,2059,2047,2055,2082
2043,2043,2046,2041,2064,2046,2062,2086
2038,2035,2042,2044,2056,2053,2055,2088
2032,2025,2038,2040,2046,2045,2051,2081
2025,2022,2039,2038,2051,2047,2051,2081
2032,2033,2053,2050,2063,2057,2050,2083
2032,2039,2058,2055,2057,2055,2054,2083
2036,2044,2052,2057,2057,2051,2039,2074
2042,2044,2036,2059,2051,2045,2038,2072
2043,2048,2027,2061,2055,2051,2056,2066
2047,2049,2034,2060,2052,2065,2044,2051
2054,2054,2039,2059,2053,2067,2044,2051
2054,2051,2025,2054,2045,2058,2037,2039
2050,2050,2015,2054,2044,2057,2037,2030
2052,2045,2013,2047,2038,2043,2036,2028
2048,2046,2007,2045,2032,2004,2043,2023
2044,2044,2006,2037,2022,2005,2040,2015
2045,2042,2002,2039,2031,2030,2036,2010
2044,2045,2018,2040,2034,2037,2041,2008
2050,2041,2012,2032,2016,2022,2026,1995
2035,2027,2019,2035,2004,2009,1996,1995
2033,2040,2027,2052,2019,2029,2049,2002
2037,2044,2049,2068,2040,2045,2038,2009
2044,2049,2064,2089,2069,2051,2063,2017
2049,2053,2083,2095,2088,2050,2061,2019
2040,2056,2080,2100,2091,2048,2061,2026
2041,2054,2071,2097,2090,2045,2066,2034
2043,2053,2067,2084,2082,2049,2064,2043
2050,2054,2071,2077,2075,2052,2062,2049
2050,2058,2062,2050,2060,2045,2060,2051
2044,2059,2062,2034,2041,2034,2048,2052
2041,2057,2067,2033,2042,2035,2031,2060
2038,2059,2068,2020,2038,2038,2044,2070
2040,2056,2057,2017,2044,2035,2039,2076
2037,2053,2056,2022,2047,2041,2054,2089
2035,2048,2046,2017,2044,2040,2045,2087
2035,2040,2047,2010,2045,2038,2042,2089
2045,2047,2042,2013,2035,2049,2052,2088
2048,2057,2041,2024,2027,2056,2049,2082
2042,2052,2046,2032,2014,2053,2038,2078
2049,2053,2060,2046,2011,2056,2029,2069
2045,2048,2060,2048,2035,2045,2014,2056
2040,2044,2053,2045,2056,2023,2043,2052
2046,2046,2064,2074,2088,2029,2058,2047
2047,2054,2071,2085,2092,2038,2054,2052
2047,2050,2065,2069,2081,2030,2024,2041
2045,2050,2062,2069,2069,2033,2049,2037
2048,2054,2066,2065,2064,2050,2050,2033
2048,2050,2065,2045,2043,2053,2043,2020
2044,2041,2035,2025,2035,2053,2051,2015
2039,2038,2012,2018,2041,2054,2046,2013
2038,2024,1983,2013,2046,2039,2041,2004
2036,2012,1976,2014,2033,2033,2043,2003
2042,2020,1982,2030,2032,2038,2074,2008
2035,2024,1984,2024,2021,2035,2040,2013
2032,2023,1980,2011,2006,2035,2023,2014
2037,2032,1994,2020,2000,2036,2037,2023
2045,2040,2010,2028,1998,2039,2035,2032
2049,2047,2017,2029,2020,2055,2058,2036
2044,2048,2020,2028,2033,2054,2063,2042
2051,2059,2028,2034,2033,2045,2055,2048
2048,2058,2035,2037,2013,2044,2063,2050
2047,2051,2040,2030,2010,2037,2047,2050
2042,2045,2051,2022,2024,2037,2038,2064
2037,2053,2068,2027,2027,2027,2049,2068
2032,2055,2088,2031,2044,2030,2049,2078
2037,2064,2106,2045,2069,2037,2048,2091
2042,2062,2096,2044,2073,2034,2044,2089
2038,2065,2080,2039,2069,2034,2040,2090
2051,2070,2081,2040,2066,2047,2034,2085
2050,2071,2078,2043,2054,2052,2039,2086
2052,2069,2078,2038,2060,2046,2051,2089
2048,2060,2064,2033,2057,2040,2050,2076
2043,2052,2051,2038,2065,2032,2048,2064
2039,2043,2046,2039,2056,2030,2043,2052
2041,2052,2053,2041,2046,2030,2037,2049
2044,2057,2054,2046,2047,2034,2058,2040
2047,2057,2048,2044,2065,2023,2026,2028
2039,2043,2037,2044,2079,2028,2019,2016
2032,2037,2035,2045,2103,2042,2034,2014
2038,2041,2045,2046,2099,2041,2037,2006
2045,2046,2042,2047,2057,2041,2047,2007
2048,2044,2041,2033,2036,2051,2053,2004
2042,2037,2034,2030,2017,2049,2028,2004
2033,2033,2036,2033,2028,2038,2055,1995
2050,2051,2047,2034,2053,2032,2038,2017
2058,2051,2058,2039,2022,2020,2048,2011
2051,2046,2064,2040,2009,2025,2042,2015
2047,2044,2058,2036,2008,2026,2016,2014
2044,2039,2062,2033,2016,2032,2036,2020
2046,2041,2066,2042,2023,2036,2032,2036
2048,2048,2063,2052,2072,2056,2059,2044
2056,2052,2069,2075,2132,2082,2065,2052
2057,2050,2073,2090,2146,2098,2079,2062
2053,2057,2083,2091,2128,2089,2068,2075
2055,2051,2074,2078,2107,2074,2064,2075
2052,2041,2058,2068,2088,2060,2053,2078
2047,2035,2045,2062,2076,2051,2050,2084
2047,2031,2034,2059,2065,2046,2043,2083
2037,2022,2015,2058,2057,2040,2041,2081
2028,2018,2012,2062,2049,2041,2040,2085
2044,2029,2020,2058,2049,2045,2043,2088
2047,2027,2026,2055,2032,2036,2022,2083
2042,2027,2028,2049,2040,2042,2054,2077
2044,2030,2028,2044,2060,2050,2048,2069
2048,2029,2015,2034,2087,2047,2046,2064
2046,2021,2014,2030,2100,2046,2012,2048
2039,2030,2033,2045,2097,2047,2015,2045
2041,2041,2042,2052,2116,2047,2050,2038
2042,2045,2043,2063,2120,2050,2056,2032
2043,2051,2055,2074,2114,2054,2056,2029
2040,2050,2045,2066,2097,2054,2042,2017
2043,2043,2042,2061,2074,2046,2070,2013
2043,2043,2038,2042,2026,2042,2069,2008
2040,2034,2026,2008,1933,2026,2046,2002
2033,2018,2008,1989,1936,2012,2047,2002
2032,2022,2004,1987,1978,2028,2050,2008
2050,2041,2027,2001,2013,2043,2067,2016
2054,2048,2027,2010,2032,2052,2061,2021
2056,2046,2022,2018,2043,2046,2060,2017
2053,2039,2017,2026,2046,2050,2069,2018
2051,2032,2015,2025,2047,2049,2067,2022
2038,2032,2020,2031,2058,2056,2072,2020
2043,2046,2027,2037,2060,2058,2083,2036
2053,2051,2033,2040,2064,2059,2074,2044
2058,2056,2036,2040,2064,2054,2074,2058
2050,2052,2030,2040,2062,2053,2069,2065
2049,2048,2032,2032,2060,2044,2053,2068
2045,2053,2041,2034,2063,2046,2060,2068
2048,2054,2059,2038,2057,2046,2063,2072
2045,2051,2065,2036,2052,2042,2048,2071
2036,2034,2057,2025,2036,2036,2040,2070
2031,2029,2057,2024,2039,2037,2054,2078
2051,2057,2065,2039,2046,2047,2050,2080
2057,2072,2071,2055,2056,2042,2046,2081
2063,2076,2075,2057,2044,2037,2051,2070
2056,2065,2071,2058,2010,2038,2052,2063
2054,2070,2073,2063,1996,2040,2046,2052
2047,2070,2079,2063,1994,2042,2053,2039
2055,2058,2078,2062,1997,2043,2054,2035
2053,2058,2077,2056,1995,2045,2043,2027
2050,2059,2073,2046,2002,2043,2045,2017
2050,2057,2076,2042,2008,2040,2037,2008
2043,2056,2067,2034,2000,2036,2036,2006
2044,2051,2067,2033,2009,2042,2033,2005
2044,2053,2065,2031,2023,2045,2024,2002
2042,2045,2064,2039,2056,2049,2038,1998
2041,2024,2055,2046,2077,2047,2049,2004
2043,2024,2061,2051,2092,2050,2069,2010
2051,2037,2077,2066,2075,2051,2037,2002
2061,2049,2072,2061,2065,2052,2038,2017
2056,2052,2068,2060,2066,2058,2038,2022
2052,2048,2062,2053,2065,2059,2046,2021
2055,2046,2055,2046,2063,2053,2050,2032
2057,2054,2062,2046,2063,2055,2058,2035
2060,2053,2057,2039,2060,2059,2045,2037
2059,2054,2040,2036,2057,2055,2058,2049
2053,2042,2020,2041,2061,2056,2056,2052
2047,2036,2010,2056,2064,2060,2052,2064
2055,2032,2016,2068,2082,2063,2050,2070
2057,2039,2030,2075,2099,2064,2054,2075
2053,2041,2024,2078,2099,2064,2038,2080
2050,2030,2026,2068,2087,2054,2045,2066
2040,2017,2016,2053,2073,2045,2028,2062
2042,2021,2023,2057,2069,2048,2031,2070
2047,2034,2035,2061,2065,2046,2032,2070
2039,2023,2028,2054,2046,2042,2024,2058
2037,2026,2028,2041,2034,2027,2020,2056
2033,2030,2037,2041,2022,2031,2038,2052
2040,2036,2065,2043,2031,2037,2049,2047
2045,2048,2084,2045,2024,2044,2072,2046
2048,2052,2090,2035,2025,2044,2064,2041
2047,2055,2085,2041,2040,2053,2068,2032
2055,2065,2091,2055,2054,2061,2052,2036
2054,2069,2094,2058,2064,2060,2046,2027
2057,2062,2087,2059,2052,2053,2072,2018
2055,2057,2072,2059,2053,2055,2060,2014
2049,2048,2057,2056,2056,2047,2048,2014
2044,2044,2044,2050,2056,2049,2038,2006
2032,2031,2024,2046,2052,2047,2042,2002
2043,2017,2014,2053,2057,2052,2051,2002
2046,2026,2011,2036,2060,2054,2062,2004
2044,2022,2001,2023,2039,2064,2046,2011
2042,2017,2003,2010,2016,2066,2056,2004
2043,2026,1997,1998,2022,2068,2049,2014
2042,2026,1996,1995,2029,2063,2052,2017
2046,2031,2000,2003,2019,2049,2055,2028
2045,2040,2024,2018,2040,2025,2056,2044
2056,2050,2040,2041,2070,2017,2061,2057
2054,2051,2054,2060,2088,2033,2069,2064
2058,2059,2055,2058,2088,2051,2063,2066
2058,2059,2062,2056,2083,2053,2072,2077
2054,2059,2077,2054,2074,2050,2067,2082
2058,2065,2109,2053,2068,2048,2054,2082
2056,2066,2108,2046,2062,2043,2058,2084
2040,2050,2089,2023,2054,2043,2064,2085
2044,2044,2074,2024,2055,2044,2065,2094
2051,2050,2079,2038,2054,2045,2057,2083
2046,2050,2068,2039,2048,2041,2061,2080
2045,2049,2062,2040,2045,2042,2055,2071
2042,2043,2056,2046,2044,2037,2059,2058
2045,2044,2053,2036,2036,2036,2051,2050
2045,2050,2055,2040,2038,2036,2041,2042
2046,2042,2053,2042,2052,2043,2052,2041
2049,2041,2055,2054,2053,2050,2049,2036
2056,2043,2057,2062,2057,2056,2047,2033
2054,2045,2056,2065,2059,2054,2055,2031
2048,2041,2055,2063,2056,2050,2054,2025
2049,2039,2057,2065,2052,2045,2053,2020
2052,2052,2078,2081,2064,2061,2047,2014
2060,2070,2099,2094,2072,2057,2045,2010
2052,2053,2085,2090,2057,2050,2056,2011
2051,2050,2069,2081,2057,2056,2061,2016
2051,2055,2076,2091,2066,2060,2063,2020
2051,2060,2065,2086,2065,2053,2063,2019
2052,2054,2067,2085,2064,2059,2065,2022
2052,2056,2069,2085,2054,2059,2057,2019
2052,2056,2062,2060,2051,2060,2058,2032
2050,2053,2060,2049,2051,2050,2051,2034
2053,2052,2058,2040,2058,2052,2065,2039
2047,2053,2052,2038,2053,2055,2077,2052
2048,2046,2038,2026,2050,2054,2070,2060
2050,2047,2031,2028,2056,2056,2083,2069
2045,2047,2028,2031,2056,2049,2068,2081
2046,2047,2032,2038,2059,2053,2069,2085
2041,2040,2022,2041,2066,2050,2065,2087
2040,2041,2025,2042,2056,2026,2043,2078
2032,2021,2011,2026,2049,2012,2039,2080
2028,2022,2012,2028,2045,2029,2045,2088
2033,2037,2031,2041,2049,2035,2053,2077
2033,2035,2037,2044,2038,2039,2048,2080
2036,2035,2023,2043,2042,2035,2047,2072
2040,2040,2023,2042,2039,2036,2039,2069
2046,2042,2027,2052,2042,2035,2038,2055
2045,2049,2030,2058,2046,2041,2034,2047
2043,2052,2030,2058,2049,2044,2035,2044
2047,2053,2036,2066,2048,2044,2040,2032
2048,2054,2045,2065,2053,2046,2035,2032
2048,2050,2036,2054,2054,2036,2038,2023
2045,2047,2026,2038,2047,2041,2058,2020
2045,2049,2037,2036,2046,2045,2038,2017
2050,2050,2042,2027,2047,2044,2043,2006
2051,2046,2041,2022,2048,2037,2024,2007
2041,2034,2040,2018,2042,2039,2029,2008
2035,2040,2046,2029,2051,2048,2041,2013
2051,2059,2063,2040,2060,2057,2040,2027
2054,2061,2062,2041,2055,2056,2029,2025
2054,2059,2061,2046,2058,2052,2054,2030
2050,2058,2052,2052,2059,2050,2060,2032
2049,2056,2043,2044,2061,2045,2060,2035
2048,2059,2042,2046,2059,2052,2061,2031
2043,2057,2042,2042,2055,2056,2066,2036
2041,2050,2038,2042,2064,2056,2056,2047
2043,2049,2042,2039,2073,2055,2047,2051
2041,2048,2037,2045,2072,2055,2057,2063
2039,2044,2032,2044,2064,2044,2067,2065
2037,2037,2032,2040,2056,2045,2051,2073
2030,2031,2034,2038,2048,2046,2059,2076
2036,2030,2042,2037,2049,2036,2039,2070
2033,2021,2045,2041,2047,2040,2041,2077
2034,2029,2038,2047,2049,2038,2064,2083
2038,2035,2048,2048,2052,2032,2050,2078
2042,2041,2045,2051,2051,2035,2059,2074
2044,2042,2038,2050,2050,2044,2062,2068
2040,2045,2054,2044,2052,2042,2061,2060
2041,2050,2054,2043,2050,2041,2052,2049
2042,2049,2056,2047,2041,2040,2054,2044
2043,2045,2054,2044,2040,2038,2062,2038
2038,2044,2044,2034,2037,2033,2068,2032
2041,2049,2056,2045,2043,2044,2065,2031
2038,2060,2064,2060,2043,2041,2067,2030
2045,2066,2072,2063,2047,2041,2059,2024
2049,2068,2065,2060,2049,2037,2056,2022
2046,2065,2055,2058,2055,2042,2067,2017
2045,2064,2046,2053,2053,2036,2037,2008
2040,2045,2029,2046,2049,2034,2037,2000
2045,2041,2026,2052,2049,2042,2051,2016
2056,2054,2028,2054,2059,2040,2076,2020
2053,2058,2032,2051,2046,2037,2055,2021
2050,2052,2029,2049,2042,2031,2052,2025
2051,2053,2030,2049,2027,2025,2056,2026
2053,2051,2027,2043,2029,2024,2068,2033
2045,2044,2012,2026,2022,2024,2045,2034
2040,2036,2008,2022,2034,2039,2057,2038
2039,2041,2029,2045,2068,2056,2059,2054
2046,2055,2038,2064,2090,2062,2050,2064
2045,2056,2040,2064,2091,2064,2068,2065
2041,2052,2034,2064,2088,2063,2065,2073
2042,2048,2041,2064,2077,2051,2072,2072
2038,2046,2049,2062,2061,2042,2064,2067
2034,2042,2042,2062,2068,2041,2033,2071
2025,2030,2034,2057,2058,2039,2034,2080
2036,2039,2031,2062,2052,2033,2039,2088
2048,2052,2045,2061,2057,2033,2036,2091
2046,2051,2041,2064,2055,2036,2047,2083
2046,2050,2044,2053,2052,2040,2044,2072
2053,2049,2044,2048,2054,2041,2033,2064
2053,2048,2046,2052,2048,2042,2032,2052
2043,2047,2046,2048,2045,2035,2038,2047
2047,2039,2032,2026,2034,2034,2037,2039
2036,2034,2031,2015,2032,2031,2038,2029
2040,2036,2057,2022,2028,2025,2044,2032
2045,2053,2099,2041,2043,2026,2041,2029
2054,2066,2118,2058,2048,2034,2054,2023
2058,2070,2104,2056,2054,2031,2061,2020
2054,2061,2090,2054,2052,2034,2054,2015
2057,2067,2082,2055,2054,2031,2018,2009
2047,2050,2065,2043,2046,2026,2011,2003
2037,2043,2056,2046,2043,2030,2026,2011
2052,2057,2063,2053,2054,2039,2039,2013
2057,2056,2059,2055,2053,2042,2040,2014
2052,2060,2066,2055,2057,2047,2042,2013
2051,2056,2063,2054,2065,2049,2038,2017
2047,2050,2055,2054,2063,2048,2038,2021
2047,2054,2054,2053,2058,2047,2029,2031
2041,2050,2052,2047,2062,2055,2051,2033
2037,2050,2048,2054,2058,2059,2055,2043
2043,2055,2050,2050,2059,2053,2054,2046
2038,2049,2057,2048,2065,2053,2040,2061
2044,2050,2058,2054,2066,2049,2056,2073
2043,2051,2057,2046,2070,2050,2047,2074
2042,2049,2051,2048,2066,2044,2033,2079
2043,2045,2051,2044,2057,2037,2054,2079
2037,2038,2040,2037,2052,2032,2041,2078
2037,2039,2041,2036,2046,2038,2021,2091
2049,2055,2053,2045,2048,2045,2048,2088
2047,2055,2050,2048,2050,2045,2052,2082
2048,2042,2049,2042,2052,2047,2050,2069
2043,2042,2045,2049,2051,2047,2054,2065
2041,2034,2046,2042,2046,2044,2046,2049
2035,2035,2039,2043,2041,2039,2020,2035
2036,2038,2049,2046,2045,2039,2041,2038
2040,2049,2057,2054,2043,2040,2043,2029
2046,2053,2050,2050,2054,2038,2060,2030
2045,2052,2051,2046,2049,2043,2051,2022
2046,2045,2056,2052,2056,2050,2051,2024
2048,2041,2048,2057,2056,2050,2055,2016
2049,2049,2045,2061,2057,2043,2058,2022
2047,2052,2052,2058,2057,2046,2051,2017
2049,2038,2038,2047,2044,2038,2038,2008
2041,2038,2033,2041,2042,2029,2054,2004
2048,2047,2044,2050,2057,2040,2050,2015
2040,2046,2047,2053,2064,2040,2037,2016
2044,2046,2045,2052,2053,2042,2052,2021
2043,2043,2046,2052,2059,2040,2031,2026
2047,2042,2041,2052,2056,2040,2065,2027
2043,2048,2042,2051,2062,2038,2054,2031
2046,2045,2043,2046,2053,2040,2075,2042
2048,2044,2041,2045,2059,2038,2073,2054
2050,2050,2041,2045,2056,2039,2063,2065
2047,2052,2047,2050,2054,2035,2048,2072
2053,2065,2055,2053,2064,2045,2059,2085
2059,2065,2060,2056,2064,2044,2047,2089
2056,2057,2062,2056,2063,2045,2045,2092
2053,2053,2054,2054,2070,2047,2046,2085
2043,2039,2042,2048,2058,2037,2051,2082
2036,2037,2036,2042,2057,2034,2033,2088
2043,2044,2046,2045,2050,2043,2027,2088
2048,2053,2050,2047,2051,2037,2035,2084
2048,2056,2050,2047,2047,2030,2035,2081
2050,2054,2053,2051,2043,2031,2052,2064
2052,2051,2045,2045,2043,2035,2045,2060
2045,2048,2052,2050,2041,2043,2050,2055
2048,2046,2047,2053,2045,2046,2046,2049
2047,2044,2044,2049,2045,2046,2040,2043
2049,2051,2041,2049,2043,2042,2043,2037
2046,2048,2046,2048,2044,2040,2047,2043
2042,2046,2040,2044,2043,2041,2050,2025
2044,2042,2042,2048,2040,2036,2039,2022
2046,2039,2040,2046,2043,2036,2038,2019
2043,2046,2044,2050,2047,2039,2054,2015
2047,2036,2039,2043,2042,2030,2044,2011
2044,2028,2032,2044,2049,2037,2046,2008
2043,2038,2042,2052,2058,2051,2043,2014
2045,2042,2038,2049,2059,2051,2044,2025
2043,2043,2038,2050,2064,2053,2050,2027
2050,2044,2042,2052,2071,2065,2061,2033
2048,2047,2046,2054,2068,2070,2060,2043
2055,2049,2043,2056,2076,2070,2053,2050
2054,2048,2045,2057,2074,2058,2058,2052
2049,2046,2043,2049,2061,2056,2058,2060
2046,2045,2044,2048,2061,2056,2065,2074
2052,2044,2043,2049,2057,2054,2052,2079
2056,2051,2047,2053,2059,2051,2045,2101
2055,2055,2047,2049,2063,2048,2057,2101
2054,2043,2049,2041,2053,2044,2062,2100
2044,2047,2045,2045,2050,2048,2057,2097
2049,2038,2035,2034,2038,2046,2050,2090
2036,2029,2034,2034,2034,2040,2051,2090
2036,2038,2037,2042,2042,2050,2055,2083
2045,2033,2034,2042,2037,2049,2055,2082
2040,2039,2034,2043,2037,2042,2051,2076
2043,2038,2039,2044,2042,2046,2072,2079
2046,2036,2039,2046,2041,2043,2067,2080
2048,2035,2045,2046,2044,2047,2070,2066
2046,2040,2042,2050,2048,2060,2076,2052
2054,2044,2045,2047,2046,2057,2048,2046
2046,2043,2052,2047,2044,2056,2050,2034
2047,2044,2049,2047,2046,2071,2056,2035
2057,2043,2047,2045,2052,2079,2059,2038
2047,2050,2056,2054,2052,2089,2059,2031
2056,2049,2050,2055,2049,2092,2064,2030
2055,2055,2049,2051,2060,2090,2069,2031
2056,2048,2047,2041,2040,2067,2040,2021
2051,2036,2047,2032,2039,2013,2040,2022
2060,2040,2046,2044,2044,2002,2060,2023
2059,2043,2049,2044,2051,2016,2070,2033
2053,2047,2047,2048,2060,2041,2068,2035
2064,2050,2047,2049,2053,2043,2067,2043
2057,2047,2048,2043,2055,2037,2072,2043
2053,2042,2052,2045,2057,2031,2057,2045
2054,2041,2044,2044,2056,2041,2080,2051
2051,2047,2050,2043,2060,2049,2066,2059
2049,2046,2049,2042,2060,2050,2070,2059
2054,2043,2053,2046,2056,2043,2062,2069
2053,2045,2053,2048,2053,2047,2073,2074
2045,2048,2050,2048,2056,2049,2069,2082
2045,2045,2048,2047,2053,2052,2071,2093
2050,2044,2053,2042,2043,2048,2067,2099
2050,2045,2046,2040,2047,2036,2045,2099
2047,2032,2041,2040,2043,2032,2020,2098
2042,2039,2048,2045,2055,2042,2053,2099
2046,2047,2048,2044,2058,2058,2070,2090
2048,2038,2042,2039,2057,2059,2062,2083
2048,2042,2036,2034,2049,2054,2060,2070
2049,2038,2034,2035,2050,2039,2044,2060
2044,2042,2029,2037,2049,2033,2058,2054
2051,2040,2034,2037,2038,2030,2051,2053
2050,2041,2035,2041,2040,2030,2052,2038
2049,2043,2039,2037,2038,2028,2036,2037
2046,2038,2036,2039,2035,2023,2044,2032
2050,2043,2039,2034,2041,2022,2032,2030
2043,2047,2036,2036,2038,2028,2057,2020
2046,2047,2036,2040,2035,2035,2051,2024
2048,2047,2039,2041,2038,2041,2036,2025
2041,2040,2043,2048,2041,2046,2037,2017
2035,2029,2037,2039,2037,2038,2039,2014
2031,2020,2033,2041,2042,2035,2034,2016
2031,2028,2040,2045,2041,2040,2056,2022
2041,2043,2044,2044,2043,2038,2041,2027
2038,2040,2053,2047,2046,2035,2050,2024
2040,2042,2054,2040,2038,2038,2067,2026
2038,2038,2047,2039,2042,2043,2063,2035
2036,2041,2053,2039,2041,2049,2042,2040
2034,2041,2050,2035,2034,2053,2050,2052
2035,2039,2052,2040,2036,2044,2058,2052
2037,2048,2052,2045,2041,2047,2071,2065
2035,2050,2067,2046,2046,2051,2068,2074
2038,2052,2067,2047,2050,2056,2074,2083
2051,2055,2062,2050,2054,2060,2045,2091
2076,2062,2065,2046,2055,2056,2060,2107
2093,2069,2066,2044,2048,2050,2056,2105
2073,2064,2064,2039,2045,2045,2055,2107
2051,2047,2046,2032,2037,2036,2042,2107
2052,2044,2048,2035,2034,2033,2049,2109
2052,2055,2054,2033,2033,2036,2041,2099
2050,2050,2054,2037,2025,2041,2050,2100
2051,2053,2054,2033,2032,2038,2045,2091
2050,2051,2056,2041,2037,2040,2050,2087
2051,2060,2054,2038,2038,2041,2054,2083
2052,2054,2050,2039,2030,2044,2059,2077
2053,2051,2052,2042,2030,2045,2060,2065
2051,2049,2047,2038,2032,2048,2060,2049
2047,2054,2049,2031,2023,2057,2062,2033
2047,2050,2047,2034,2021,2058,2048,2023
2035,2043,2040,2024,2014,2069,2046,2012
2041,2041,2044,2024,2014,2077,2058,2015
2038,2047,2043,2031,2008,2067,2059,2017
2041,2049,2045,2035,2013,2041,2063,2018
2042,2045,2041,2024,1984,2029,2052,2007
2030,2032,2033,2014,1969,2021,2057,2003
2025,2026,2030,2021,1973,2032,2058,1999
2029,2038,2038,2020,1974,2016,2064,2006
2037,2040,2037,2027,2008,2005,2062,2017
2040,2043,2048,2047,2046,2021,2065,2023
2048,2052,2053,2058,2074,2039,2085,2029
2050,2053,2052,2062,2096,2051,2080,2040
2054,2053,2047,2064,2098,2064,2086,2047
2054,2053,2052,2065,2093,2055,2069,2052
2046,2051,2044,2059,2081,2048,2070,2056
2054,2055,2051,2060,2082,2057,2078,2070
2047,2047,2047,2052,2076,2046,2056,2068
2043,2047,2043,2048,2068,2042,2059,2078
2039,2045,2043,2044,2058,2042,2049,2087
2036,2043,2040,2042,2051,2040,2061,2077
2034,2043,2038,2036,2041,2045,2054,2082
2032,2039,2036,2032,2043,2041,2027,2077
2027,2033,2032,2033,2042,2043,2048,2081
2033,2041,2039,2034,2042,2061,2057,2086
2034,2041,2034,2032,2037,2061,2051,2081
2038,2040,2034,2025,2037,2054,2028,2074
2035,2047,2034,2031,2036,2052,2053,2064
2033,2046,2034,2030,2040,2040,2042,2056
2038,2045,2033,2034,2037,2043,2049,2047
2038,2049,2035,2032,2042,2046,2044,2047
2038,2053,2041,2033,2040,2050,2044,2031
2044,2052,2042,2039,2035,2048,2059,2036
2042,2056,2049,2037,2039,2055,2055,2034
2052,2057,2051,2032,2035,2051,2029,2026
2043,2056,2054,2033,2037,2044,2048,2027
2048,2053,2048,2033,2035,2047,2052,2028
2047,2062,2055,2037,2040,2044,2052,2026
2048,2063,2053,2036,2034,2032,2054,2017
2044,2056,2042,2036,2039,2033,2045,2020
2046,2055,2046,2039,2036,2038,2060,2027
2058,2069,2058,2047,2049,2041,2063,2031
2050,2067,2057,2046,2050,2046,2072,2029
2056,2067,2056,2041,2050,2048,2072,2029
2056,2062,2055,2044,2038,2046,2054,2034
2054,2059,2053,2033,2022,2023,2056,2043
2056,2060,2050,2030,2013,2011,2060,2046
2056,2059,2048,2035,2007,2012,2049,2049
2057,2061,2043,2034,2010,2015,2046,2051
2056,2058,2042,2024,2024,2027,2065,2066
2054,2059,2035,2026,2049,2046,2055,2069
2065,2060,2045,2042,2069,2060,2059,2080
2057,2057,2047,2038,2075,2060,2055,2084
2050,2050,2043,2033,2066,2065,2066,2084
2046,2047,2038,2034,2065,2048,2049,2091
2050,2043,2036,2028,2055,2039,2072,2092
2046,2032,2026,2028,2047,2040,2064,2096
2050,2035,2027,2039,2054,2046,2067,2096
2056,2047,2036,2040,2056,2064,2069,2096
2056,2055,2033,2040,2046,2074,2062,2089
2052,2058,2027,2034,2045,2070,2050,2082
2052,2049,2020,2029,2027,2053,2044,2057
2041,2047,2023,2025,2011,2044,2046,2045
2043,2051,2026,2029,2002,2051,2015,2029
2034,2046,2023,2019,1992,2051,2020,2018
2031,2041,2022,2009,1990,2057,2033,2016
2028,2043,2024,2018,2009,2079,2046,2013
2038,2045,2034,2024,2009,2078,2044,2019
2040,2047,2041,2024,2008,2032,2021,2016
2043,2046,2046,2034,2028,1998,2012,2018
2048,2059,2059,2045,2055,2005,2033,2017
2048,2073,2074,2053,2073,2029,2046,2006
2044,2060,2067,2055,2083,2045,2049,2003
2045,2059,2063,2051,2073,2062,2056,2008
2051,2055,2055,2047,2072,2074,2055,2009
2047,2046,2042,2053,2067,2076,2068,2008
2040,2045,2043,2051,2072,2069,2063,2017
2047,2053,2052,2046,2068,2072,2072,2027
2046,2052,2050,2042,2076,2066,2070,2031
2048,2046,2045,2042,2072,2059,2057,2039
2047,2045,2041,2039,2062,2052,2055,2047
2047,2046,2050,2037,2060,2047,2043,2053
2055,2057,2055,2037,2046,2045,2044,2061
2056,2059,2057,2040,2050,2040,2046,2080
2058,2064,2059,2042,2051,2045,2043,2084
2059,2069,2059,2039,2060,2053,2035,2089
2061,2067,2053,2044,2057,2060,2052,2092
2056,2057,2051,2040,2057,2055,2030,2094
2048,2043,2040,2032,2046,2034,2013,2093
2037,2037,2041,2026,2039,2028,2013,2087
2040,2041,2041,2038,2038,2029,2020,2084
2044,2047,2045,2038,2040,2036,2022,2072
2039,2045,2045,2036,2036,2039,2027,2068
2041,2043,2050,2037,2038,2040,2033,2061
2047,2045,2052,2039,2040,2046,2031,2056
2038,2043,2052,2040,2040,2052,2041,2045
2044,2043,2052,2041,2041,2040,2020,2036
2041,2045,2048,2041,2034,2048,2034,2032
2043,2046,2044,2034,2044,2056,2028,2032
2045,2045,2047,2042,2046,2048,2043,2037
2051,2046,2050,2038,2038,2042,2040,2036
2058,2053,2049,2043,2040,2032,2050,2041
2060,2060,2056,2046,2045,2029,2035,2042
2062,2063,2060,2050,2042,2038,2048,2032
2065,2063,2061,2052,2028,2031,2030,2027
2059,2049,2056,2045,2025,2027,2029,2018
2052,2043,2045,2043,2023,2036,2041,2014
2049,2055,2045,2035,2009,2047,2019,2019
2051,2046,2036,2030,2012,2020,2024,2017
2039,2045,2035,2020,2006,1984,2020,2018
2044,2044,2032,2025,2021,2035,2028,2030
2049,2049,2046,2046,2054,2086,2030,2032
2046,2049,2052,2050,2080,2099,2023,2039
2039,2054,2053,2057,2102,2100,2030,2050
2048,2062,2062,2061,2098,2086,2041,2058
2056,2064,2059,2059,2072,2068,2039,2063
2051,2062,2056,2050,2040,2059,2036,2070
2047,2052,2051,2044,2043,2061,2038,2070
2039,2043,2044,2050,2072,2066,2042,2077
2034,2045,2040,2055,2101,2059,2039,2084
2040,2045,2052,2059,2098,2047,2043,2083
2042,2039,2041,2048,2068,2024,2029,2074
2032,2040,2036,2041,2040,2003,2010,2075
2034,2049,2043,2035,2026,1984,1996,2064
2043,2057,2046,2035,2021,1984,2015,2064
2041,2052,2048,2036,2026,2010,2011,2059
2036,2049,2044,2031,2028,2051,2026,2056
2028,2047,2043,2039,2032,2080,2027,2049
2034,2050,2039,2028,2029,2089,2034,2040
2042,2046,2028,2023,2038,2097,2039,2030
2035,2037,2029,2028,2049,2096,2046,2017
2033,2040,2032,2037,2062,2082,2043,2018
2035,2043,2034,2049,2086,2045,2042,2019
2037,2042,2037,2049,2095,2035,2046,2018
2039,2041,2029,2045,2084,2036,2038,2012
2032,2038,2029,2034,2061,2030,2033,2006
2028,2034,2021,2031,2036,2031,2036,2005
2031,2034,2028,2026,2024,2030,2031,1994
2020,2022,2017,2012,2007,2031,2006,1991
2018,2015,2012,2012,2018,2050,2021,1995
2026,2032,2033,2032,2054,2089,2055,2002
2047,2041,2039,2054,2079,2089,2055,2010
2043,2050,2040,2049,2071,2083,2042,2009
2037,2054,2037,2042,2068,2063,2040,2005
2042,2061,2041,2045,2063,2039,2010,2007
2042,2069,2050,2045,2061,2035,2022,2015
2046,2078,2058,2040,2056,2043,2024,2029
2038,2075,2066,2041,2048,2029,2028,2041
2040,2073,2068,2043,2049,2036,2032,2051
2043,2069,2069,2049,2051,2038,2033,2056
2049,2065,2069,2050,2060,2038,2037,2067
2045,2060,2068,2046,2056,2037,2028,2071
2042,2056,2059,2045,2051,2039,2031,2068
2040,2044,2048,2034,2055,2036,2028,2054
2030,2033,2040,2037,2077,2022,2004,2050
2014,2011,2030,2023,2092,2018,2014,2063
2019,2020,2039,2031,2107,2029,2020,2069
2029,2030,2043,2043,2110,2057,2048,2073
2031,2034,2041,2044,2107,2071,2051,2072
2034,2033,2042,2049,2122,2073,2040,2069
2041,2032,2046,2047,2107,2074,2040,2052
2039,2026,2043,2050,2093,2077,2025,2045
2040,2030,2047,2046,2076,2088,2034,2040
2044,2041,2052,2043,2058,2104,2052,2036
2049,2046,2049,2036,1994,2096,2042,2032
2046,2040,2049,2023,1925,2047,2041,2025
2045,2042,2041,2023,1936,1955,2040,2015
2039,2039,2041,2025,1968,1899,2017,2011
2045,2044,2048,2032,1995,1937,2016,2003
2046,2041,2044,2034,2022,1982,2022,2009
2043,2041,2049,2035,2035,2020,2028,2012
2050,2039,2046,2040,2044,2036,2015,2004
2043,2036,2043,2045,2037,2040,2026,2001
2046,2044,2059,2042,2038,2064,2032,2007
2054,2057,2059,2040,2031,2080,2032,2014
2060,2055,2063,2041,2049,2089,2041,2014
2055,2060,2056,2037,2050,2082,2035,2015
2048,2053,2050,2039,2048,2061,2028,1992
2034,2049,2040,2037,2049,2031,2003,1989
2029,2039,2043,2042,2053,2012,2007,2002
2031,2039,2045,2043,2044,2020,2029,2007
2031,2043,2047,2047,2032,2038,2045,2024
2037,2049,2049,2047,2054,2052,2049,2030
2032,2049,2051,2051,2073,2064,2056,2043
2035,2042,2048,2053,2058,2077,2069,2053
2026,2045,2047,2049,2044,2070,2025,2056
2018,2039,2041,2040,2029,2063,2020,2057
2015,2030,2038,2042,1991,2056,2023,2056
2009,2011,2018,2032,1964,2058,2023,2049
2003,2013,2012,2030,1967,2058,2033,2050
2016,2021,2021,2033,1969,2055,2014,2051
2020,2018,2016,2020,1953,2034,2010,2041
2021,2019,2009,2009,1933,2017,2026,2041
2032,2024,2018,2027,1994,2024,2047,2039
2037,2029,2025,2051,2041,2036,2044,2035
2040,2039,2035,2053,2047,2055,2036,2027
2035,2057,2046,2047,2050,2064,2029,2020
2032,2059,2041,2033,2018,2051,2027,2006
2026,2065,2045,2025,1982,2028,2010,2001
2024,2062,2052,2016,1984,2011,2034,1993
2022,2066,2056,2019,2018,2028,2034,1999
2028,2065,2058,2022,2035,2054,2038,2000
2036,2074,2066,2033,2045,2057,2023,2002
2034,2072,2079,2045,2046,2042,2046,2004
2039,2075,2084,2052,2042,2036,2042,2002
2028,2061,2076,2045,2045,2061,2058,1995
2032,2054,2073,2049,2064,2071,2065,2002
2044,2064,2078,2053,2062,2075,2045,2013
2042,2057,2082,2052,2033,2086,2048,2010
2041,2049,2073,2041,2007,2088,2035,2000
2038,2039,2060,2030,2009,2099,2042,2006
2037,2042,2062,2033,2035,2089,2041,2012
2048,2040,2068,2051,2083,2089,2063,2022
2046,2043,2073,2054,2100,2091,2050,2015
2035,2035,2060,2052,2085,2088,2048,2019
2029,2027,2050,2043,2076,2090,2038,2013
2025,2029,2052,2043,2066,2087,2032,2023
2029,2033,2050,2043,2080,2046,2019,2029
2022,2033,2043,2043,2094,2018,2023,2033
2017,2031,2036,2041,2101,2003,2022,2040
2022,2035,2038,2045,2096,1961,2008,2043
2018,2026,2036,2031,2071,1949,2006,2039
2009,2005,2036,2032,2052,1966,2001,2042
2005,2016,2038,2037,2045,1990,2002,2049
2014,2015,2039,2045,2048,2008,2019,2045
2013,2019,2043,2045,2045,2007,2013,2039
2013,2022,2043,2041,2043,2002,2022,2034
2013,2020,2041,2031,2037,1996,2003,2026
2018,2021,2035,2037,2033,1999,2011,2028
2026,2043,2051,2044,2038,2017,2015,2026
2039,2052,2060,2050,2043,2009,2005,2013
2032,2052,2053,2046,2052,2010,2032,2009
2037,2046,2049,2042,2046,2010,2031,2002
2030,2045,2043,2041,2058,2014,2025,1996
2037,2044,2046,2043,2064,2031,2021,1997
2036,2042,2043,2042,2068,2053,2022,1988
2035,2040,2033,2038,2073,2066,2027,1987
2034,2042,2036,2041,2061,2046,2026,1981
2026,2021,2019,2030,2050,2024,2037,1981
2024,2018,2008,2036,2054,2033,2040,1980
2036,2035,2005,2037,2063,2043,2046,1988
2029,2023,1998,2041,2059,2043,2039,1992
2024,2027,1997,2041,2054,2050,2051,1996
2024,2027,1999,2040,2056,2054,2048,1995
2020,2021,1996,2037,2036,2051,2047,1996
2021,2021,1992,2031,2019,2035,2021,2006
2028,2024,1996,2022,1982,2019,2033,2013
2028,2038,2006,2023,1980,2025,2024,2028
2034,2046,2011,2023,1995,2025,2023,2026
2037,2041,2002,2005,1962,2020,2001,2020
2024,2027,2000,2009,1958,2029,2014,2036
2018,2026,2011,2024,2036,2049,2029,2048
2022,2028,2019,2045,2136,2068,2028,2057
2020,2025,2038,2055,2170,2070,2028,2054
2012,2025,2051,2047,2156,2052,2023,2054
2003,2024,2055,2041,2126,2039,2005,2052
2011,2047,2077,2047,2107,2039,2022,2062
2032,2064,2109,2062,2108,2056,2026,2063
2037,2073,2114,2066,2126,2063,2034,2056
2027,2065,2099,2058,2111,2055,2044,2047
2028,2056,2077,2050,2067,2037,2048,2045
2030,2071,2083,2064,2070,2046,2058,2037
2040,2077,2080,2076,2036,2050,2054,2038
2049,2072,2077,2066,2055,2044,2039,2025
2047,2061,2061,2065,2096,2059,2045,2023
2043,2058,2060,2068,2102,2054,2036,2010
2036,2062,2079,2069,2105,2057,2024,2003
2032,2062,2082,2058,2110,2059,2052,2005
2032,2059,2075,2046,2064,2038,2072,2002
2034,2062,2079,2026,1947,2015,2049,1994
2033,2062,2080,2014,1887,1994,2036,1987
2028,2052,2065,2008,1858,1993,2024,1985
2016,2053,2063,2013,1875,2036,2028,1989
2024,2060,2067,2022,1908,2070,2021,1985
2026,2064,2080,2015,1900,2090,2026,1982
2028,2059,2078,2005,1865,2077,2016,1981
2024,2060,2076,1996,1859,2034,1998,1995
2022,2062,2074,2012,1897,2020,2008,2012
2025,2060,2074,2022,1951,2038,2001,2007
2038,2061,2070,2030,2011,2048,2028,2018
2042,2064,2076,2052,2099,2092,2048,2040
2047,2072,2084,2084,2146,2122,2074,2054
2047,2073,2084,2081,2134,2123,2077,2057
2042,2057,2061,2057,2093,2088,2054,2037
2020,2038,2039,2040,2062,2069,2037,2037
2008,2032,2035,2044,2049,2055,2032,2033
2009,2030,2029,2050,2052,1990,2028,2027
2007,2015,2020,2063,2066,1979,2037,2034
2007,2017,2010,2077,2115,2037,2041,2038
2010,2025,2013,2088,2148,2083,2037,2046
2021,2021,2015,2086,2109,2084,2030,2039
2023,2027,2014,2065,2085,2064,2016,2030
2018,2030,2019,2057,2096,2063,2026,2022
2019,2033,2023,2061,2126,2080,2045,2013
2019,2028,2021,2061,2140,2076,2037,2009
2019,2022,2027,2065,2146,2061,2022,1996
2011,2027,2033,2056,2138,2062,2012,1993
2016,2031,2041,2065,2119,2075,2040,1995
2020,2032,2046,2067,2094,2093,2037,1985
2018,2035,2045,2060,2078,2118,2040,1994
2022,2041,2048,2050,2062,2144,2056,1993
2027,2043,2061,2043,2040,2155,2068,1992
2035,2042,2081,2044,2023,2189,2077,1995
2033,2043,2085,2044,2020,2201,2067,1984
2027,2039,2092,2037,1987,2143,2042,1978
2021,2050,2094,2029,1958,2003,2041,1984
2012,2047,2082,2027,1968,1952,2046,1987
2014,2045,2072,2030,2004,1983,2039,1990
2021,2052,2080,2042,2028,2014,2049,1992
2036,2066,2095,2065,2097,2021,2056,2001
2040,2075,2094,2076,2136,2026,2042,1990
2026,2072,2087,2087,2172,2040,2040,1996
2032,2062,2079,2086,2187,2046,2034,2002
2035,2051,2070,2087,2217,2038,2026,2018
2032,2044,2068,2079,2236,2015,2015,2022
2033,2051,2065,2068,2179,1999,1985,2035
2028,2048,2066,2043,2062,2000,1998,2028
2027,2056,2065,2025,1908,2018,2002,2027
2020,2052,2059,2026,1929,2070,2001,2026
2024,2045,2057,2019,1940,2086,1992,2021
2017,2037,2049,2014,1958,2073,2021,2040
2022,2043,2056,2025,1981,2054,2023,2050
2030,2057,2069,2030,1965,2026,2024,2053
2037,2072,2076,2040,1952,1973,2036,2064
2051,2074,2079,2051,1936,1964,2047,2057
2047,2059,2067,2045,1921,1995,2057,2038
2030,2047,2057,2025,1862,1993,2023,2023
2026,2041,2040,2020,1923,2005,2025,2015
2025,2041,2038,2033,2022,2025,2046,2017
2024,2039,2044,2050,2058,2042,2036,1998
2023,2039,2044,2061,2122,2074,2068,1995
2031,2046,2049,2064,2074,2072,2051,1990
2035,2052,2050,2046,1930,2067,2058,1990
2029,2046,2049,2045,1946,2063,2059,1986
2030,2035,2047,2044,1969,2057,2062,1984
2024,2037,2044,2051,1984,2021,2057,1978
2013,2015,2036,2041,1994,2009,2014,1972
2013,2018,2031,2040,1992,2007,2032,1981
2019,2026,2031,2032,2002,2003,2041,1980
2012,2020,2025,2015,2036,2024,2060,1961
2014,2028,2032,2034,2098,2058,2058,1958
2020,2041,2049,2055,2107,2084,2072,1971
2025,2046,2049,2055,2098,2089,2060,1982
2028,2049,2052,2049,2111,2085,2068,2001
2036,2055,2061,2054,2128,2079,2073,2015
2029,2052,2059,2057,2116,2058,2037,2016
2018,2043,2053,2060,2118,2021,2033,2013
2008,2039,2052,2055,2117,2015,2035,2014
2008,2039,2053,2049,2056,2017,2040,2024
2004,2035,2048,2038,1989,2001,2024,2033
2010,2031,2042,2036,1996,2012,2018,2036
2011,2025,2036,2029,2008,2021,2018,2032
2001,2010,2026,2029,2022,2035,1998,2037
2013,2008,2033,2045,2056,2046,2014,2048
2027,2026,2047,2058,2100,2049,2024,2064
2031,2037,2048,2069,2128,2073,2013,2055
2026,2027,2035,2078,2123,2085,2049,2043
2005,2010,2022,2072,2105,2083,2032,2030
2005,2002,2014,2076,2113,2084,2029,2018
2008,2006,2015,2080,2112,2086,2022,2006
2012,2009,2034,2072,2109,2079,2026,1997
2016,2028,2054,2079,2124,2084,2043,1994
2015,2047,2051,2078,2138,2090,2051,1991
2018,2048,2045,2072,2148,2114,2042,1993
2014,2044,2041,2057,2053,2079,2057,1988
2010,2040,2038,2037,2051,2046,2035,1980
2006,2032,2031,2039,2111,2051,2029,1981
2014,2037,2040,2049,2145,2075,2036,1983
2031,2042,2047,2047,2120,2065,2027,1980
2032,2043,2044,2043,2096,2049,2033,1975
2032,2044,2047,2053,2084,2055,2037,1979
2025,2045,2052,2048,2032,2050,2033,1979
2020,2036,2050,2036,1993,2036,2044,1985
2031,2035,2056,2040,1973,2052,2049,2004
2053,2044,2068,2060,1974,2076,2078,2021
2051,2050,2062,2069,2030,2094,2052,2026
2052,2048,2056,2073,2090,2082,2038,2014
2034,2037,2048,2056,2066,2046,2047,2007
2024,2032,2045,2065,2120,2021,2051,2017
2026,2035,2049,2074,2098,2016,2061,2027
2045,2044,2060,2068,2042,2005,2050,2032
2044,2059,2073,2063,2009,1991,2031,2033
2040,2070,2080,2068,2051,1964,2031,2036
2028,2064,2069,2064,2080,1977,2035,2040
2016,2050,2051,2012,1941,2015,2042,2034
1993,2029,2034,2022,1933,2077,2035,2032
1983,2016,2038,2020,1960,2076,2048,2032
1985,2019,2034,2033,2007,2072,2064,2036
1990,2011,2031,2049,2066,2078,2058,2047
1999,2020,2034,2070,2162,2114,2081,2054
2005,2018,2033,2072,2194,2115,2072,2045
2008,2014,2018,2053,2179,2102,2049,2032
2012,2012,2020,2045,2195,2091,2061,2018
2023,2013,2019,2049,2186,2080,2047,2005
2018,2011,2029,2045,2114,2064,2064,1999
2018,2032,2047,2052,2072,2052,2056,1998
2030,2036,2045,2043,2013,2026,2054,1990
2015,2020,2033,2034,1965,2018,2043,2007
2034,2027,2036,2048,1997,2038,2035,2012
2035,2038,2043,2064,2027,2039,2035,1994
2041,2037,2041,2055,1971,2017,2031,1996
2038,2034,2026,2034,1875,1991,2022,1962
2021,2028,2026,2039,1933,2018,2024,1958
2027,2043,2040,2072,2039,2043,2045,1987
2041,2047,2044,2079,2097,2035,2028,1985
2039,2044,2045,2094,2133,2040,2027,1992
2029,2059,2062,2107,2144,2049,2044,2004
2033,2071,2059,2092,2120,2052,2061,2012
2034,2068,2056,2086,2106,2056,2057,2020
2031,2062,2053,2070,2088,2051,2038,2027
2026,2054,2049,2052,2065,2040,2051,2016
2021,2050,2040,2050,2078,2040,2035,2020
2027,2039,2037,2049,2024,2047,2046,2033
2030,2035,2027,2033,1973,2039,2029,2045
2028,2025,2024,2003,1922,2034,2039,2060
2030,2027,2030,2001,1911,2042,2053,2072
2032,2026,2032,2027,1938,2026,2044,2073
2032,2036,2041,2043,1953,2019,2037,2070
2039,2036,2045,2049,1975,2030,2036,2058
2021,2032,2038,2043,2002,2058,2045,2052
2008,2045,2059,2060,2036,2099,2050,2071
2023,2071,2084,2093,2027,2128,2064,2081
2040,2072,2094,2091,2038,2126,2065,2064
2035,2059,2085,2069,2029,2078,2063,2056
2028,2045,2075,2046,2070,2067,2069,2037
2024,2036,2059,2048,2095,2063,2049,2020
2019,2023,2056,2040,2068,2061,2028,2012
2010,2013,2040,2003,1981,2036,2033,2008
2016,2005,2024,1967,1879,1998,2011,2010
2032,2016,2017,1965,1885,1984,2029,2024
2058,2028,2033,2031,2070,1996,2029,2032
2057,2024,2038,2068,2157,2026,2019,1996
2035,2027,2062,2090,2165,2058,2036,1988
2046,2050,2081,2093,2164,2073,2017,1979
2010,2029,2062,2082,2145,2082,2019,1983
2012,2034,2061,2084,2176,2108,2063,2010
2027,2059,2073,2107,2205,2124,2057,2008
2025,2066,2069,2102,2197,2120,2059,2001
2011,2068,2060,2092,2172,2125,2060,2005
2028,2062,2058,2093,2164,2116,2035,2018
2035,2055,2056,2098,2132,2091,2060,2017
2029,2039,2048,2104,2077,2060,2056,2022
2032,2044,2061,2122,2063,2031,2067,2025
2033,2049,2082,2144,2058,2018,2064,2039
2036,2047,2098,2147,1999,2017,2071,2047
2027,2048,2094,2140,1970,2011,2066,2051
2033,2034,2082,2127,2016,2023,2062,2068
2033,2022,2066,2128,2057,2038,2065,2075
2027,2020,2053,2128,2080,2049,2072,2081
2026,2013,2040,2119,2085,2049,2059,2070
2012,2000,2018,2102,2094,2050,2056,2057
2005,2027,2051,2126,2134,2057,2055,2064
2016,2056,2066,2124,2148,2036,2046,2063
2021,2053,2062,2103,2156,2050,2056,2061
2022,2048,2062,2082,2158,2073,2042,2054
2032,2053,2062,2051,2080,2036,2024,2050
2028,2037,2046,2012,1987,2005,2027,2041
2022,2020,2022,1982,1962,2009,2008,2029
2018,2017,2010,1958,1895,2006,2020,2038
2032,2038,2019,1966,1912,2011,2060,2054
2067,2060,2050,1992,1996,2055,2085,2055
2069,2068,2056,1987,2026,2090,2081,2043
2068,2052,2041,1986,2030,2097,2075,2043
2066,2048,2031,1984,2027,2121,2094,2043
2078,2041,2012,1983,2026,2147,2109,2043
2069,2016,1990,1991,2049,2135,2081,2040
2060,1998,1964,1992,2080,2099,2035,2000
1999,1957,1934,1996,2132,2086,1998,1969
1967,1964,1955,2040,2168,2066,2024,1977
2007,2017,2010,2077,2139,2012,2042,1985
2018,2022,2028,2094,2075,1981,2038,1984
2018,2037,2043,2105,1986,1983,2030,2005
2019,2055,2066,2116,1968,2004,2035,2017
2027,2068,2083,2121,1954,2009,2030,2023
2032,2070,2070,2109,1958,2013,2018,2017
2030,2066,2056,2094,1976,2025,2041,2020
2028,2064,2039,2094,2013,2034,2043,2019
2031,2060,2026,2094,2069,2024,2033,2029
2035,2058,2025,2106,2124,2046,2040,2053
2030,2056,2037,2110,2150,2062,2039,2061
2027,2041,2039,2081,2065,2041,2033,2065
2024,2039,2046,2056,2034,2037,2032,2068
2020,2044,2074,2044,2052,2041,2028,2074
2018,2055,2106,2052,2061,2045,2031,2063
2025,2067,2126,2053,2043,2045,2023,2072
2029,2089,2118,2035,1996,2039,2017,2075
2027,2069,2083,2022,1944,1986,2031,2073
2033,2067,2070,2017,1929,1973,2044,2070
2031,2067,2063,2013,1962,1991,2045,2066
2033,2063,2048,2003,2016,1997,2024,2047
2038,2061,2049,2029,2094,2027,2013,2030
2040,2061,2047,2050,2094,2055,2030,2028
2034,2055,2042,2051,2061,2056,2037,2018
2031,2043,2037,2056,2056,2053,2024,2014
2034,2040,2032,2066,2084,2064,2043,2013
2033,2044,2033,2073,2108,2085,2048,2010
2030,2040,2029,2064,2112,2088,2053,2014
2033,2040,2022,2051,2110,2085,2053,2011
2037,2040,2021,2046,2102,2074,2028,2004
2022,2031,2014,2031,2089,2052,2032,1981
2005,2014,2015,2024,2068,2037,2025,1977
2001,2013,2029,2022,2009,2043,2022,1982
2012,2029,2047,2031,1998,2042,2014,1985
2021,2043,2073,2044,1957,2030,2033,2000
2035,2051,2098,2049,1882,1995,2017,2002
2028,2030,2101,2039,1818,1972,2024,2002
2021,2031,2103,2047,1918,2006,2027,2006
2027,2041,2108,2065,2059,2044,2045,2017
2031,2038,2091,2079,2143,2053,2044,2019
2022,2029,2065,2077,2152,2060,2045,2033
2011,2018,2046,2073,2147,2049,2031,2035
2015,2024,2050,2050,2066,2040,2030,2038
2017,2040,2058,2048,2026,2041,2043,2059
2024,2047,2062,2061,2041,2045,2040,2080
2032,2051,2062,2061,2082,2056,2047,2078
2033,2048,2061,2059,2070,2058,2054,2082
2024,2035,2058,2055,2024,2058,2039,2084
2022,2037,2057,2058,2038,2061,2049,2085
2025,2040,2057,2061,2055,2065,2037,2076
2020,2041,2053,2064,2059,2078,2059,2061
2020,2044,2054,2064,2054,2071,2049,2061
2021,2044,2041,2047,2007,2050,2044,2057
2016,2027,2028,2025,1965,2033,2005,2040
2009,2019,2025,2014,1960,2013,2017,2032
2022,2035,2058,2062,2017,2012,2034,2040
2054,2067,2100,2109,2061,2025,2058,2049
2066,2076,2115,2114,2061,2047,2064,2041
2061,2076,2102,2103,2053,2056,2062,2031
2043,2057,2067,2086,2027,2052,2054,2023
2050,2039,2032,2074,2050,2063,2043,2027
2045,2028,2010,2069,2057,2058,2049,2024
2071,2045,1993,2068,2042,2054,2054,2030
2085,2054,1994,2070,2035,2057,2047,2026
2103,2054,2000,2079,2058,2068,2027,2010
2091,2036,1983,2067,2080,2081,2047,2001
2072,2015,1976,2053,2090,2100,2035,1984
2031,2006,1960,2056,2112,2111,2026,1985
2023,2009,1963,2043,2133,2141,2063,2009
2021,2016,1957,2014,2100,2148,2062,2006
2008,2032,1945,1976,2058,2142,2042,2005
2001,2039,1949,1958,2010,2117,2025,2019
2023,2060,1972,1974,1991,2073,2007,2042
2050,2061,2014,1994,2013,1990,2024,2070
2065,2059,2044,2041,2111,1960,2044,2097
2068,2049,2026,2058,2172,2003,2052,2091
2041,2019,1997,2038,2161,2033,2029,2070
2022,2001,2000,2052,2179,2069,2048,2070
2031,2020,2010,2071,2170,2080,2051,2076
2046,2023,2013,2061,2124,2047,2042,2058
2018,2014,2000,2057,2068,2009,2016,2057
2019,2031,2016,2078,2067,2025,2049,2071
2033,2055,2034,2098,2067,2046,2050,2075
2043,2061,2044,2107,2076,2059,2053,2072
2042,2050,2034,2107,2068,2049,2065,2051
2024,2049,2043,2129,2086,2051,2035,2049
2037,2066,2071,2143,2126,2056,2051,2045
2038,2073,2081,2129,2082,2042,2033,2050
2048,2063,2076,2127,2061,2028,2042,2036
2042,2038,2081,2133,2115,2026,2032,2013
2037,2023,2084,2123,2126,2041,2023,2025
2055,2022,2095,2098,2089,2061,2039,2019
2064,2057,2140,2070,2079,2080,2052,2032
2077,2078,2165,2058,2050,2070,2043,2033
2061,2074,2162,2031,1988,2051,2008,2004
2026,2068,2145,2026,2080,2045,2014,1977
2014,2057,2140,2012,2088,2021,2006,1974
2015,2059,2140,2025,2067,2029,2028,2001
2027,2075,2153,2072,2133,2050,2059,2032
2037,2080,2134,2074,2154,2071,2056,2032
2051,2067,2101,2055,2141,2087,2055,2030
2044,2037,2072,2015,2024,2082,2070,2034
2049,2051,2072,2029,2069,2055,2082,2034
2052,2060,2079,2042,2088,2015,2037,2051
2042,2057,2074,2056,2071,2017,2030,2055
2047,2068,2083,2069,2085,2046,2040,2063
2053,2080,2098,2073,2037,2069,2055,2060
2063,2082,2087,2056,1982,2085,2048,2054
2058,2076,2078,2055,2018,2096,2044,2060
2050,2072,2073,2059,2028,2126,2045,2081
2047,2071,2079,2064,2039,2130,2051,2098
2049,2076,2066,2057,2113,2107,2035,2100
2046,2062,2056,2054,2151,2044,2035,2092
2042,2056,2071,2072,2122,2017,2033,2090
2042,2067,2087,2088,2099,2026,2038,2079
2045,2079,2121,2091,2094,2044,2041,2069
2051,2090,2139,2101,2064,2052,2044,2071
2052,2090,2136,2092,2047,2040,2040,2046
2050,2083,2117,2083,2036,2032,2021,2034
2050,2078,2105,2092,2030,2040,2008,2036
2046,2080,2100,2085,1990,2032,2015,2028
2038,2067,2080,2044,1916,2004,2029,2023
2044,2059,2066,2041,1987,2009,2040,2015
2044,2057,2056,2063,2044,2036,2044,2012
2036,2047,2034,2094,2053,2047,2029,2005
2034,2039,2041,2106,2061,2058,2028,2010
2050,2046,2045,2112,2075,2068,2032,2006
2057,2030,2026,2117,2106,2065,2026,2001
2047,2018,2009,2128,2140,2062,2023,1995
2047,2012,1993,2130,2144,2067,2056,2005
2053,2026,1983,2121,2161,2071,2067,2004
2053,2029,1976,2115,2156,2070,2075,2013
2064,2031,1968,2091,2049,2044,2073,2027
2064,2037,1957,2082,2022,2040,2073,2038
2060,2033,1958,2092,2037,2042,2060,2029
2047,2022,1965,2089,2054,2048,2054,2014
2045,2020,1981,2082,2063,2043,2057,2016
2052,2031,1994,2063,2061,2037,2042,2030
2031,2027,2003,2041,2052,2031,2051,2031
2018,2046,2049,2026,2047,2034,2046,2046
2026,2062,2074,1997,2039,2041,2055,2060
2036,2062,2085,1992,2057,2060,2052,2095
2054,2082,2103,2012,2066,2074,2066,2110
2063,2082,2110,2002,2035,2064,2062,2103
2050,2059,2090,2006,1999,2052,2065,2105
2042,2056,2075,2012,2000,2022,2057,2119
2060,2076,2083,2034,2009,2004,2068,2117
2075,2075,2109,2046,2003,2011,2065,2106
2078,2067,2109,2034,1996,2017,2064,2089
2057,2060,2103,2022,1993,2030,2057,2079
2055,2058,2088,2005,1992,2033,2054,2079
2052,2048,2072,2004,1978,2038,2053,2062
2035,2038,2064,2011,2018,2051,2035,2041
2034,2048,2062,2066,2096,2079,2030,2040
2039,2056,2047,2088,2100,2087,2050,2034
2043,2063,2031,2081,2072,2088,2049,2029
2051,2054,2023,2064,2031,2068,2044,2029
2046,2056,2015,2045,2008,2051,2039,2029
2040,2051,2006,2052,2020,2051,2056,2022
2038,2045,1997,2064,2028,2038,2037,2014
2029,2017,1960,2062,2041,2033,2041,2008
2037,2014,1956,2093,2073,2044,2056,2014
2041,2014,1973,2138,2120,2049,2047,2018
2046,2009,1984,2150,2099,2062,2057,2024
2051,2029,2004,2146,2095,2069,2042,2027
2059,2032,2009,2129,2084,2066,2055,2034
2054,2040,2001,2123,2075,2049,2059,2038
2060,2045,1995,2118,2078,2045,2067,2040
2053,2042,1989,2102,2082,2052,2056,2031
2036,2032,1970,2092,2079,2059,2051,2034
2034,2036,1971,2083,2070,2053,2056,2046
2028,2045,1977,2066,2047,2037,2034,2053
2036,2060,2021,2071,2052,2044,2043,2065
2050,2093,2086,2066,2061,2047,2028,2077
2054,2101,2103,2039,2048,2036,2008,2082
2039,2078,2099,1978,2008,2015,2021,2084
2026,2062,2093,1919,1980,2006,2018,2086
2027,2059,2081,1885,1978,2013,2024,2087
2032,2071,2089,1885,1983,2022,2038,2100
2050,2084,2116,1922,1994,2024,2041,2109
2053,2093,2139,1972,2011,2039,2046,2099
2049,2086,2141,2016,2030,2052,2045,2090
2051,2076,2124,2052,2088,2068,2062,2091
2060,2080,2104,2091,2114,2077,2051,2082
2062,2077,2101,2106,2121,2080,2061,2065
2057,2063,2092,2123,2133,2073,2064,2052
2058,2051,2090,2130,2116,2060,2033,2049
2055,2038,2083,2130,2116,2052,2030,2042
2052,2043,2081,2123,2100,2043,2012,2026
2046,2039,2081,2117,2046,2038,2027,2014
2046,2049,2088,2103,1949,2034,2034,2017
2054,2058,2083,2090,1965,2045,2044,2007
2034,2037,2054,2072,1999,2044,2035,2002
2022,2015,2044,2047,2015,2037,2028,2005
2027,2037,2047,2033,2017,2039,2042,2021
2040,2048,2045,2035,2024,2045,2029,2034
2053,2075,2077,2035,2032,2052,2049,2032
2063,2096,2105,2048,2041,2052,2070,2036
2061,2094,2103,2036,2032,2039,2032,2028
2053,2078,2075,2004,2014,2018,2034,2040
2049,2089,2069,1992,2006,2015,2052,2049
2059,2102,2056,1983,2011,2015,2060,2081
2075,2102,2038,1970,2012,2022,2053,2094
2068,2096,2043,1981,2018,2038,2053,2100
2076,2097,2060,2011,2054,2050,2059,2108
2080,2102,2077,2026,2068,2058,2043,2098
2072,2090,2084,2032,2065,2064,2045,2099
2060,2081,2074,2041,2071,2065,2034,2103
2040,2062,2062,2045,2069,2053,2046,2111
2040,2053,2055,2049,2062,2049,2047,2108
2046,2055,2049,2057,2060,2051,2059,2102
2041,2046,2034,2053,2054,2053,2051,2097
2046,2057,2026,2062,2053,2064,2050,2094
2072,2071,2047,2071,2065,2080,2056,2091
2079,2073,2053,2073,2067,2081,2058,2077
2062,2065,2052,2078,2066,2071,2080,2072
2060,2061,2044,2078,2070,2064,2067,2078
2059,2051,2034,2074,2070,2059,2071,2069
2063,2041,2011,2059,2064,2056,2070,2066
2069,2035,1983,2046,2060,2043,2073,2051
2061,2037,1974,2057,2060,2043,2069,2036
2062,2048,1992,2065,2066,2045,2070,2042
2078,2060,2000,2066,2057,2041,2069,2041
2070,2061,1993,2058,2048,2033,2069,2030
2056,2037,1980,2055,2046,2038,2062,2027
2050,2040,1994,2055,2068,2048,2056,2024
2048,2056,2012,2061,2073,2062,2062,2017
2050,2052,2017,2064,2070,2065,2056,2018
2054,2056,2025,2066,2076,2059,2043,2024
2053,2062,2033,2062,2073,2046,2040,2040
2063,2064,2051,2067,2063,2032,2034,2045
2054,2071,2063,2072,2057,2030,2032,2053
2064,2075,2080,2081,2067,2036,2038,2062
2065,2081,2096,2082,2061,2044,2048,2077
2064,2075,2092,2070,2064,2046,2057,2083
2062,2063,2088,2067,2061,2056,2066,2085
2064,2066,2084,2064,2060,2060,2064,2092
2069,2076,2102,2069,2074,2065,2081,2105
2074,2083,2100,2076,2071,2059,2057,2118
2068,2078,2088,2066,2046,2033,2040,2106
2057,2062,2068,2051,2033,2024,2025,2096
2051,2063,2061,2048,2030,2056,2027,2100
2069,2078,2072,2048,2032,2069,2017,2100
2073,2068,2077,2056,2037,2077,2053,2094
2072,2081,2086,2066,2029,2069,2045,2094
2068,2087,2085,2072,2014,2050,2038,2090
2077,2086,2079,2079,2029,1996,2032,2083
2072,2084,2073,2076,2034,1994,2032,2076
2067,2073,2060,2060,2021,2006,2026,2063
2065,2065,2055,2059,2030,2022,2044,2061
2071,2071,2058,2061,2038,2032,2058,2046
2068,2062,2055,2066,2031,2022,2036,2037
2059,2068,2056,2057,2000,2022,2059,2036
2071,2070,2049,2060,1993,2023,2052,2035
2067,2067,2042,2056,1994,2028,2060,2037
2067,2060,2035,2059,2004,2038,2059,2029
2059,2049,2034,2065,2027,2057,2072,2025
2054,2046,2029,2074,2061,2067,2077,2032
2069,2054,2031,2080,2085,2087,2085,2045
2067,2051,2018,2091,2107,2099,2088,2043
2077,2054,2014,2094,2105,2086,2069,2044
2076,2046,1998,2079,2100,2080,2069,2055
2066,2036,1971,2086,2096,2069,2085,2042
2062,2033,1957,2087,2106,2073,2076,2049
2073,2050,1960,2094,2101,2073,2076,2067
2076,2048,1953,2089,2099,2074,2052,2062
2072,2041,1941,2079,2080,2062,2048,2065
2053,2028,1938,2076,2057,2048,2065,2083
2067,2050,1969,2084,2060,2045,2065,2096
2064,2044,1968,2097,2060,2039,2065,2098
2060,2047,1994,2108,2085,2052,2077,2111
2067,2069,2024,2124,2107,2061,2070,2112
2057,2044,2006,2119,2089,2045,2057,2099
2050,2027,1987,2103,2054,2035,2056,2093
2053,2046,2007,2082,2035,2033,2072,2107
2067,2072,2046,2067,2051,2044,2075,2106
2074,2078,2085,2070,2063,2037,2049,2101
2064,2069,2091,2061,2069,2048,2074,2092
2064,2061,2095,2073,2068,2055,2085,2093
2075,2079,2100,2112,2071,2070,2083,2083
2087,2082,2112,2123,2070,2060,2068,2066
2073,2065,2100,2131,2065,2048,2048,2056
2062,2064,2091,2138,2068,2051,2043,2057
2070,2073,2083,2131,2048,2030,2037,2054
2071,2073,2075,2122,2041,2016,2031,2037
2071,2078,2072,2120,2041,2018,2045,2023
2060,2062,2053,2104,2027,2018,2041,2024
2067,2054,2054,2072,2014,2005,2018,2023
2066,2051,2065,2048,2009,2005,2023,2034
2069,2065,2083,2043,2009,2012,2035,2037
2070,2069,2080,2029,2008,2005,2051,2036
2069,2080,2064,2006,2014,2009,2053,2049
2077,2100,2077,2009,2036,2016,2063,2068
2093,2126,2113,2017,2048,2021,2070,2069
2093,2131,2126,2016,2056,2032,2080,2073
2094,2132,2121,2001,2056,2027,2078,2078
2092,2122,2098,1998,2057,2043,2081,2090
2097,2111,2081,1993,2059,2051,2088,2093
2091,2092,2074,2003,2068,2060,2095,2094
2082,2084,2063,2014,2067,2069,2091,2100
2077,2089,2058,2021,2071,2064,2097,2109
2072,2095,2063,2039,2073,2074,2089,2114
2074,2091,2061,2046,2074,2072,2086,2120
2069,2074,2042,2027,2054,2068,2080,2115
2055,2055,2030,2029,2046,2060,2072,2106
2058,2056,2034,2042,2040,2045,2078,2108
2063,2057,2046,2055,2049,2040,2066,2101
2065,2054,2049,2071,2041,2041,2063,2097
2067,2052,2046,2072,2038,2039,2062,2093
2070,2059,2059,2089,2055,2043,2060,2075
2070,2064,2049,2096,2058,2041,2075,2066
2080,2066,2040,2099,2054,2041,2065,2062
2073,2051,2028,2082,2046,2033,2064,2057
2073,2042,2022,2075,2055,2038,2068,2052
2068,2055,2017,2073,2063,2044,2076,2058
2069,2064,2010,2066,2049,2047,2066,2057
2074,2061,2015,2068,2035,2043,2068,2050
2070,2044,2010,2055,2025,2036,2067,2040
2063,2038,2031,2050,2012,2033,2058,2036
2060,2035,2046,2042,2009,2020,2059,2035
2053,2023,2040,2048,2007,2023,2062,2029
2068,2042,2061,2057,2015,2043,2061,2041
2072,2067,2087,2073,2002,2043,2062,2042
2073,2074,2091,2088,2012,2043,2055,2046
2084,2087,2094,2091,2024,2039,2047,2049
2089,2088,2085,2089,2050,2041,2077,2060
2094,2093,2082,2105,2102,2052,2075,2070
2091,2083,2074,2107,2101,2052,2054,2075
2087,2071,2049,2096,2086,2046,2055,2084
2085,2066,2037,2082,2070,2044,2046,2090
2084,2070,2036,2067,2055,2045,2060,2104
2089,2077,2030,2045,2050,2051,2064,2114
2097,2086,2028,2023,2033,2043,2072,2120
2099,2084,2032,2008,2027,2043,2064,2126
2083,2083,2022,1999,2018,2045,2063,2128
2083,2090,2043,2026,2033,2050,2071,2130
2097,2106,2069,2048,2037,2055,2084,2138
2097,2117,2067,2060,2033,2058,2089,2140
2100,2102,2056,2058,2040,2059,2094,2137
2095,2098,2060,2056,2046,2063,2101,2132
2104,2099,2069,2057,2018,2079,2093,2121
2096,2096,2074,2058,2047,2087,2084,2105
2092,2082,2066,2052,2039,2104,2069,2087
2090,2082,2064,2052,2012,2107,2066,2078
2089,2091,2055,2050,1999,2095,2056,2073
2091,2087,2050,2053,1997,2066,2062,2066
2081,2074,2048,2059,2034,2028,2062,2052
2077,2071,2044,2068,2090,2002,2070,2061
2087,2073,2046,2079,2116,2005,2060,2062
2086,2073,2057,2082,2116,2029,2051,2067
2081,2082,2063,2082,2107,2047,2060,2062
2087,2077,2055,2068,2084,2025,2048,2051
2080,2067,2050,2077,2111,2012,2043,2056
2087,2081,2066,2094,2150,2054,2068,2057
2098,2089,2071,2092,2142,2077,2077,2056
2095,2086,2068,2078,2083,2079,2068,2061
2096,2082,2062,2072,2063,2033,2061,2068
2093,2079,2059,2069,2080,2019,2055,2081
2089,2072,2053,2088,2126,2032,2057,2086
2091,2079,2050,2094,2123,2048,2067,2085
2093,2080,2055,2085,2092,2057,2066,2088
2085,2080,2044,2072,2023,2060,2060,2097
2082,2079,2047,2075,2035,2065,2080,2108
2087,2076,2048,2074,2049,2062,2075,2120
2092,2079,2046,2067,2033,2037,2063,2124
2084,2074,2045,2066,2037,2013,2060,2130
2077,2068,2043,2057,2043,2021,2059,2132
2078,2065,2033,2050,2060,2031,2048,2123
2075,2053,2031,2060,2061,2039,2065,2138
2079,2066,2043,2058,2052,2043,2056,2142
2079,2075,2042,2061,2043,2049,2054,2133
2080,2072,2056,2079,2047,2055,2065,2121
2078,2072,2062,2083,2043,2049,2054,2109
2078,2074,2057,2080,2040,2054,2061,2098
2076,2068,2054,2083,2024,2058,2079,2101
2081,2064,2040,2083,2023,2063,2069,2090
2075,2058,2017,2075,2030,2044,2060,2078
2063,2050,2006,2073,2032,2042,2052,2069
2062,2060,2014,2087,2034,2041,2053,2063
2065,2062,2015,2090,2027,2052,2047,2064
2074,2067,2018,2088,2040,2039,2049,2052
2075,2066,2007,2064,2061,2038,2056,2063
2073,2059,2001,2037,2089,2034,2043,2047
2059,2039,1989,2000,2078,2025,2019,2035
2056,2045,2011,2007,2087,2027,2050,2052
2068,2077,2040,2035,2102,2027,2058,2065
2084,2076,2041,2043,2074,2019,2046,2067
2076,2074,2037,2029,2032,2016,2045,2060
2071,2074,2042,2029,2001,2023,2047,2065
2080,2084,2060,2047,2005,2041,2061,2080
2093,2090,2082,2060,1966,2044,2071,2085
2096,2088,2093,2066,1988,2039,2077,2092
2092,2088,2095,2085,2028,2068,2082,2101
2088,2091,2088,2096,2047,2067,2082,2103
2093,2081,2070,2074,2044,2057,2071,2107
2082,2073,2057,2064,2049,2064,2066,2117
2084,2072,2061,2061,2056,2061,2070,2134
2092,2069,2062,2065,2075,2064,2051,2137
2094,2065,2052,2073,2082,2064,2040,2137
2084,2043,2034,2064,2059,2053,2035,2139
2082,2041,2021,2073,2056,2034,2046,2129
2072,2047,2040,2087,2044,2039,2049,2107
2063,2052,2049,2096,2050,2048,2068,2100
2066,2069,2065,2105,2053,2050,2080,2099
2074,2074,2065,2101,2049,2047,2064,2097
2070,2066,2063,2092,2049,2042,2061,2092
2072,2066,2054,2080,2051,2036,2060,2086
2072,2070,2053,2068,2056,2043,2065,2080
2074,2073,2047,2068,2062,2057,2072,2077
2079,2071,2055,2072,2088,2069,2068,2075
2077,2068,2060,2061,2074,2067,2066,2061
2070,2062,2042,2042,2060,2067,2055,2050
2059,2060,2038,2034,2052,2076,2053,2057
2068,2060,2025,2022,2047,2084,2075,2046
2061,2054,2017,2004,2042,2098,2067,2050
2062,2048,2003,1992,2037,2106,2077,2049
2067,2052,2020,2010,2043,2105,2087,2060
2084,2073,2046,2026,2056,2067,2089,2067
2089,2072,2053,2038,2048,2007,2086,2070
2086,2068,2046,2036,2034,2007,2095,2073
2080,2061,2042,2048,2043,2023,2063,2074
2077,2050,2028,2057,2045,2034,2068,2081
2079,2054,2029,2056,2049,2034,2057,2083
2081,2062,2035,2058,2053,2034,2044,2086
2087,2077,2047,2065,2058,2043,2067,2099
2097,2081,2051,2064,2057,2030,2066,2099
2091,2067,2039,2070,2057,2033,2056,2107
2073,2057,2033,2085,2060,2046,2058,2107
2071,2043,2004,2087,2067,2044,2053,2106
2067,2035,1994,2079,2049,2034,2031,2107
2062,2038,2001,2084,2044,2021,2028,2114
2059,2039,1999,2066,2033,2011,2030,2114
2055,2040,1984,2062,2036,2019,2026,2119
2060,2052,1990,2061,2044,2041,2052,2123
2068,2052,1991,2058,2038,2041,2046,2110
2067,2044,1980,2054,2022,2033,2042,2100
2070,2035,1979,2046,2032,2033,2050,2107
2070,2031,1984,2049,2030,2033,2041,2089
2057,2042,1997,2043,2029,2041,2040,2084
2062,2041,2012,2039,2034,2040,2048,2074
2070,2050,2031,2033,2036,2036,2055,2065
2062,2050,2054,2019,2022,2032,2057,2058
2062,2055,2076,2011,2018,2046,2027,2057
2056,2057,2089,2011,2007,2047,2047,2055
2055,2080,2131,2037,2018,2062,2055,2062
2071,2106,2139,2071,2040,2082,2076,2073
2079,2102,2117,2077,2063,2070,2078,2074
2083,2077,2088,2064,2066,2049,2064,2064
2075,2065,2075,2060,2055,2040,2055,2061
2082,2063,2085,2051,2054,2041,2043,2050
2080,2062,2068,2044,2047,2035,2067,2057
2076,2067,2072,2042,2051,2042,2060,2065
2077,2072,2084,2054,2051,2045,2064,2063
2071,2064,2069,2044,2048,2040,2056,2066
2081,2065,2052,2033,2045,2045,2062,2072
2070,2057,2052,2035,2042,2055,2063,2075
2073,2057,2057,2052,2050,2067,2060,2092
2080,2072,2077,2058,2061,2069,2069,2097
2082,2083,2083,2063,2064,2061,2070,2106
2088,2080,2086,2069,2065,2060,2057,2115
2082,2077,2073,2061,2064,2057,2066,2123
2076,2071,2068,2056,2054,2046,2053,2129
2075,2060,2059,2051,2048,2043,2051,2131
2066,2050,2046,2045,2045,2022,2056,2124
2056,2036,2038,2039,2036,2010,2053,2128
2058,2051,2047,2043,2038,2005,2052,2137
2072,2060,2058,2053,2038,2008,2061,2132
2070,2063,2060,2059,2032,2009,2048,2128
2077,2066,2062,2055,2029,2016,2058,2114
2073,2068,2070,2051,2024,2025,2064,2103
2074,2062,2074,2055,2015,2038,2049,2099
2067,2067,2078,2050,2007,2048,2049,2090
2072,2070,2080,2054,2000,2057,2049,2079
2069,2072,2081,2054,1994,2044,2050,2075
2075,2072,2081,2055,1988,2032,2056,2074
2072,2067,2069,2054,1988,2034,2053,2072
2074,2067,2062,2055,2002,2044,2052,2066
2081,2063,2062,2065,2027,2052,2038,2061
2076,2059,2054,2070,2053,2056,2043,2061
2076,2061,2050,2075,2058,2037,2038,2057
2073,2056,2039,2068,2040,2015,2036,2064
2071,2054,2039,2070,2037,2019,2052,2067
2080,2074,2047,2071,2037,2020,2054,2077
2078,2062,2052,2052,2015,2018,2043,2074
2078,2060,2037,2037,2013,2022,2061,2071
2075,2056,2032,2026,2007,2022,2057,2082
2077,2056,2022,2025,2024,2027,2055,2085
2076,2052,2024,2030,2036,2016,2064,2085
2070,2051,2021,2030,2042,2011,2063,2085
2068,2047,2023,2036,2053,2015,2060,2088
2061,2044,2026,2040,2065,2026,2054,2094
2062,2036,2028,2046,2073,2047,2067,2108
2062,2035,2038,2052,2081,2053,2071,2118
2063,2038,2043,2037,2089,2053,2062,2120
2056,2036,2043,2041,2090,2074,2065,2133
2059,2051,2040,2050,2072,2088,2060,2123
2052,2031,2026,2030,2051,2097,2052,2129
2057,2025,2015,2021,2040,2089,2057,2132
2064,2040,2015,2022,2044,2076,2044,2125
2061,2040,2023,2029,2044,2069,2059,2121
2065,2045,2023,2027,2054,2062,2057,2121
2063,2044,2032,2025,2054,2063,2053,2115
2065,2048,2044,2033,2022,2061,2063,2106
2069,2049,2052,2037,2039,2064,2062,2094
2068,2046,2047,2035,2050,2069,2051,2082
2069,2059,2055,2046,2028,2077,2043,2080
2074,2061,2061,2063,2043,2085,2058,2074
2075,2068,2053,2068,2054,2092,2066,2062
2077,2065,2042,2070,2049,2059,2064,2061
2072,2055,2028,2064,2049,2034,2039,2057
2065,2039,2032,2066,2044,2028,2046,2050
2064,2034,2031,2054,2034,2028,2045,2046
2053,2017,2017,2029,2033,2021,2037,2041
2050,2016,2030,2034,2039,2039,2067,2039
2056,2039,2056,2052,2050,2054,2062,2048
2075,2061,2078,2062,2055,2057,2057,2062
2078,2072,2090,2069,2048,2048,2061,2075
2082,2077,2090,2064,2041,2046,2060,2080
2084,2068,2078,2059,2037,2034,2055,2072
2082,2064,2074,2057,2054,2041,2064,2080
2073,2069,2077,2057,2080,2051,2045,2080
2075,2076,2089,2059,2082,2055,2053,2092
2077,2074,2078,2052,2090,2049,2057,2093
2067,2058,2059,2041,2078,2044,2065,2098
2068,2050,2050,2037,2082,2047,2058,2113
2070,2053,2062,2044,2086,2070,2073,2127
2074,2060,2052,2035,2061,2094,2064,2126
2076,2062,2047,2025,2025,2098,2057,2118
2069,2061,2049,2017,1979,2087,2050,2124
2065,2051,2045,2012,1934,2074,2043,2120
2065,2049,2050,2012,1969,2029,2052,2133
2070,2070,2075,2042,2054,2017,2075,2142
2076,2077,2088,2063,2089,2040,2064,2143
2089,2082,2088,2065,2095,2051,2067,2135
2088,2081,2080,2066,2093,2022,2072,2128
2082,2073,2070,2062,2086,2011,2041,2108
2074,2059,2057,2045,2082,2019,2043,2091
2063,2050,2049,2032,2085,2027,2038,2077
2074,2055,2060,2048,2102,2043,2049,2081
2079,2059,2069,2060,2103,2052,2049,2078
2077,2062,2065,2045,2041,2038,2053,2071
2072,2051,2052,2050,2011,2028,2033,2060
2074,2050,2059,2057,1971,2021,2047,2053
2071,2050,2062,2061,1925,2014,2047,2052
2073,2049,2060,2061,1945,2022,2032,2043
2064,2036,2046,2047,1937,2050,2021,2028
2051,2022,2038,2043,1933,2049,2016,2026
2050,2032,2040,2044,1949,2063,2028,2023
2051,2033,2036,2055,1973,2071,2037,2036
2063,2052,2046,2080,2019,2031,2041,2052
2082,2062,2064,2111,2089,1970,2073,2080
2088,2061,2056,2107,2132,2016,2058,2084
2086,2054,2060,2094,2128,2057,2078,2084
2075,2052,2050,2074,2099,2070,2062,2079
2067,2044,2036,2054,2082,2067,2051,2076
2065,2042,2037,2039,2066,2066,2048,2086
2063,2048,2053,2031,2060,2060,2062,2093
2067,2052,2081,2023,2049,2064,2067,2100
2072,2054,2081,2004,2036,2061,2061,2111
2068,2055,2055,1990,2039,2064,2070,2116
2068,2056,2055,1997,2032,2044,2066,2131
2071,2066,2058,2013,2016,2017,2049,2128
2070,2070,2064,2018,2019,2022,2047,2137
2075,2077,2071,2025,2033,2031,2062,2142
2077,2077,2065,2022,2026,2036,2056,2134
2065,2069,2048,2016,2039,2056,2047,2121
2068,2058,2032,2004,2061,2058,2066,2113
2057,2051,2013,1995,2044,2059,2057,2102
2055,2050,2017,2012,2041,2069,2062,2092
2072,2066,2037,2044,2075,2078,2057,2086
2077,2071,2045,2055,2105,2080,2073,2085
2078,2068,2042,2057,2100,2071,2059,2076
2080,2071,2036,2056,2098,2060,2052,2066
2086,2059,2038,2048,2068,2040,2043,2044
2078,2048,2031,2048,2043,2039,2046,2042
2062,2039,2030,2053,2044,2039,2057,2045
2053,2041,2040,2050,2067,2049,2058,2045
2050,2045,2044,2062,2116,2055,2060,2044
2048,2036,2039,2056,2150,2060,2054,2040
2053,2039,2032,2051,2149,2065,2077,2058
2082,2058,2050,2055,2148,2069,2071,2080
2092,2060,2054,2056,2133,2061,2081,2082
2092,2058,2057,2051,2120,2054,2057,2070
2081,2054,2056,2049,2105,2050,2043,2060
2076,2044,2053,2039,2091,2036,2077,2074
2090,2040,2051,2027,2066,2033,2074,2077
2072,2030,2044,2009,2032,2009,2064,2077
2061,2020,2032,2005,1998,2000,2043,2084
2066,2035,2037,1997,1920,2008,2053,2090
2067,2047,2047,2015,1953,2041,2059,2086
2072,2044,2063,2043,2020,2057,2062,2092
2067,2050,2066,2053,1993,2064,2074,2096
2062,2045,2068,2051,2019,2070,2056,2108
2057,2047,2064,2056,2047,2066,2055,2115
2056,2038,2047,2056,2056,2062,2064,2112
2059,2037,2041,2049,2062,2062,2051,2111
2059,2048,2044,2056,2045,2084,2052,2102
2061,2045,2037,2037,2026,2085,2056,2099
2063,2045,2026,2036,2028,2071,2047,2097
2066,2044,2017,2044,2036,2056,2042,2091
2070,2041,2006,2036,2028,2048,2054,2086
2065,2041,1989,2028,2023,2033,2044,2078
2066,2036,1984,2031,2038,2026,2056,2072
2069,2035,1997,2036,2040,2039,2047,2062
2073,2037,2004,2040,2042,2042,2031,2056
2069,2034,2004,2039,2038,2038,2049,2046
2065,2032,2010,2045,2038,2042,2049,2042
2062,2027,2011,2035,2034,2033,2057,2037
2061,2027,2013,2028,2036,2034,2039,2038
2056,2031,2029,2038,2034,2030,2044,2031
2054,2026,2028,2040,2028,2026,2039,2018
2048,2017,2021,2032,2019,2024,2029,2016
2052,2024,2024,2043,2019,2038,2038,2015
2062,2041,2047,2051,2025,2046,2029,2024
2049,2038,2064,2042,2026,2052,2039,2023
2051,2042,2077,2042,2036,2064,2051,2034
2060,2051,2094,2032,2040,2076,2071,2042
2062,2056,2088,2027,2032,2075,2079,2047
2069,2052,2065,2015,2011,2071,2055,2054
2065,2053,2047,2005,1994,2072,2080,2068
2071,2056,2044,2006,1990,2081,2071,2072
2072,2058,2060,2012,2012,2094,2053,2068
2066,2051,2060,2018,2061,2108,2074,2081
2063,2051,2072,2045,2097,2074,2070,2092
2071,2056,2072,2047,2086,2047,2051,2094
2070,2054,2060,2036,2059,2064,2039,2104
2067,2042,2055,2031,2053,2068,2056,2099
2062,2039,2057,2027,2063,2076,2067,2102
2066,2046,2065,2030,2064,2083,2072,2102
2067,2050,2074,2027,2056,2091,2065,2104
2063,2044,2056,2033,2098,2090,2065,2095
2054,2040,2036,2034,2124,2073,2039,2087
2056,2039,2043,2043,2132,2056,2054,2087
2067,2050,2052,2059,2160,2064,2051,2079
2070,2056,2060,2055,2130,2049,2053,2069
2076,2058,2054,2033,2036,2032,2064,2060
2074,2055,2049,2030,2004,2028,2059,2046
2057,2047,2045,2043,2027,2030,2059,2039
2060,2045,2043,2048,2041,2047,2066,2029
2058,2047,2042,2042,2051,2034,2037,2017
2050,2044,2043,2023,2033,2017,2026,2015
2056,2037,2028,2008,1987,1994,2015,2009
2051,2036,2027,2008,1992,1976,2030,2008
2052,2027,2021,2008,2021,1976,2042,2000
2036,2016,2029,2027,2053,1992,2037,1992
2038,2020,2029,2044,2084,2013,2059,1999
2042,2011,2036,2056,2082,2023,2066,2009
2038,2005,2027,2054,2058,2028,2049,2015
2039,2006,2019,2047,2007,2035,2039,2017
2046,2004,2010,2026,1915,2035,2061,2024
2046,2012,2013,2019,1934,2044,2063,2030
2049,2019,2020,2036,2004,2070,2056,2043
2052,2037,2036,2053,2070,2092,2074,2058
2065,2042,2040,2058,2077,2092,2077,2068
2064,2037,2024,2042,2064,2088,2059,2082
2063,2031,2009,2019,2046,2069,2046,2087
2054,2029,2014,2013,2025,2045,2030,2096
2065,2039,2038,2016,2014,2021,2025,2089
2064,2046,2039,2015,2020,2022,2026,2097
2065,2047,2032,2004,2011,2018,2023,2098
2053,2047,2035,2008,2012,2024,2036,2091
2053,2039,2040,2013,2010,2030,2048,2094
2057,2052,2060,2020,2011,2028,2031,2084
2061,2053,2088,2038,2012,2034,2030,2080
2062,2061,2094,2043,2014,2037,2025,2084
2064,2064,2085,2050,2028,2038,2042,2075
2059,2056,2068,2046,2029,2045,2048,2074
2062,2055,2067,2047,2036,2049,2051,2063
2064,2058,2066,2044,2042,2055,2060,2057
2064,2054,2075,2045,2055,2059,2058,2051
2070,2058,2075,2045,2057,2067,2054,2046
2067,2056,2062,2042,2049,2052,2033,2039
2070,2047,2042,2032,2033,2046,2036,2029
2062,2034,2038,2028,2021,2043,2052,2023
2056,2031,2042,2035,2018,2038,2044,2023
2055,2033,2042,2052,2018,2043,2049,2027
2049,2026,2046,2052,2026,2044,2032,2028
2057,2020,2053,2068,2029,2046,2025,2023
2065,2036,2072,2079,2026,2054,2046,2024
2063,2046,2088,2080,2027,2058,2028,2024
2061,2036,2085,2087,2020,2064,2041,2030
2060,2034,2080,2095,2044,2072,2041,2040
2055,2033,2078,2094,2067,2078,2043,2050
2064,2038,2083,2087,2056,2078,2065,2054
2062,2046,2064,2093,2052,2071,2065,2051
2055,2043,2045,2092,2068,2070,2041,2042
2054,2036,2034,2074,2066,2065,2041,2056
2048,2034,2032,2061,2048,2056,2031,2067
2044,2039,2038,2055,2055,2054,2053,2077
2050,2043,2033,2037,2037,2050,2045,2082
2046,2034,2035,2017,2029,2045,2054,2088
2054,2040,2032,1999,2011,2051,2056,2093
2062,2034,2035,1979,1995,2042,2049,2088
2050,2037,2043,1983,1975,2057,2028,2098
2055,2047,2063,1990,1973,2076,2037,2097
2065,2066,2082,1995,1976,2073,2031,2088
2065,2056,2068,1986,1957,2064,2007,2075
2056,2046,2051,1976,1967,2041,2015,2069
2057,2042,2050,1999,2018,2003,2035,2079
2066,2053,2059,2034,2086,2009,2045,2080
2068,2062,2069,2044,2096,2029,2042,2075
2073,2065,2082,2045,2086,2053,2062,2063
2071,2071,2081,2046,2079,2056,2060,2056
2066,2067,2084,2054,2069,2054,2050,2046
2058,2060,2081,2055,2055,2054,2049,2039
2059,2061,2073,2051,2025,2045,2061,2039
2055,2056,2063,2035,1999,2038,2064,2032
2052,2042,2051,2030,1981,2028,2024,2022
2051,2043,2046,2019,1970,2018,2052,2006
2044,2025,2041,2008,1969,2019,2026,1997
2040,2026,2039,2022,2007,2035,2051,2015
2064,2049,2057,2045,2044,2045,2068,2027
2070,2060,2059,2051,2069,2051,2064,2032
2071,2056,2060,2054,2084,2062,2056,2032
2069,2051,2053,2043,2078,2061,2052,2025
2054,2047,2049,2039,2068,2063,2063,2027
2057,2052,2057,2035,2050,2066,2070,2040
2052,2052,2048,2051,2082,2072,2064,2039
2048,2047,2044,2050,2113,2082,2072,2044
2046,2042,2041,2051,2118,2085,2064,2058
2045,2041,2032,2052,2120,2086,2065,2063
2051,2038,2028,2051,2117,2084,2064,2063
2051,2027,2014,2047,2090,2077,2072,2076
2044,2025,2018,2051,2086,2069,2043,2079
2040,2035,2030,2052,2086,2088,2054,2079
2047,2049,2048,2055,2075,2079,2052,2088
2043,2036,2034,2037,2051,2054,2046,2080
2038,2030,2034,2037,2053,2056,2043,2072
2038,2029,2039,2048,2039,2047,2039,2064
2025,2022,2044,2063,2041,2027,2031,2068
2035,2026,2054,2074,2038,2014,2045,2063
2041,2025,2049,2076,2041,2036,2031,2062
2050,2027,2050,2072,2044,2048,2031,2059
2041,2027,2042,2060,2036,2045,2013,2042
2038,2029,2034,2045,2012,2048,2044,2035
2040,2036,2045,2045,2006,2042,2038,2036
2054,2045,2043,2052,2007,2046,2055,2034
2060,2050,2044,2053,2017,2052,2060,2030
2065,2054,2042,2056,2031,2052,2056,2027
2066,2048,2037,2044,2030,2053,2043,2024
2064,2045,2022,2020,2019,2043,2044,2019
2062,2041,2008,2001,2019,2035,2041,2016
2054,2034,2003,1994,2012,2030,2031,2008
2045,2028,2009,2003,2018,2034,2032,2003
2040,2041,2025,2013,2033,2050,2052,2016
2049,2056,2043,2017,2038,2051,2041,2017
2052,2057,2056,2026,2043,2062,2037,2020
2048,2053,2069,2034,2030,2073,2057,2020
2047,2053,2067,2030,2014,2073,2065,2021
2046,2052,2077,2032,2010,2077,2057,2027
2049,2060,2083,2035,2011,2068,2054,2035
2050,2055,2084,2040,2017,2033,2054,2053
2061,2060,2084,2054,2049,2004,2058,2066
2065,2069,2092,2067,2069,2022,2066,2073
2066,2067,2086,2065,2077,2041,2073,2078
2055,2063,2082,2059,2087,2055,2074,2086
2051,2058,2071,2060,2078,2061,2056,2091
2051,2054,2064,2051,2065,2057,2060,2093
2052,2054,2059,2047,2058,2058,2047,2098
2047,2043,2050,2039,2042,2052,2037,2092
2033,2032,2045,2037,2041,2051,2039,2095
2036,2041,2051,2042,2048,2061,2047,2097
2046,2052,2057,2046,2045,2070,2056,2096
2047,2052,2063,2046,2040,2071,2052,2085
2044,2053,2061,2043,2040,2067,2040,2074
2046,2049,2054,2043,2044,2066,2043,2068
2046,2041,2058,2040,2030,2064,2031,2061
2048,2044,2049,2044,2041,2055,2061,2044
2051,2041,2046,2036,2036,2049,2037,2039
2046,2036,2050,2038,2039,2049,2046,2028
2034,2033,2037,2032,2037,2047,2034,2025
2036,2032,2049,2030,2032,2049,2052,2026
2046,2044,2062,2042,2034,2054,2036,2025
2052,2053,2069,2050,2031,2054,2037,2020
2047,2050,2066,2052,2025,2053,2040,2011
2049,2045,2046,2042,2015,2049,2053,2004
2039,2024,2032,2035,2008,2041,2043,2009
2029,2027,2040,2043,2014,2045,2046,2008
2048,2050,2055,2047,2032,2055,2032,2008
2044,2046,2061,2051,2035,2058,2057,2015
2049,2058,2070,2055,2040,2066,2058,2030
2053,2064,2071,2062,2032,2065,2053,2035
2050,2062,2061,2062,2025,2058,2065,2035
2042,2052,2039,2063,2040,2056,2037,2040
2038,2040,2041,2065,2055,2050,2035,2038
2047,2046,2050,2075,2045,2046,2053,2050
2061,2052,2068,2082,2042,2051,2059,2052
2058,2053,2078,2089,2052,2052,2048,2056
2045,2046,2077,2076,2034,2054,2050,2069
2043,2043,2076,2082,2028,2059,2049,2080
2046,2046,2077,2094,2061,2065,2047,2084
2048,2049,2077,2102,2054,2063,2050,2087
2044,2055,2075,2102,2044,2053,2050,2090
2036,2039,2065,2089,2026,2051,2030,2086
2041,2038,2066,2083,2013,2054,2051,2089
2047,2048,2067,2084,2005,2056,2067,2082
2042,2041,2056,2079,2040,2050,2045,2081
2034,2046,2043,2063,2076,2041,2060,2071
2042,2041,2046,2050,2082,2055,2058,2061
2046,2043,2041,2040,2073,2052,2051,2058
2037,2031,2034,2024,2056,2045,2045,2051
2037,2031,2024,2020,2054,2044,2041,2042
2033,2036,2023,2018,2049,2050,2062,2035
2031,2033,2025,2013,2045,2052,2066,2029
2042,2032,2035,2007,2041,2051,2059,2023
2037,2029,2040,2015,2026,2056,2043,2029
2042,2043,2055,2024,2028,2061,2050,2019
2043,2051,2062,2026,2024,2050,2060,2017
2044,2046,2054,2022,2009,2051,2057,2027
2046,2037,2029,2008,1986,2043,2051,2010
2028,2026,2017,2003,1997,2049,2067,2013
2031,2023,2020,2018,2038,2064,2056,2016
2044,2039,2031,2031,2044,2064,2040,2012
2040,2044,2032,2027,2013,2048,2036,2010
2037,2043,2034,2030,2016,2044,2042,2016
2037,2040,2038,2031,2038,2036,2053,2031
2040,2039,2037,2033,2054,2030,2048,2039
2046,2041,2038,2029,2056,2023,2053,2039
2040,2037,2031,2027,2070,2030,2050,2043
2043,2038,2033,2034,2092,2047,2064,2045
2040,2048,2049,2046,2086,2045,2053,2055
2044,2066,2063,2054,2055,2040,2057,2065
2050,2063,2059,2052,2043,2038,2037,2072
2042,2054,2051,2054,2051,2035,2040,2072
2038,2041,2040,2045,2011,2039,2042,2071
2036,2046,2037,2032,1973,2034,2030,2071
2031,2040,2036,2018,1978,2018,2017,2074
2032,2040,2043,2017,1992,2019,2046,2089
2037,2050,2056,2031,2005,2020,2043,2090
2039,2054,2068,2035,2020,2032,2054,2089
2047,2059,2077,2044,2040,2043,2036,2082
2043,2061,2070,2045,2052,2051,2039,2072
2047,2060,2063,2050,2064,2052,2039,2060
2041,2047,2054,2048,2050,2062,2055,2053
2036,2044,2044,2042,2042,2064,2051,2039
2040,2041,2045,2040,2039,2067,2058,2039
2040,2039,2050,2032,2026,2070,2069,2038
2040,2034,2041,2027,2037,2076,2071,2026
2038,2036,2033,2030,2040,2078,2056,2022
2037,2036,2023,2025,2047,2080,2046,2024
2050,2036,2021,2029,2049,2086,2042,2015
2049,2038,2030,2036,2047,2095,2039,2014
2052,2042,2035,2034,2038,2087,2032,1999
2041,2035,2029,2033,2018,2058,2035,1995
2038,2032,2024,2041,2022,2015,2069,2005
2054,2040,2047,2071,2042,2014,2059,2012
2054,2039,2056,2092,2052,2024,2062,2013
2042,2040,2055,2100,2071,2036,2037,2016
2038,2035,2049,2099,2084,2054,2030,2015
2042,2042,2060,2111,2083,2068,2048,2021
2039,2053,2076,2110,2078,2082,2047,2013
2048,2050,2079,2109,2067,2076,2047,2020
2053,2069,2081,2105,2068,2073,2057,2036
2058,2075,2081,2106,2054,2047,2052,2053
2065,2074,2068,2096,2026,2031,2023,2065
2055,2066,2057,2077,2009,2027,2054,2078
2052,2068,2060,2060,1964,2028,2063,2086
2058,2066,2054,2038,1977,2032,2075,2087
2052,2060,2036,2018,2001,2042,2069,2090
2050,2050,2019,1999,2000,2031,2031,2080
2036,2028,1998,1982,1998,2037,2031,2082
2040,2020,1992,1980,1986,2044,2043,2081
2047,2037,2001,1982,1985,2060,2048,2065
2047,2034,2004,1988,2004,2074,2058,2062
2046,2040,2015,1992,2003,2086,2049,2048
2040,2043,2020,1983,1967,2065,2016,2041
2033,2038,2016,1963,1949,2035,2002,2028
2028,2030,2013,1956,1928,2022,1993,2024
2023,2022,2018,1965,1939,1985,1984,2025
2024,2039,2050,2000,1993,1935,2031,2036
2042,2048,2085,2035,2066,1953,2031,2040
2047,2060,2094,2053,2110,2023,2060,2039
2051,2053,2080,2059,2112,2070,2070,2030
2050,2051,2059,2061,2112,2091,2064,2024
2049,2040,2054,2049,2085,2090,2058,2016
2053,2041,2046,2035,2049,2064,2061,2010
2047,2033,2044,2035,2017,1991,2048,2012
2045,2026,2047,2035,2018,1966,2016,2010
2046,2025,2045,2041,2035,2013,2039,2018
2047,2034,2046,2064,2069,2055,2042,2020
2056,2040,2046,2065,2074,2058,2044,2010
2050,2034,2032,2054,2055,2055,2030,2004
2040,2022,2029,2049,2050,2058,2040,2005
2028,2018,2036,2045,2047,2052,2034,2005
2028,2023,2051,2052,2044,2043,2042,2020
2029,2032,2062,2064,2035,2046,2047,2029
2028,2033,2053,2058,2037,2052,2048,2038
2032,2018,2028,2047,2028,2050,2052,2043
2021,2017,2009,2038,2027,2052,2058,2050
2025,2012,1998,2030,2053,2050,2064,2057
2026,2022,2013,2039,2087,2055,2062,2070
2044,2050,2037,2060,2104,2055,2046,2084
2053,2056,2044,2050,2080,2050,2039,2086
2049,2042,2031,2037,2035,2031,2020,2078
2052,2036,2023,2019,2020,2021,2025,2078
2058,2039,2024,2025,2020,2024,2028,2079
2055,2042,2034,2034,2028,2037,2033,2077
2051,2042,2052,2045,2045,2044,2029,2072
2044,2044,2067,2043,2055,2052,2044,2069
2044,2055,2071,2039,2047,2056,2054,2062
2050,2057,2072,2041,2030,2052,2036,2052
2050,2062,2069,2040,2023,2058,2031,2056
2051,2061,2067,2034,2029,2053,2031,2045
2059,2056,2067,2042,2052,2053,2035,2041
2058,2060,2067,2031,2058,2052,2058,2033
2051,2054,2056,2027,2043,2041,2044,2020
2050,2049,2052,2031,2047,2042,2050,2009
2054,2047,2055,2043,2056,2051,2052,2007
2057,2061,2065,2048,2062,2055,2038,2007
2065,2061,2068,2047,2057,2055,2043,2002
2050,2051,2055,2038,2053,2046,2045,2004
2047,2048,2060,2040,2058,2054,2060,2007
2052,2058,2060,2050,2063,2054,2058,2013
2054,2057,2065,2054,2057,2058,2048,2014
2054,2064,2062,2054,2056,2056,2038,2019
2053,2064,2055,2046,2049,2053,2056,2024
2055,2059,2050,2049,2050,2051,2067,2028
2056,2061,2055,2053,2054,2055,2058,2030
2053,2058,2045,2050,2054,2060,2065,2038
2058,2060,2045,2045,2056,2058,2046,2040
2053,2052,2037,2039,2058,2053,2044,2052
2047,2045,2030,2032,2053,2048,2053,2054
2052,2044,2030,2028,2051,2043,2051,2064
2045,2035,2024,2024,2052,2047,2047,2070
2046,2035,2019,2023,2043,2045,2035,2078
2042,2042,2034,2030,2061,2052,2053,2079
2039,2045,2059,2028,2069,2052,2039,2081
2034,2040,2064,2031,2051,2045,2039,2081
2034,2038,2065,2029,2036,2045,2040,2079
2040,2042,2057,2030,2023,2036,2030,2079
2041,2037,2039,2025,2020,2034,2036,2070
2036,2031,2034,2030,2025,2040,2048,2059
2037,2041,2040,2036,2032,2037,2036,2058
2050,2056,2056,2040,2029,2043,2043,2053
2051,2054,2058,2033,2029,2050,2033,2043
2053,2056,2057,2030,2028,2049,2038,2031
2050,2057,2050,2036,2027,2055,2010,2016
2045,2052,2050,2032,2031,2053,2019,2014
2049,2057,2041,2041,2038,2032,2017,2021
2057,2053,2046,2057,2050,2016,2039,2033
2060,2049,2046,2064,2057,2029,2034,2013
2058,2048,2041,2058,2056,2048,2046,2001
2053,2047,2046,2052,2043,2048,2052,1995
2048,2038,2027,2047,2027,2046,2038,1997
2042,2032,2026,2044,2029,2050,2026,2004
2048,2038,2034,2047,2039,2060,2063,2010
2055,2050,2042,2048,2036,2057,2053,2009
2055,2049,2037,2042,2033,2055,2053,2013
2050,2044,2034,2045,2025,2048,2050,2010
2054,2048,2032,2048,2020,2042,2046,2012
2053,2040,2029,2040,2025,2034,2045,2016
2036,2039,2031,2035,2025,2033,2045,2020
2039,2040,2043,2038,2054,2051,2052,2032
2051,2045,2053,2046,2092,2059,2052,2041
2050,2050,2059,2041,2076,2053,2031,2049
2050,2047,2059,2041,2064,2049,2068,2056
2046,2043,2052,2039,2056,2046,2049,2064
2036,2036,2060,2042,2048,2044,2031,2071
2036,2038,2064,2050,2053,2053,2043,2070
2041,2043,2057,2048,2059,2051,2037,2071
2031,2031,2042,2035,2046,2043,2043,2069
2030,2032,2042,2040,2041,2044,2060,2071
2041,2047,2058,2043,2043,2044,2057,2071
2040,2047,2063,2032,2040,2043,2043,2067
2039,2053,2065,2036,2031,2039,2042,2063
2046,2051,2069,2041,2030,2043,2029,2062
2050,2059,2073,2048,2031,2045,2025,2060
2062,2071,2069,2049,2039,2048,2032,2047
2061,2066,2061,2053,2062,2048,2047,2039
2053,2064,2061,2051,2073,2051,2032,2031
2055,2059,2048,2048,2072,2053,2030,2020
2050,2056,2051,2037,2061,2045,2038,2017
2042,2048,2046,2029,2056,2048,2046,2012
2044,2048,2052,2031,2061,2053,2052,2008
2045,2053,2056,2037,2078,2047,2044,2003
2043,2052,2047,2047,2081,2047,2027,2013
2039,2048,2041,2043,2074,2044,2037,2003
2036,2026,2022,2035,2060,2046,2031,2006
2033,2029,2016,2038,2034,2058,2045,2005
2032,2036,2010,2030,2022,2056,2049,2004
2037,2035,2007,2026,2035,2054,2046,2011
2041,2039,2011,2029,2041,2056,2055,2004
2040,2040,2014,2043,2026,2051,2053,2019
2039,2038,2018,2039,2017,2052,2050,2011
2036,2036,2018,2026,2009,2045,2038,2020
2032,2037,2020,2023,1989,2043,2037,2026
2037,2035,2028,2025,1985,2039,2059,2031
2044,2037,2024,2032,2010,2048,2054,2046
2048,2039,2032,2041,2049,2046,2037,2058
2050,2037,2038,2048,2084,2049,2049,2066
2045,2046,2050,2053,2079,2052,2062,2067
2038,2035,2047,2047,2068,2047,2034,2070
2037,2022,2044,2046,2057,2046,2047,2068
2035,2031,2048,2039,2045,2042,2018,2071
2030,2035,2053,2038,2053,2041,2028,2076
2030,2045,2065,2042,2059,2052,2050,2079
2033,2053,2065,2039,2053,2058,2055,2078
2041,2057,2058,2028,2052,2059,2044,2073
2044,2052,2055,2027,2050,2058,2056,2066
2045,2060,2059,2028,2044,2055,2040,2060
2043,2063,2076,2032,2043,2045,2049,2051
2046,2067,2084,2034,2040,2040,2022,2040
2048,2059,2080,2034,2037,2040,2022,2032
2048,2052,2063,2028,2027,2031,2012,2026
2044,2045,2059,2024,2031,2027,2023,2016
2040,2040,2051,2029,2034,2022,2037,2009
2031,2028,2053,2023,2038,2025,2034,2007
2032,2040,2067,2039,2047,2029,2034,1998
2033,2047,2070,2045,2048,2040,2041,2008
2041,2051,2064,2047,2050,2044,2033,1999
2033,2038,2052,2031,2040,2035,2028,1992
2027,2021,2030,2014,2037,2042,2048,2000
2041,2039,2042,2024,2046,2051,2060,2007
2041,2031,2037,2028,2049,2054,2056,2007
2039,2030,2048,2036,2048,2058,2057,2012
2046,2036,2047,2038,2048,2060,2049,2015
2047,2042,2036,2039,2054,2058,2065,2020
2047,2038,2031,2036,2055,2053,2066,2025
2045,2037,2029,2030,2055,2054,2068,2030
2043,2033,2029,2027,2051,2049,2065,2037
2047,2038,2032,2031,2045,2050,2068,2046
2047,2039,2029,2031,2051,2053,2072,2045
2042,2028,2021,2028,2050,2055,2076,2060
2034,2024,2015,2026,2046,2051,2065,2066
2032,2028,2018,2028,2044,2049,2060,2064
2036,2021,2019,2027,2046,2046,2066,2068
2033,2022,2021,2027,2043,2040,2054,2066
2024,2009,2022,2025,2058,2043,2050,2069
2025,2005,2012,2024,2059,2048,2052,2077
2040,2025,2031,2037,2054,2048,2060,2076
2046,2044,2050,2045,2051,2056,2073,2078
2042,2044,2053,2049,2054,2047,2058,2065
2039,2032,2052,2037,2045,2046,2046,2057
2030,2032,2050,2040,2037,2045,2059,2051
2036,2026,2049,2042,2041,2040,2059,2037
2041,2029,2055,2040,2047,2048,2046,2030
2044,2031,2053,2047,2058,2048,2044,2032
2043,2030,2048,2062,2074,2052,2042,2026
2046,2028,2040,2060,2062,2061,2049,2017
2045,2028,2036,2057,2059,2068,2051,2012
2042,2019,2021,2056,2061,2074,2077,2012
2037,2020,2015,2052,2058,2076,2066,2001
2035,2019,2012,2045,2043,2066,2060,1993
2032,2021,2002,2038,2031,2052,2049,1987
2030,2008,2000,2037,2040,2051,2053,1990
2038,2011,2012,2044,2055,2054,2065,2004
2045,2030,2026,2052,2056,2030,2054,2018
2049,2034,2042,2048,2055,2032,2057,2009
2049,2035,2038,2036,2058,2035,2051,2001
2045,2037,2033,2030,2061,2046,2067,2013
2053,2053,2060,2042,2068,2045,2068,2020
2063,2071,2079,2051,2071,2040,2066,2030
2058,2070,2083,2043,2064,2036,2060,2039
2057,2073,2089,2051,2077,2034,2064,2045
2057,2085,2119,2056,2068,2029,2062,2053
2059,2090,2131,2067,2057,2018,2062,2055
2053,2088,2130,2061,2023,1996,2053,2070
2054,2084,2111,2057,2009,1997,2049,2081
2051,2081,2099,2053,2020,2010,2066,2094
2054,2073,2083,2045,2019,2011,2062,2076
2038,2052,2065,2030,2015,2005,2042,2080
2035,2051,2061,2039,1990,2009,2060,2082
2042,2056,2069,2047,2056,2025,2068,2091
2050,2057,2067,2048,2102,2042,2051,2081
2057,2058,2066,2052,2103,2049,2053,2079
2062,2053,2061,2059,2119,2058,2062,2070
2051,2046,2053,2058,2112,2060,2043,2059
2056,2049,2056,2054,2099,2064,2042,2052
2057,2055,2049,2056,2088,2064,2041,2045
2054,2043,2047,2061,2069,2070,2044,2032
2045,2040,2044,2056,2041,2063,2049,2034
2044,2033,2033,2047,2004,2049,2056,2029
2049,2034,2025,2047,1947,2046,2046,2026
2050,2034,2023,2036,1905,2042,2052,2024
2052,2031,2019,2030,1932,2044,2052,2017
2047,2030,2021,2036,1971,2049,2042,2006
2047,2022,2036,2040,1999,2036,2031,1989
2028,2007,2023,2026,1996,2023,2023,1989
2024,2007,2019,2031,1994,2033,2040,1993
2042,2024,2026,2049,2036,2051,2052,1997
2046,2025,2028,2054,2078,2082,2064,2001
2045,2031,2028,2054,2089,2087,2056,2005
2040,2030,2025,2044,2090,2095,2046,2010
2038,2029,2016,2035,2080,2080,2042,2016
2043,2021,2019,2023,2064,2047,2010,2020
2043,2027,2028,2010,2010,2002,2021,2026
2037,2022,2033,1993,1969,2014,2027,2039
2043,2027,2038,1997,1983,2026,2044,2051
2042,2035,2051,2021,2019,2044,2040,2056
2047,2056,2078,2043,2055,2067,2046,2059
2047,2064,2078,2053,2080,2065,2035,2073
2052,2059,2064,2050,2086,2056,2045,2079
2055,2064,2066,2052,2078,2040,2057,2086
2060,2062,2075,2044,2052,2027,2026,2081
2043,2049,2071,2039,2042,2018,2032,2078
2038,2047,2072,2047,2041,2031,2029,2075
2037,2049,2070,2030,2050,2037,2034,2076
2040,2040,2057,2048,2065,2048,2038,2069
2046,2055,2065,2060,2082,2051,2034,2060
2060,2059,2059,2063,2072,2058,2036,2061
2063,2053,2053,2061,2058,2059,2040,2056
2067,2054,2053,2055,2032,2035,2022,2050
2060,2048,2049,2047,2017,2015,2039,2030
2053,2040,2039,2053,2025,2020,2028,2026
2048,2037,2037,2047,2030,2027,2026,2020
2044,2040,2049,2049,2038,2029,2029,2010
2039,2038,2049,2053,2040,2032,2024,1998
2041,2034,2046,2054,2042,2038,2033,1998
2039,2035,2043,2054,2042,2042,2051,2012
2034,2039,2038,2047,2034,2045,2052,2015
2036,2035,2033,2041,2033,2043,2029,2015
2037,2034,2035,2045,2034,2039,2035,2002
2042,2034,2051,2060,2042,2058,2031,2008
2039,2036,2063,2056,2038,2076,2031,2003
2040,2036,2062,2053,2025,2072,2023,2002
2034,2031,2062,2046,2010,2073,2049,2000
2040,2036,2064,2058,2010,2069,2062,2018
2042,2039,2066,2062,2028,2052,2065,2024
2056,2049,2064,2075,2054,2031,2060,2031
2055,2056,2069,2081,2079,2061,2071,2039
2053,2055,2064,2079,2088,2082,2049,2046
2050,2044,2062,2085,2088,2106,2062,2053
2044,2034,2051,2078,2072,2103,2060,2056
2037,2031,2049,2078,2062,2061,2048,2058
2045,2041,2049,2067,2058,2014,2025,2075
