CH1,CH2,CH3,CH4,CH5,CH6,CH7,CH8
2044,2043,2039,2036,2043,2051,2060,2052
2047,2050,2034,2039,2046,2049,2062,2050
2049,2053,2031,2047,2041,2053,2062,2041
2051,2057,2033,2051,2045,2047,2050,2040
2048,2050,2038,2047,2047,2051,2069,2031
2051,2049,2031,2049,2051,2046,2042,2028
2053,2051,2033,2050,2046,2055,2033,2021
2047,2038,2030,2043,2047,2060,2050,2020
2048,2041,2033,2048,2041,2064,2059,2021
2045,2046,2031,2053,2039,2061,2044,2016
2050,2045,2040,2057,2030,2052,2045,2012
2045,2041,2043,2062,2024,2046,2056,2009
2043,2030,2041,2057,2023,2038,2034,2008
2045,2029,2040,2056,2019,2043,2049,2014
2052,2037,2045,2056,2026,2042,2054,2011
2050,2038,2052,2052,2024,2040,2051,2013
2052,2041,2062,2056,2031,2038,2024,2020
2048,2044,2057,2053,2027,2042,2033,2025
2047,2041,2044,2049,2029,2041,2033,2028
2045,2044,2040,2043,2032,2045,2057,2029
2050,2038,2031,2038,2046,2050,2067,2040
2040,2038,2013,2040,2052,2056,2061,2044
2043,2026,2001,2036,2062,2056,2061,2052
2039,2023,2000,2034,2064,2054,2057,2052
2040,2032,2015,2032,2055,2053,2043,2062
2044,2044,2038,2034,2049,2046,2051,2070
2047,2055,2060,2037,2051,2046,2043,2080
2053,2058,2072,2036,2047,2050,2062,2077
2050,2061,2077,2028,2039,2033,2040,2069
2035,2043,2068,2022,2026,2032,2035,2067
2029,2036,2062,2028,2026,2037,2037,2071
2036,2056,2077,2027,2030,2038,2036,2064
2040,2070,2086,2036,2026,2039,2049,2062
2044,2068,2086,2043,2036,2045,2046,2059
2049,2063,2078,2036,2041,2049,2047,2059
2046,2060,2070,2036,2043,2044,2031,2044
2038,2054,2063,2039,2034,2046,2039,2035
2037,2054,2055,2039,2034,2042,2023,2031
2040,2052,2056,2039,2039,2037,2029,2028
2034,2051,2051,2044,2033,2030,2026,2027
2036,2047,2056,2050,2040,2025,2012,2026
2034,2047,2053,2046,2047,2028,2038,2028
2040,2052,2050,2044,2044,2028,2043,2022
2037,2047,2049,2048,2043,2038,2044,2018
2037,2040,2065,2060,2045,2043,2049,2023
2036,2039,2070,2064,2041,2042,2057,2013
2029,2033,2061,2066,2033,2051,2045,2015
2024,2037,2060,2071,2043,2064,2056,2020
2029,2036,2052,2073,2040,2068,2056,2016
2025,2033,2045,2075,2040,2063,2052,2027
2037,2036,2034,2067,2041,2067,2065,2037
2035,2029,2019,2067,2046,2062,2052,2040
2029,2027,2009,2060,2044,2059,2060,2040
2035,2030,2011,2062,2046,2059,2059,2040
2033,2031,2010,2060,2044,2064,2057,2039
2031,2035,2007,2064,2041,2067,2053,2053
2038,2047,2022,2064,2052,2067,2053,2059
2042,2042,2018,2057,2039,2061,2050,2063
2033,2038,2019,2041,2043,2062,2055,2063
2030,2036,2023,2032,2038,2069,2056,2065
2022,2031,2017,2019,2038,2063,2053,2070
2030,2038,2022,2015,2035,2059,2037,2072
2034,2040,2034,2012,2034,2052,2028,2068
2036,2051,2054,2024,2039,2048,2047,2072
2045,2066,2063,2036,2042,2055,2058,2070
2049,2071,2056,2040,2039,2054,2058,2061
2035,2056,2055,2047,2047,2056,2058,2057
2039,2050,2055,2043,2053,2050,2062,2059
2041,2053,2057,2044,2050,2049,2050,2047
2040,2047,2047,2048,2049,2048,2042,2043
2038,2046,2041,2040,2040,2045,2056,2039
2038,2042,2039,2055,2029,2042,2034,2031
2042,2053,2065,2068,2026,2036,2033,2032
2053,2072,2086,2077,2024,2044,2034,2029
2047,2076,2095,2077,2026,2043,2032,2025
2038,2059,2088,2068,2016,2031,2031,2017
2035,2043,2064,2069,2019,2034,2032,2017
2031,2041,2056,2075,2030,2034,2038,2012
2034,2045,2062,2082,2037,2036,2024,2014
2027,2044,2060,2082,2034,2039,2054,2011
2033,2052,2065,2089,2042,2038,2048,2019
2052,2063,2078,2091,2043,2048,2049,2025
2053,2065,2072,2085,2046,2052,2051,2032
2047,2060,2060,2083,2036,2052,2043,2028
2041,2054,2040,2056,2029,2045,2048,2034
2041,2044,2020,2034,2017,2037,2031,2034
2035,2032,2008,2005,2013,2036,2034,2038
2043,2044,2017,2003,2021,2039,2044,2043
2046,2053,2043,2016,2024,2041,2046,2049
2048,2063,2046,2023,2034,2044,2031,2059
2043,2064,2045,2024,2045,2049,2051,2063
2051,2072,2031,2025,2055,2060,2036,2070
2050,2070,2043,2034,2062,2058,2038,2074
2051,2072,2051,2047,2068,2056,2062,2079
2050,2072,2056,2052,2059,2056,2053,2079
2047,2069,2047,2048,2045,2047,2025,2074
2039,2049,2030,2037,2036,2041,2019,2078
2042,2049,2038,2045,2038,2046,2033,2075
2051,2061,2055,2056,2028,2042,2037,2072
2049,2065,2070,2055,2026,2039,2037,2065
2044,2062,2075,2059,2031,2043,2023,2051
2047,2056,2081,2061,2033,2042,2034,2046
2039,2055,2084,2062,2034,2047,2047,2040
2047,2064,2083,2063,2037,2053,2048,2033
2046,2054,2087,2062,2042,2060,2044,2036
2053,2055,2077,2067,2045,2056,2051,2028
2050,2055,2076,2066,2047,2055,2045,2027
2047,2051,2058,2067,2057,2053,2025,2030
2042,2053,2047,2060,2061,2056,2039,2020
2045,2051,2031,2064,2052,2053,2043,2018
2045,2057,2028,2072,2045,2057,2052,2024
2045,2048,2030,2070,2044,2054,2031,2016
2033,2036,2003,2060,2042,2043,2033,2009
2033,2036,2002,2066,2039,2051,2025,2014
2043,2043,2003,2067,2045,2055,2021,2020
2039,2045,2005,2057,2049,2054,2041,2021
2037,2040,2014,2055,2045,2056,2046,2022
2033,2049,2036,2061,2045,2054,2045,2024
2042,2052,2077,2072,2047,2051,2052,2026
2038,2063,2077,2071,2055,2047,2046,2035
2038,2053,2072,2069,2056,2047,2035,2029
2031,2048,2056,2064,2060,2045,2043,2036
2034,2049,2046,2058,2064,2055,2053,2041
2036,2042,2042,2049,2047,2049,2025,2048
2035,2034,2033,2040,2050,2046,2034,2055
2034,2032,2030,2043,2090,2040,2029,2072
2027,2038,2027,2031,2109,2047,2036,2072
2031,2033,2033,2036,2113,2055,2036,2076
2033,2037,2026,2030,2100,2047,2031,2072
2033,2042,2033,2027,2089,2040,2044,2083
2037,2053,2043,2034,2091,2049,2055,2081
2042,2055,2054,2031,2089,2052,2061,2071
2043,2052,2062,2021,2073,2049,2067,2070
2039,2045,2058,2014,2050,2047,2038,2063
2042,2058,2068,2019,1993,2041,2051,2060
2054,2067,2081,2021,1903,2034,2030,2053
2050,2066,2087,2027,1936,2038,2042,2048
2051,2065,2078,2037,1971,2044,2053,2044
2051,2061,2071,2052,1998,2052,2044,2037
2048,2060,2071,2058,2021,2057,2040,2026
2050,2059,2061,2061,2048,2059,2041,2025
2051,2057,2054,2064,2049,2050,2023,2026
2048,2054,2054,2070,2032,2043,2037,2034
2046,2054,2067,2067,2021,2039,2047,2027
2048,2057,2063,2058,2017,2036,2040,2017
2032,2039,2047,2048,2018,2037,2036,2017
2037,2038,2048,2055,2032,2043,2056,2024
2045,2052,2052,2055,2031,2042,2053,2028
2046,2055,2060,2061,2039,2047,2044,2035
2049,2060,2058,2061,2042,2051,2045,2033
2052,2058,2052,2057,2027,2051,2051,2038
2047,2058,2040,2064,2036,2055,2052,2047
2046,2050,2049,2064,2030,2060,2036,2048
2047,2058,2057,2066,2032,2062,2064,2055
2047,2063,2057,2063,2040,2059,2054,2063
2047,2066,2059,2056,2025,2051,2053,2069
2050,2061,2054,2051,2018,2048,2062,2066
2047,2059,2050,2040,2017,2042,2042,2068
2041,2052,2046,2033,2022,2049,2047,2069
2042,2051,2051,2039,2040,2055,2061,2073
2038,2056,2059,2041,2039,2041,2033,2067
2041,2044,2054,2046,2040,2038,2034,2075
2038,2040,2052,2063,2053,2053,2052,2079
2042,2053,2060,2065,2055,2049,2044,2077
2041,2057,2061,2082,2060,2043,2030,2076
2047,2059,2069,2089,2051,2056,2037,2074
2047,2055,2073,2090,2030,2069,2052,2063
2045,2049,2071,2091,2034,2075,2053,2059
2052,2051,2070,2086,2055,2082,2060,2047
2046,2054,2075,2098,2068,2092,2052,2045
2048,2058,2066,2093,2068,2085,2055,2037
2051,2056,2050,2081,2059,2079,2048,2035
2051,2053,2041,2088,2053,2055,2051,2032
2049,2046,2031,2083,2044,2001,2029,2024
2042,2047,2012,2082,2046,2004,2046,2021
2043,2047,2003,2075,2047,2023,2043,2014
2043,2033,1995,2067,2057,2034,2029,2009
2029,2026,1985,2057,2063,2039,2042,2006
2028,2027,1986,2057,2072,2047,2035,2020
2029,2039,2003,2061,2064,2044,2047,2026
2036,2043,2011,2056,2044,2030,2037,2036
2040,2051,2013,2052,2025,2012,2037,2038
2037,2048,2000,2041,1999,2002,2033,2033
2040,2044,2009,2030,1981,2009,2031,2035
2028,2037,2010,2008,2018,2044,2048,2031
2038,2040,2028,2013,2072,2071,2049,2037
2041,2049,2059,2027,2076,2070,2049,2049
2034,2042,2061,2013,2050,2060,2047,2054
2033,2040,2058,2002,2012,2042,2037,2065
2035,2048,2076,2008,1973,2013,2045,2077
2049,2053,2096,2018,1952,1992,2046,2082
2045,2051,2083,2020,1959,2001,2012,2074
2037,2042,2059,2018,1976,2025,2032,2080
2039,2042,2056,2031,1970,2026,2020,2075
2043,2044,2053,2039,2028,2051,2020,2081
2043,2056,2063,2068,2092,2089,2038,2083
2048,2063,2058,2075,2080,2087,2040,2075
2046,2061,2056,2059,2036,2071,2043,2065
2046,2059,2043,2046,2020,2071,2049,2070
2044,2048,2036,2042,2073,2069,2050,2064
2042,2045,2021,2034,2094,2068,2069,2055
2044,2046,2013,2023,2083,2077,2050,2047
2045,2045,2008,2028,2094,2092,2071,2043
2048,2049,1999,2028,2078,2083,2064,2038
2048,2044,1991,2020,2064,2069,2054,2033
2045,2035,1978,2011,2025,2036,2035,2028
2039,2026,1976,2013,2015,2026,2038,2025
2038,2025,1969,2025,2028,2034,2010,2022
2047,2034,1976,2036,2042,2049,2041,2026
2041,2036,1983,2040,2050,2043,2029,2013
2033,2027,1985,2035,2040,2043,2016,2011
2030,2022,1998,2027,2034,2041,2019,2020
2039,2032,2015,2032,2033,2021,2044,2017
2032,2027,2028,2041,2051,2035,2012,2016
2032,2032,2054,2064,2064,2056,2030,2019
2039,2046,2080,2100,2074,2045,2040,2035
2048,2058,2101,2115,2061,2046,2045,2044
2048,2067,2128,2109,2045,2042,2046,2044
2052,2076,2153,2120,2031,2029,2035,2053
2056,2080,2168,2136,2050,2017,2062,2057
2057,2087,2169,2154,2084,2017,2053,2065
2054,2082,2151,2145,2155,2017,2052,2062
2049,2073,2114,2137,2219,2044,2062,2067
2051,2061,2086,2140,2276,2073,2054,2071
2045,2054,2049,2141,2336,2097,2067,2072
2041,2046,2017,2137,2348,2106,2055,2076
2036,2029,1998,2109,2266,2097,2046,2066
2031,2028,1983,2069,2186,2086,2030,2074
2039,2030,1968,2035,2156,2081,2027,2079
2039,2031,1957,1992,2047,2061,2028,2069
2037,2030,1960,1944,1811,2054,2042,2058
2037,2037,1975,1931,1715,2074,2041,2059
2042,2052,1999,1953,1806,2092,2035,2050
2045,2058,2011,1969,1838,2084,2028,2048
2037,2055,2017,1985,1863,2064,2048,2045
2052,2055,2039,2006,1872,2040,2045,2046
2052,2063,2072,2020,1883,2018,2048,2050
2061,2091,2108,2045,1939,2013,2042,2039
2068,2100,2119,2056,1962,2016,2049,2038
2066,2088,2102,2040,2008,2023,2038,2033
2058,2073,2081,2027,2037,2043,2038,2035
2052,2065,2066,2013,2002,2026,2013,2031
2046,2054,2044,1989,1989,2000,2022,2023
2044,2042,2027,1978,2036,1991,2027,2017
2039,2040,2033,2012,2072,2010,2040,2026
2050,2050,2037,2026,2102,2010,2033,2027
2043,2042,2029,2023,2081,2002,2038,2027
2038,2031,2024,2029,2034,1997,2011,2023
2036,2023,2026,2021,1986,2003,2023,2028
2034,2035,2034,2041,2006,2023,2033,2032
2033,2044,2045,2070,2034,2041,2038,2051
2041,2039,2043,2066,2054,2058,2045,2056
2042,2037,2023,2062,2063,2076,2034,2056
2038,2035,2021,2059,2066,2074,2041,2061
2042,2040,2023,2073,2080,2068,2054,2062
2042,2042,2017,2069,2063,2054,2058,2071
2041,2040,2024,2073,2040,2040,2059,2071
2037,2036,2025,2062,2031,2019,2057,2074
2044,2032,2017,2057,2058,2025,2038,2071
2028,2022,2008,2050,2097,2025,2032,2071
2029,2017,2022,2047,2094,2034,2045,2081
2039,2038,2058,2067,2073,2037,2057,2076
2047,2047,2070,2075,2065,2033,2039,2068
2049,2059,2063,2061,2052,2035,2043,2065
2051,2054,2028,2043,2055,2034,2049,2056
2048,2043,2006,2043,2051,2056,2044,2046
2046,2042,2000,2050,2105,2069,2049,2035
2047,2042,2004,2053,2152,2072,2042,2026
2049,2040,2006,2054,2169,2055,2039,2026
2050,2051,2009,2041,2153,2047,2047,2030
2049,2045,2007,2040,2145,2010,2040,2029
2045,2035,2003,2024,2115,1998,2044,2028
2039,2029,1996,2003,2100,2017,2039,2019
2032,2021,1998,2002,2084,2027,2035,2012
2026,2020,2019,2021,2043,2028,2046,2014
2021,2028,2061,2018,1951,2017,2034,2011
2025,2040,2110,2010,1885,2000,2019,2020
2048,2074,2166,2044,1943,2010,2055,2050
2063,2093,2188,2086,2025,2058,2088,2057
2067,2096,2174,2111,2155,2114,2088,2061
2068,2091,2155,2136,2280,2157,2095,2063
2063,2079,2128,2127,2295,2163,2091,2058
2055,2080,2119,2115,2257,2152,2074,2064
2060,2080,2107,2106,2202,2136,2085,2063
2061,2072,2093,2074,2072,2102,2061,2064
2057,2063,2075,2033,1952,2042,2060,2073
2051,2049,2061,2014,1951,2004,2059,2067
2038,2044,2042,1990,1852,1968,2041,2064
2037,2034,2034,1982,1808,1970,2046,2062
2034,2033,2040,2001,1911,2004,2040,2068
2035,2031,2036,2006,1932,2036,2046,2058
2023,2027,2022,2020,1949,2037,2018,2050
2021,2012,2018,2025,2007,2043,2032,2052
2020,2021,2040,2049,2050,2061,2062,2066
2036,2039,2057,2046,2043,2041,2053,2065
2040,2041,2054,2033,2022,2018,2050,2060
2050,2040,2044,2022,2006,2007,2046,2063
2046,2047,2042,2022,1954,2000,2045,2054
2051,2052,2042,2016,1892,2006,2025,2053
2054,2070,2048,2027,1897,2017,2021,2059
2067,2076,2051,2056,1946,2035,2053,2061
2071,2086,2059,2079,2010,2062,2064,2062
2066,2078,2058,2082,2020,2080,2089,2045
2057,2066,2049,2069,2052,2099,2085,2040
2051,2058,2047,2074,2101,2104,2088,2043
2050,2055,2041,2070,2100,2074,2071,2042
2039,2042,2030,2044,2062,2050,2056,2036
2032,2033,2028,2059,2186,2057,2041,2026
2037,2036,2030,2083,2271,2061,2049,2021
2043,2033,2030,2098,2220,2037,2010,2012
2043,2037,2032,2077,2046,2008,2023,2015
2038,2043,2039,2080,2047,2014,2039,2019
2043,2048,2047,2097,2060,2033,2056,2033
2049,2056,2055,2081,2011,2050,2052,2036
2047,2048,2052,2050,1978,2035,2041,2033
2037,2043,2051,2033,1996,2024,2052,2031
2030,2044,2052,2031,2023,2031,2038,2036
2037,2042,2044,2043,2055,2055,2044,2042
2048,2038,2044,2043,2060,2057,2045,2056
2040,2038,2036,2031,2058,2057,2044,2049
2037,2035,2029,2001,2044,2044,2049,2050
2033,2043,2042,2013,2070,2028,2043,2071
2045,2059,2057,2040,2112,2057,2060,2086
2050,2064,2065,2047,2124,2082,2061,2089
2053,2059,2056,2029,2091,2081,2056,2086
2046,2050,2051,2032,2089,2090,2051,2077
2041,2054,2049,2027,2013,2073,2052,2072
2040,2059,2042,2025,2040,2058,2047,2061
2037,2046,2032,2043,2121,2066,2036,2058
2034,2042,2039,2068,2198,2073,2052,2059
2049,2054,2047,2068,2178,2060,2030,2053
2045,2059,2057,2060,2103,2036,2032,2047
2044,2050,2062,2041,2027,2016,2026,2035
2038,2055,2052,2028,1979,2002,2019,2022
2047,2059,2060,2034,1985,1996,2021,2024
2045,2060,2062,2028,1975,1998,2032,2025
2043,2049,2052,2030,1977,2004,2045,2023
2048,2048,2045,2037,2004,2014,2034,2021
2044,2044,2044,2035,2013,2029,2042,2016
2042,2050,2049,2047,2025,2037,2046,2020
2046,2048,2053,2059,2049,2047,2052,2015
2041,2037,2043,2057,2105,2062,2047,2015
2047,2039,2052,2076,2185,2093,2066,2028
2042,2058,2052,2086,2233,2107,2064,2037
2053,2060,2050,2099,2307,2116,2057,2044
2055,2060,2043,2102,2324,2118,2052,2041
2060,2060,2039,2091,2307,2120,2055,2044
2059,2057,2036,2087,2292,2124,2063,2036
2057,2057,2037,2086,2248,2120,2072,2041
2052,2043,2032,2080,2191,2086,2056,2049
2054,2040,2034,2042,1936,2050,2044,2057
2049,2047,2046,2024,1815,2019,2061,2063
2053,2053,2056,1998,1743,2001,2056,2069
2051,2044,2052,1977,1702,1998,2055,2068
2043,2036,2045,1957,1738,2022,2054,2065
2041,2041,2050,2005,1950,2079,2061,2078
2047,2047,2060,2048,2069,2095,2056,2070
2036,2040,2060,2055,2134,2089,2061,2070
2037,2048,2068,2052,2170,2079,2048,2069
2044,2060,2068,2048,2132,2054,2058,2069
2055,2061,2066,2035,2034,2040,2057,2068
2057,2059,2068,2024,2015,2034,2051,2064
2057,2059,2068,2029,2017,2032,2039,2045
2049,2057,2061,2019,1976,2010,2031,2038
2042,2048,2055,2022,1958,2008,2034,2032
2051,2053,2065,2027,1951,1996,2026,2033
2047,2053,2054,2014,1921,1992,2031,2025
2045,2050,2059,2023,1960,2009,2009,2023
2050,2046,2056,2047,2004,2016,2022,2024
2047,2051,2065,2060,2009,2014,2042,2025
2048,2052,2063,2066,2048,2028,2044,2017
2055,2054,2061,2065,2053,2044,2049,2011
2045,2055,2057,2063,2036,2039,2046,2018
2044,2050,2056,2057,2015,2023,2037,2014
2046,2046,2062,2052,1998,2011,2047,2026
2048,2054,2060,2051,1989,2016,2049,2023
2052,2053,2058,2058,2007,2034,2062,2029
2048,2043,2055,2068,2064,2058,2051,2034
2050,2047,2052,2074,2109,2067,2068,2034
2037,2048,2050,2075,2152,2075,2043,2034
2045,2044,2056,2075,2166,2079,2066,2041
2042,2038,2044,2083,2155,2080,2065,2047
2041,2040,2045,2089,2143,2076,2063,2054
2050,2052,2056,2088,2116,2072,2076,2064
2051,2055,2062,2086,2058,2059,2064,2066
2049,2045,2060,2063,1980,2032,2051,2063
2038,2039,2048,2027,1894,2016,2034,2061
2041,2036,2031,2002,1844,2020,2037,2066
2035,2034,2028,2012,1859,2015,2020,2065
2032,2030,2021,2011,1889,1983,2020,2063
2033,2042,2027,2033,2012,2004,2045,2077
2048,2054,2042,2066,2180,2064,2063,2077
2042,2053,2051,2084,2231,2114,2066,2078
2040,2054,2050,2081,2203,2137,2067,2072
2043,2055,2053,2061,2104,2115,2067,2053
2051,2054,2056,2042,2073,2072,2033,2050
2053,2057,2059,2043,2078,2030,2016,2046
2051,2059,2051,2042,2095,1998,2025,2051
2057,2055,2045,2054,2138,2010,2042,2035
2054,2055,2045,2050,2053,2012,2035,2028
2046,2053,2041,2040,1965,2003,2020,2023
2044,2043,2037,2045,2008,2019,2037,2023
2039,2047,2035,2041,2031,2027,2029,2027
2040,2037,2035,2039,2047,2031,2036,2025
2038,2041,2042,2040,2048,2016,2034,2020
2031,2031,2033,2016,1977,1991,2019,2019
2030,2022,2020,1983,1848,1970,2011,2013
2042,2033,2030,2009,1941,1988,2026,2022
2044,2041,2031,2022,1980,1996,2014,2016
2037,2042,2039,2018,1989,2005,2016,2024
2038,2042,2041,2021,2015,2030,2052,2034
2054,2055,2055,2044,2084,2052,2061,2049
2060,2072,2065,2054,2126,2080,2063,2054
2057,2074,2064,2040,2093,2085,2067,2049
2061,2072,2060,2033,2054,2080,2067,2066
2064,2070,2057,2035,2029,2071,2067,2073
2059,2068,2056,2026,1983,2051,2060,2073
2059,2060,2046,2024,1979,2048,2029,2076
2048,2052,2033,2038,2009,2065,2034,2080
2054,2052,2043,2049,2114,2085,2058,2085
2052,2045,2040,2072,2176,2091,2057,2085
2053,2051,2045,2091,2236,2101,2048,2082
2051,2053,2050,2087,2218,2091,2039,2088
2060,2063,2051,2093,2223,2096,2066,2085
2066,2065,2056,2102,2257,2099,2055,2081
2063,2064,2047,2090,2178,2071,2057,2069
2057,2055,2042,2042,1996,2023,2051,2056
2057,2052,2035,2016,1936,2020,2046,2052
2054,2047,2033,2004,1927,2023,2040,2036
2044,2033,2034,2010,1977,2022,2046,2025
2043,2034,2037,2019,2014,2024,2029,2025
2039,2038,2047,2030,1996,2020,2060,2029
2030,2040,2050,2006,1842,1999,2045,2023
2032,2047,2052,2018,1887,2005,2050,2023
2042,2061,2064,2050,1954,2015,2046,2022
2048,2066,2064,2055,2001,2013,2037,2017
2043,2061,2051,2048,2041,2039,2026,2006
2042,2046,2039,2048,2078,2064,2030,2008
2038,2037,2030,2046,2019,2060,2025,2001
2036,2036,2030,2020,1946,2058,2050,2006
2035,2036,2025,2006,1962,2057,2054,2015
2041,2037,2028,2032,2035,2064,2078,2032
2051,2050,2054,2074,2079,2082,2092,2044
2054,2044,2051,2055,2010,2060,2064,2038
2046,2034,2047,2034,1982,2036,2057,2037
2043,2034,2046,2040,2003,2052,2051,2035
2039,2045,2065,2082,2059,2088,2060,2039
2041,2047,2072,2112,2146,2112,2063,2047
2047,2042,2069,2121,2178,2107,2058,2052
2035,2035,2056,2106,2155,2102,2059,2068
2043,2035,2040,2096,2109,2107,2064,2078
2046,2039,2032,2093,2099,2088,2064,2076
2052,2032,2019,2080,2093,2038,2052,2073
2051,2033,2015,2076,2124,2034,2035,2064
2046,2027,2011,2083,2149,2048,2028,2071
2045,2036,2023,2083,2124,2068,2033,2066
2048,2042,2025,2064,2071,2064,2044,2054
2038,2037,2021,2030,2048,2053,2026,2039
2035,2039,2025,2011,2061,2054,2038,2037
2044,2056,2045,2002,2073,2036,2048,2038
2058,2065,2053,1992,2052,2019,2030,2034
2050,2057,2058,1981,2016,2008,2037,2035
2045,2057,2067,1979,1983,1996,2034,2025
2043,2055,2054,1977,1887,1978,2052,2032
2048,2051,2052,1998,1933,1995,2041,2028
2050,2052,2048,2023,2068,2028,2045,2036
2058,2044,2036,2041,2105,2040,2063,2032
2053,2026,2029,2037,2088,2044,2089,2044
2061,2024,2027,2034,2086,2052,2089,2039
2061,2027,2034,2041,2073,2048,2054,2008
2017,2014,2032,2043,2061,2033,2038,1978
1992,2020,2047,2040,2037,2020,2030,1973
2003,2038,2060,2044,2024,2018,2041,1992
2031,2043,2064,2043,2021,2032,2056,2015
2038,2051,2055,2043,2036,2037,2065,2030
2043,2046,2048,2046,2054,2035,2053,2037
2051,2049,2045,2047,2051,2025,2042,2040
2052,2057,2052,2055,2066,2040,2070,2050
2069,2075,2062,2067,2097,2051,2058,2056
2071,2094,2072,2077,2078,2050,2066,2054
2070,2085,2072,2068,2067,2047,2051,2064
2060,2074,2058,2064,2069,2046,2054,2061
2053,2064,2061,2062,2061,2044,2043,2068
2045,2067,2056,2057,2054,2050,2056,2070
2055,2062,2059,2055,2049,2049,2056,2080
2060,2060,2046,2057,2044,2043,2043,2072
2053,2047,2037,2056,2037,2045,2034,2069
2048,2042,2019,2054,2032,2047,2045,2070
2039,2037,2012,2051,2025,2033,2031,2054
2034,2032,2019,2045,2019,2036,2022,2044
2037,2040,2026,2039,1991,2043,2036,2029
2040,2054,2036,2044,2000,2049,2046,2036
2039,2051,2033,2049,2019,2056,2041,2047
2049,2051,2031,2052,2036,2058,2061,2036
2057,2050,2024,2051,2032,2058,2053,2030
2057,2049,2021,2043,2024,2055,2055,2029
2062,2049,2019,2047,2032,2066,2044,2025
2060,2045,2024,2044,2019,2047,2051,2023
2056,2045,2029,2045,2040,2030,2046,2007
2043,2041,2029,2052,2080,2031,2053,2008
2055,2050,2035,2066,2144,2046,2045,2013
2049,2052,2038,2065,2140,2050,2045,2011
2031,2040,2037,2064,2135,2060,2055,1997
2032,2050,2061,2083,2119,2072,2051,2008
2035,2046,2066,2077,2095,2059,2056,2013
2039,2049,2056,2075,2065,2043,2040,2022
2042,2045,2057,2088,2033,2049,2036,2028
2043,2045,2059,2111,2069,2062,2060,2045
2041,2058,2066,2129,2158,2081,2076,2068
2057,2066,2068,2117,2165,2093,2072,2078
2075,2066,2055,2086,2133,2086,2067,2073
2078,2063,2054,2065,2118,2074,2066,2076
2064,2054,2054,2070,2124,2060,2054,2069
2056,2054,2064,2069,2146,2065,2047,2060
2047,2055,2072,2076,2090,2048,2020,2053
2047,2046,2062,2058,2037,2024,2023,2048
2043,2037,2051,2046,1939,2019,2040,2065
2051,2037,2047,2041,1941,2016,2024,2069
2045,2033,2050,2045,1992,2011,2014,2057
2034,2046,2047,2029,1996,2005,2016,2042
2040,2058,2054,2022,2037,2029,2021,2043
2048,2052,2052,2042,2109,2060,2039,2047
2050,2056,2059,2046,2091,2077,2054,2045
2045,2057,2055,2040,2060,2080,2034,2046
2054,2056,2060,2032,2056,2060,2052,2049
2056,2054,2051,2032,2019,2057,2046,2053
2062,2057,2048,2045,2002,2045,2050,2046
2067,2051,2047,2052,2001,2042,2060,2029
2073,2044,2037,2044,1994,2033,2047,2017
2065,2046,2042,2038,1984,2031,2040,2001
2056,2037,2047,2060,1998,2024,2025,2001
2050,2049,2047,2102,2005,2034,2050,2005
2045,2055,2056,2128,2012,2053,2044,2015
2041,2058,2049,2128,2004,2042,2041,2003
2022,2051,2033,2120,2037,2036,2034,2003
2034,2061,2047,2131,2097,2058,2031,2016
2052,2072,2047,2124,2113,2056,2041,2027
2053,2068,2042,2110,2086,2052,2044,2034
2063,2069,2044,2094,2075,2051,2060,2037
2075,2065,2047,2075,2067,2052,2057,2039
2069,2062,2039,2055,2056,2056,2038,2042
2069,2058,2048,2050,2052,2059,2040,2040
2051,2055,2045,2038,2044,2053,2025,2020
2032,2060,2040,2022,2046,2045,2034,2033
2035,2062,2052,2013,2043,2047,2046,2064
2054,2074,2055,1997,2029,2045,2064,2084
2070,2058,2047,1997,2007,2037,2049,2091
2073,2058,2044,2018,2013,2039,2057,2096
2074,2058,2044,2055,2053,2044,2062,2103
2081,2050,2037,2050,2074,2039,2045,2085
2068,2050,2041,2041,2069,2045,2039,2060
2044,2053,2052,2034,2083,2054,2038,2044
2041,2050,2047,2019,2068,2044,2025,2040
2049,2043,2053,2013,2053,2058,2043,2059
2050,2029,2054,2034,2107,2075,2041,2052
2038,2026,2050,2043,2084,2060,2048,2050
2047,2038,2053,2031,1988,2056,2068,2049
2057,2053,2058,2037,2014,2063,2054,2037
2050,2058,2062,2041,2024,2061,2061,2041
2048,2058,2060,2044,2030,2059,2063,2039
2054,2059,2065,2052,2109,2074,2057,2017
2054,2056,2059,2065,2208,2083,2045,2002
2044,2062,2058,2068,2167,2072,2047,1999
2045,2050,2054,2059,2093,2041,2049,2015
2050,2037,2040,2041,2042,2010,2031,2024
2056,2030,2038,2036,2022,2008,2045,2027
2049,2029,2030,2041,2026,2015,2053,2015
2038,2027,2022,2016,1993,2024,2062,2006
2019,2027,2012,1995,1970,2028,2050,2005
2031,2041,2028,2016,2004,2044,2058,2015
2034,2050,2037,2052,2047,2058,2066,2022
2038,2052,2038,2051,2038,2050,2060,2027
2046,2051,2033,2053,2091,2059,2076,2042
2054,2054,2034,2054,2108,2063,2069,2047
2061,2065,2040,2055,2094,2054,2070,2053
2072,2062,2033,2055,2079,2061,2075,2051
2060,2048,2034,2048,2067,2059,2066,2045
2054,2039,2028,2044,2068,2057,2067,2044
2041,2030,2020,2034,2052,2067,2052,2053
2037,2030,2021,2029,2047,2084,2055,2052
2039,2038,2032,2039,2052,2079,2058,2058
2042,2041,2035,2041,2056,2056,2055,2049
2031,2031,2024,2033,2038,2030,2023,2053
2031,2042,2028,2044,2031,2038,2024,2057
2036,2047,2034,2042,2019,2040,2018,2045
2040,2051,2037,2037,2006,2048,2028,2046
2040,2047,2026,2030,2021,2045,2046,2032
2042,2042,2021,2037,2026,2046,2032,2024
2037,2040,2033,2052,2042,2047,2035,2022
2043,2039,2038,2054,2045,2047,2035,2008
2038,2036,2036,2049,2042,2049,2055,2005
2036,2029,2027,2053,2052,2048,2053,2003
2036,2028,2031,2050,2045,2038,2045,1996
2034,2034,2034,2059,2046,2040,2035,2003
2046,2040,2048,2063,2042,2049,2054,2007
2053,2051,2057,2066,2050,2048,2039,2014
2058,2053,2062,2067,2051,2046,2049,2014
2064,2062,2068,2066,2046,2040,2028,2008
2060,2067,2081,2067,2048,2047,2035,2005
2072,2068,2092,2074,2055,2052,2046,1997
2046,2056,2078,2065,2054,2050,2041,2011
2046,2060,2083,2060,2057,2055,2055,2028
2045,2064,2075,2059,2057,2062,2061,2030
2035,2068,2065,2054,2056,2072,2066,2030
2042,2073,2060,2053,2063,2076,2056,2047
2059,2078,2047,2045,2059,2075,2055,2052
2059,2067,2043,2041,2054,2064,2060,2049
2057,2055,2040,2034,2041,2045,2065,2050
2051,2060,2035,2025,2029,2034,2061,2048
2048,2059,2037,2020,2036,2037,2067,2059
2047,2064,2050,2026,2031,2030,2056,2066
2049,2061,2049,2032,2031,2032,2046,2066
2045,2060,2037,2025,2036,2045,2045,2065
2042,2047,2018,2016,2034,2052,2034,2063
2036,2035,2010,2017,2037,2052,2043,2062
2043,2042,2032,2046,2042,2049,2052,2063
2040,2038,2044,2057,2036,2046,2050,2058
2039,2044,2051,2063,2037,2054,2059,2052
2039,2034,2045,2066,2039,2051,2058,2039
2036,2036,2049,2064,2034,2045,2052,2031
2037,2033,2039,2065,2030,2043,2058,2024
2036,2028,2034,2060,2034,2043,2041,2022
2028,2030,2030,2063,2041,2048,2044,2015
2030,2032,2029,2066,2043,2050,2042,2009
2033,2044,2029,2064,2045,2048,2044,2014
2041,2047,2026,2064,2048,2044,2050,2009
2043,2051,2022,2060,2043,2046,2022,2001
2044,2050,2016,2051,2045,2038,2046,2007
2042,2051,2026,2048,2043,2041,2038,2009
2043,2058,2045,2042,2041,2046,2031,2013
2045,2060,2056,2029,2035,2051,2042,2006
2046,2076,2067,2024,2035,2054,2046,2013
2052,2073,2075,2025,2039,2059,2033,2018
2060,2081,2073,2020,2050,2067,2034,2023
2057,2082,2076,2029,2054,2068,2038,2022
2052,2080,2074,2040,2061,2062,2044,2023
2050,2077,2070,2048,2055,2052,2054,2027
2051,2070,2066,2048,2059,2050,2047,2027
2052,2075,2053,2046,2059,2049,2028,2041
2048,2067,2052,2044,2061,2045,2007,2034
2044,2059,2044,2037,2058,2048,2029,2044
2041,2054,2030,2032,2045,2048,2036,2049
2036,2052,2026,2026,2055,2048,2014,2054
2038,2049,2035,2028,2048,2049,2034,2064
2044,2054,2041,2032,2057,2052,2033,2058
2042,2056,2049,2037,2048,2043,2037,2059
2046,2052,2058,2042,2043,2046,2029,2071
2047,2066,2073,2058,2051,2061,2029,2067
2047,2064,2071,2060,2056,2083,2030,2063
2051,2056,2061,2062,2060,2089,2038,2057
2044,2050,2059,2064,2051,2087,2039,2047
2048,2048,2066,2061,2055,2071,2015,2036
2045,2049,2064,2063,2043,2016,2018,2020
2036,2045,2067,2068,2037,1991,2018,2014
2030,2042,2061,2066,2048,2003,2026,2009
2027,2044,2053,2070,2051,2023,2048,2012
2035,2043,2055,2074,2057,2038,2049,2020
2033,2044,2052,2068,2056,2039,2061,2021
2039,2045,2044,2064,2061,2036,2051,2012
2036,2048,2044,2060,2055,2034,2052,2019
2038,2048,2040,2043,2040,2024,2035,2017
2036,2040,2038,2033,2027,2016,2029,2012
2030,2044,2050,2036,2033,2021,2039,2017
2039,2066,2071,2041,2038,2024,2026,2020
2044,2075,2076,2042,2041,2028,2029,2016
2044,2072,2060,2037,2042,2040,2029,2022
2039,2065,2050,2046,2035,2046,2022,2028
2050,2066,2043,2037,2044,2060,2050,2021
2054,2063,2048,2037,2048,2060,2051,2037
2050,2057,2050,2035,2046,2055,2059,2038
2046,2070,2060,2039,2046,2053,2047,2039
2050,2062,2062,2038,2049,2052,2039,2047
2045,2056,2060,2033,2046,2051,2025,2054
2041,2058,2053,2034,2052,2054,2035,2054
2049,2060,2059,2031,2049,2056,2045,2061
2050,2055,2057,2039,2040,2054,2036,2063
2047,2053,2055,2034,2045,2048,2025,2065
2042,2045,2049,2024,2030,2038,2042,2064
2034,2039,2042,2021,2037,2037,2033,2060
2035,2042,2046,2028,2040,2044,2023,2059
2044,2046,2043,2026,2039,2046,2044,2056
2048,2047,2043,2028,2039,2048,2043,2053
2039,2049,2045,2035,2045,2053,2026,2036
2038,2046,2049,2032,2040,2052,2035,2039
2038,2049,2050,2038,2039,2054,2030,2036
2041,2050,2050,2037,2041,2057,2037,2030
2041,2050,2049,2036,2039,2069,2053,2027
2039,2044,2047,2037,2039,2073,2075,2026
2048,2045,2055,2040,2044,2066,2067,2029
2039,2043,2056,2045,2038,2064,2058,2011
2037,2043,2062,2048,2045,2058,2040,2020
2040,2050,2064,2047,2045,2053,2038,2018
2042,2049,2068,2046,2044,2045,2033,2019
2036,2045,2064,2041,2030,2036,2037,2010
2034,2042,2056,2039,2026,2029,2048,2016
2033,2044,2061,2041,2037,2045,2043,2023
2044,2046,2061,2042,2043,2052,2050,2026
2045,2047,2058,2039,2050,2054,2057,2018
2046,2046,2053,2042,2051,2052,2049,2016
2050,2051,2053,2048,2052,2051,2052,2025
2048,2048,2048,2044,2064,2047,2047,2026
2047,2046,2048,2047,2056,2043,2044,2032
2047,2041,2047,2046,2043,2040,2037,2046
2050,2048,2049,2049,2052,2038,2045,2048
2051,2050,2054,2053,2057,2044,2022,2058
2056,2049,2049,2056,2062,2051,2049,2060
2056,2044,2047,2046,2058,2045,2048,2061
2054,2042,2039,2048,2054,2032,2037,2061
2052,2045,2033,2047,2050,2034,2025,2057
2048,2038,2029,2038,2036,2035,2021,2048
2034,2030,2017,2026,2026,2029,2010,2057
2036,2027,2020,2026,2026,2024,2027,2062
2043,2041,2019,2034,2018,2014,2032,2057
2044,2033,2021,2036,2023,1985,2032,2062
2044,2038,2029,2052,2042,1979,2047,2053
2041,2040,2035,2058,2047,1991,2047,2046
2046,2036,2046,2060,2037,1999,2032,2038
2047,2038,2048,2057,2037,2011,2039,2031
2044,2041,2049,2057,2030,2015,2037,2032
2039,2038,2040,2053,2031,2011,2005,2023
2037,2036,2035,2056,2028,2019,2026,2017
2040,2037,2037,2049,2031,2026,2029,2029
2042,2038,2041,2058,2033,2028,2044,2029
2046,2044,2054,2062,2045,2043,2043,2019
2049,2058,2067,2078,2063,2047,2033,2018
2049,2067,2076,2079,2060,2044,2050,2009
2050,2065,2069,2073,2058,2047,2054,2011
2047,2064,2070,2074,2064,2056,2057,2023
2052,2068,2066,2070,2062,2072,2058,2020
2061,2061,2057,2062,2050,2092,2043,2029
2053,2060,2055,2054,2045,2082,2033,2029
2036,2047,2045,2042,2030,2050,2009,2019
2033,2043,2040,2029,2033,2029,2025,2028
2037,2041,2035,2030,2023,2028,2038,2039
2038,2033,2026,2023,2011,2025,2040,2039
2035,2029,2020,2011,1979,2016,2040,2048
2035,2028,2025,2008,1954,2004,2049,2048
2036,2038,2048,2013,1965,2014,2049,2048
2042,2054,2061,2023,1997,2028,2043,2058
2044,2059,2066,2040,2061,2056,2050,2073
2058,2061,2072,2064,2106,2070,2065,2081
2057,2064,2069,2070,2126,2072,2068,2074
2045,2048,2056,2065,2126,2090,2061,2073
2046,2045,2050,2057,2113,2090,2074,2070
2047,2053,2050,2047,2041,2075,2080,2058
2047,2052,2053,2044,2045,2061,2072,2055
2046,2051,2051,2045,2036,2059,2059,2050
2052,2055,2057,2048,2038,2067,2062,2049
2046,2054,2063,2042,2015,2058,2049,2044
2049,2056,2063,2034,2033,2069,2056,2043
2050,2051,2050,2034,2063,2062,2040,2038
2046,2051,2051,2027,2042,2038,2053,2028
2042,2045,2044,2021,2031,2034,2037,2021
2043,2040,2045,2038,2123,2069,2057,2029
2039,2039,2046,2053,2155,2085,2057,2026
2045,2041,2044,2046,2114,2084,2061,2019
2035,2036,2044,2040,2053,2070,2049,2019
2039,2036,2043,2018,1904,2051,2049,2009
2028,2022,2030,2012,1861,2040,2030,2012
2029,2018,2045,2020,1930,2032,2046,2018
2038,2035,2053,2040,1998,2025,2056,2026
2042,2039,2056,2060,2060,2045,2054,2028
2041,2045,2054,2062,2072,2066,2052,2024
2040,2045,2062,2070,2079,2072,2032,2023
2038,2042,2052,2053,2082,2082,2030,2020
2040,2034,2043,2045,2061,2103,2054,2029
2036,2036,2037,2037,2060,2090,2046,2025
2041,2040,2042,2041,2074,2089,2041,2038
2046,2047,2057,2056,2094,2076,2045,2045
2045,2045,2070,2068,2105,2044,2057,2068
2054,2050,2081,2070,2094,2046,2054,2075
2059,2058,2076,2074,2074,2067,2062,2080
2056,2060,2071,2068,2028,2086,2066,2077
2054,2058,2073,2054,1977,2084,2058,2063
2041,2043,2058,2047,1953,2076,2049,2065
2033,2037,2040,2028,1918,2032,2032,2058
2031,2035,2033,2020,1906,1991,2027,2054
2031,2036,2028,2020,1896,1957,2012,2056
2040,2038,2031,2015,1905,1968,2027,2051
2040,2037,2021,2011,1952,1989,2037,2044
2043,2040,2020,2022,2048,2032,2041,2039
2052,2054,2028,2046,2169,2072,2064,2031
2054,2057,2041,2054,2164,2079,2053,2032
2054,2065,2049,2056,2118,2061,2054,2025
2057,2065,2044,2049,2126,2056,2051,2021
2056,2058,2031,2038,2123,2042,2042,2025
2050,2057,2028,2032,2099,2033,2044,2022
2052,2051,2026,2025,2071,2045,2058,2019
2043,2048,2022,2023,2048,2050,2059,2014
2039,2045,2019,2021,2035,2041,2037,2013
2036,2042,2022,2025,2034,2042,2021,2013
2033,2047,2041,2038,2053,2042,2041,2022
2048,2054,2050,2040,2054,2067,2050,2024
2046,2058,2055,2045,2067,2084,2039,2028
2047,2059,2064,2050,2075,2082,2050,2028
2052,2059,2068,2062,2097,2076,2057,2033
2054,2063,2073,2068,2107,2093,2054,2042
2050,2057,2067,2068,2114,2095,2072,2052
2051,2058,2067,2074,2121,2084,2081,2054
2054,2057,2063,2079,2114,2080,2081,2065
2053,2057,2061,2074,2117,2062,2071,2067
2043,2051,2060,2076,2109,2041,2052,2070
2054,2057,2062,2069,2112,2027,2027,2072
2044,2052,2062,2059,2100,2021,2037,2069
2040,2050,2062,2047,2069,2025,2049,2061
2040,2044,2045,2037,2035,2036,2058,2063
2035,2036,2044,2027,2003,2052,2062,2067
2032,2046,2049,2013,1951,2075,2064,2060
2037,2040,2040,1986,1919,2099,2061,2058
2046,2049,2050,2018,2040,2118,2071,2080
2056,2064,2071,2066,2115,2131,2068,2075
2064,2066,2068,2077,2107,2151,2067,2061
2059,2064,2065,2079,2097,2096,2069,2049
2055,2062,2064,2067,2044,1997,2052,2044
2054,2057,2058,2052,2026,2031,2058,2037
2047,2051,2048,2046,2028,2075,2033,2032
2049,2051,2043,2043,2037,2026,2035,2030
2049,2054,2054,2052,2039,1973,2024,2024
2054,2062,2066,2066,2050,1992,2040,2022
2049,2061,2073,2069,2066,2021,2048,2027
2052,2059,2086,2077,2066,2027,2023,2020
2049,2053,2084,2075,2053,2022,2028,2010
2041,2042,2078,2073,2046,2019,2027,2009
2041,2044,2074,2074,2040,2026,2026,2013
2034,2049,2070,2073,2032,2029,2048,2025
2039,2053,2068,2071,2026,2025,2050,2021
2034,2046,2062,2057,1994,2010,2046,2021
2035,2036,2052,2063,2002,2019,2033,2032
2050,2047,2075,2093,2042,2043,2058,2043
2051,2049,2088,2104,2044,2050,2057,2038
2051,2051,2098,2111,2065,2060,2061,2055
2052,2057,2083,2102,2067,2064,2058,2061
2053,2046,2065,2083,2051,2054,2067,2065
2051,2040,2052,2062,2034,2055,2054,2061
2036,2019,2025,2041,2041,2053,2055,2065
2037,2018,2003,2019,2067,2061,2044,2069
2031,2019,1990,2014,2058,2069,2051,2071
2028,2011,1972,1998,2048,2067,2060,2076
2028,2004,1960,1999,2032,2063,2042,2079
2039,2020,1962,2002,2044,2066,2042,2080
2048,2022,1970,2012,2044,2051,2062,2065
2035,2025,1970,1996,1988,2027,2048,2058
2037,2033,1978,1987,2010,2034,2059,2055
2044,2042,1996,1996,2023,2033,2042,2044
2042,2039,1999,1999,2018,2024,2029,2034
2037,2042,2010,1999,2029,2023,2028,2035
2040,2037,2008,2006,2037,2033,2029,2032
2043,2041,2022,2024,2049,2041,2036,2026
2045,2040,2028,2028,2050,2042,2029,2029
2050,2032,2037,2028,2056,2032,2034,2028
2046,2031,2033,2031,2048,2018,2022,2032
2047,2049,2049,2031,2052,2013,2021,2035
2060,2056,2070,2042,2057,2019,2025,2031
2061,2052,2064,2041,2058,2027,2029,2025
2058,2048,2059,2047,2058,2033,2033,2026
2056,2058,2065,2057,2066,2048,2046,2038
2065,2064,2068,2057,2060,2048,2051,2032
2060,2068,2066,2046,2052,2062,2040,2028
2059,2063,2070,2049,2064,2070,2051,2037
2056,2057,2058,2053,2051,2082,2050,2037
2059,2056,2041,2047,2052,2094,2026,2039
2049,2045,2040,2044,2027,2093,2037,2044
2056,2044,2031,2055,2023,2096,2049,2052
2060,2046,2038,2056,2034,2085,2064,2055
2055,2045,2034,2048,2057,2054,2044,2064
2056,2051,2035,2063,2117,2079,2066,2082
2059,2059,2043,2089,2196,2118,2077,2092
2063,2046,2038,2103,2264,2124,2073,2084
2057,2040,2020,2096,2267,2112,2069,2077
2037,2025,2004,2075,2230,2078,2047,2070
2032,2018,1999,2060,2110,2044,2043,2064
2034,2025,2007,2039,1939,2026,2044,2062
2041,2031,2007,2044,1944,2023,2053,2057
2049,2025,2000,2042,1974,1988,2062,2056
2046,2027,1993,2043,2033,1987,2040,2048
2050,2031,2001,2052,2071,2017,2050,2042
2044,2031,1994,2012,1941,2023,2046,2039
2049,2027,1988,2004,1954,2027,2038,2037
2044,2027,1991,2022,1989,2040,2044,2028
2042,2030,2001,2030,2010,2049,2034,2034
2048,2044,2026,2039,2039,2063,2048,2038
2061,2058,2056,2049,2042,2071,2048,2032
2061,2070,2072,2044,2019,2073,2045,2024
2061,2061,2071,2033,1989,2063,2045,2028
2060,2060,2071,2022,1978,2054,2052,2024
2051,2040,2058,2015,1969,2022,2030,2025
2046,2041,2062,2030,1982,1995,2034,2040
2054,2056,2076,2052,2032,2011,2065,2045
2059,2050,2082,2061,2047,2025,2058,2047
2060,2056,2082,2064,2057,2043,2065,2045
2054,2055,2083,2057,2047,2047,2044,2040
2052,2059,2079,2051,2041,2040,2057,2049
2052,2056,2081,2038,2059,2042,2073,2058
2057,2062,2086,2034,2062,2050,2057,2062
2059,2055,2075,2023,2033,2054,2049,2067
2059,2053,2067,2009,2014,2052,2064,2073
2051,2045,2053,2001,2036,2061,2060,2077
2047,2038,2042,1995,2036,2060,2067,2075
2048,2039,2042,1985,2008,2052,2063,2080
2038,2040,2047,1986,1983,2038,2058,2084
2039,2049,2053,1999,1949,2034,2053,2081
2040,2049,2062,1995,1985,2025,2046,2072
2041,2049,2067,2010,2040,2033,2044,2078
2050,2057,2078,2024,2069,2044,2045,2082
2050,2053,2078,2049,2082,2043,2053,2073
2056,2050,2083,2059,2076,2041,2057,2065
2052,2054,2081,2065,2065,2050,2053,2069
2056,2041,2082,2062,2074,2054,2044,2056
2052,2039,2080,2057,2070,2056,2048,2046
2053,2038,2077,2051,2074,2082,2046,2047
2060,2036,2075,2053,2086,2105,2044,2040
2058,2035,2072,2053,2088,2099,2056,2034
2050,2039,2070,2053,2092,2092,2064,2041
2052,2043,2068,2053,2079,2081,2042,2032
2046,2037,2059,2051,2066,2068,2054,2032
2047,2045,2054,2042,2038,2054,2037,2026
2048,2042,2046,2031,2015,2035,2035,2025
2037,2021,2034,2020,1961,2000,2004,2016
2031,2025,2038,2016,1926,1995,2021,2022
2045,2041,2056,2034,1928,2016,2035,2024
2041,2040,2057,2034,1963,2044,2046,2026
2047,2048,2066,2037,1991,2060,2060,2040
2048,2057,2077,2041,1987,2063,2057,2043
2051,2063,2073,2038,1974,2056,2057,2044
2052,2054,2069,2042,1962,2030,2052,2050
2063,2065,2080,2053,1984,2020,2051,2050
2053,2055,2086,2064,2013,2022,2044,2052
2056,2042,2083,2069,2045,2024,2034,2055
2048,2040,2081,2081,2090,2054,2054,2052
2041,2036,2072,2085,2143,2070,2064,2060
2046,2041,2073,2077,2128,2055,2054,2066
2054,2041,2071,2071,2077,2041,2062,2074
2052,2046,2061,2060,2086,2036,2051,2069
2041,2031,2048,2048,2077,2022,2042,2069
2046,2029,2040,2057,2080,2024,2027,2069
2051,2036,2046,2060,2071,2025,2041,2064
2049,2034,2041,2061,2066,2035,2052,2069
2053,2040,2044,2050,2046,2034,2047,2071
2054,2047,2043,2037,2032,2041,2068,2059
2045,2040,2036,2026,2002,2026,2046,2048
2049,2042,2039,2033,2037,2035,2024,2044
2044,2047,2048,2042,2040,2059,2045,2032
2045,2039,2056,2040,2014,2069,2031,2028
2042,2034,2052,2043,2010,2077,2062,2019
2045,2036,2058,2045,2013,2083,2059,2026
2041,2039,2076,2052,2037,2092,2061,2019
2039,2040,2077,2064,2056,2096,2064,2019
2037,2041,2067,2074,2072,2089,2061,2025
2045,2044,2072,2082,2082,2086,2058,2022
2050,2038,2052,2072,2111,2080,2039,2020
2038,2033,2040,2070,2120,2084,2047,2029
2045,2046,2057,2073,2102,2102,2045,2027
2039,2050,2066,2077,2091,2090,2061,2029
2049,2054,2069,2084,2065,2075,2049,2030
2040,2049,2067,2071,2059,2051,2050,2031
2038,2049,2062,2071,2071,2050,2061,2040
2045,2053,2075,2075,2056,2067,2058,2041
2044,2057,2069,2072,2029,2058,2055,2050
2050,2043,2052,2060,2017,2049,2052,2048
2046,2036,2038,2053,2004,2052,2059,2052
2047,2029,2027,2042,2007,2038,2067,2053
2043,2030,2019,2043,2032,2007,2057,2073
2047,2032,2020,2040,2052,2020,2062,2077
2045,2035,2025,2030,2075,2052,2060,2087
2047,2035,2026,2030,2069,2072,2068,2080
2048,2028,2025,2026,2056,2066,2065,2075
2047,2033,2019,2010,2020,2056,2058,2081
2047,2040,2041,2012,2008,2048,2052,2074
2047,2044,2052,2018,2001,2036,2057,2062
2039,2046,2066,2041,2031,2050,2056,2061
2046,2054,2081,2056,2049,2058,2058,2062
2047,2053,2082,2071,2075,2065,2035,2056
2050,2044,2069,2057,2071,2057,2059,2040
2047,2041,2069,2054,2073,2052,2053,2042
2053,2052,2073,2066,2082,2056,2057,2040
2055,2052,2078,2078,2078,2064,2055,2036
2052,2058,2072,2084,2087,2071,2062,2028
2046,2049,2065,2085,2073,2066,2039,2029
2043,2057,2053,2075,2035,2050,2035,2020
2040,2059,2054,2065,2052,2046,2041,2018
2039,2052,2049,2061,2043,2033,2041,2012
2036,2039,2035,2044,2022,2009,2051,2009
2029,2032,2026,2032,2038,2006,2052,2015
2038,2032,2023,2033,2096,2027,2041,2028
2030,2032,2013,2027,2157,2050,2059,2028
2035,2044,2015,2038,2212,2075,2071,2039
2051,2055,2030,2062,2237,2092,2094,2049
2054,2053,2030,2058,2211,2082,2086,2045
2050,2048,2031,2056,2186,2082,2080,2045
2044,2045,2036,2064,2152,2077,2085,2048
2044,2045,2046,2058,2116,2073,2079,2059
2044,2047,2051,2032,2002,2045,2062,2057
2046,2045,2053,1993,1787,2021,2066,2057
2041,2039,2051,1996,1836,2043,2084,2078
2039,2044,2046,2019,1925,2062,2078,2082
2043,2044,2040,2036,1983,2072,2088,2086
2046,2042,2038,2039,2025,2083,2075,2082
2037,2035,2026,2047,2059,2091,2060,2086
2033,2031,2016,2041,2047,2099,2079,2092
2046,2046,2017,2025,2037,2111,2075,2085
2053,2045,2013,2020,2027,2098,2064,2085
2047,2044,2015,1999,2003,2054,2034,2075
2048,2052,2020,2000,1972,1996,2038,2064
2057,2055,2035,2006,1960,1978,2032,2052
2056,2059,2040,2004,1967,2005,2029,2045
2053,2056,2039,2003,1980,2041,2047,2036
2051,2052,2046,2024,2020,2039,2046,2042
2050,2058,2056,2050,2043,2032,2039,2041
2055,2059,2064,2073,2070,2058,2035,2044
2059,2066,2067,2088,2059,2075,2068,2035
2056,2064,2068,2081,2028,2072,2064,2026
2052,2054,2061,2077,2011,2057,2056,2024
2047,2046,2046,2069,1985,2042,2046,2013
2037,2035,2030,2058,1986,2043,2038,2013
2038,2029,2018,2057,2007,2045,2052,2007
2042,2034,2016,2064,2060,2054,2058,2028
2046,2038,2011,2061,2087,2048,2070,2020
2044,2033,2000,2053,2074,2056,2075,2024
2045,2032,1995,2059,2068,2078,2083,2034
2044,2033,1986,2049,2052,2074,2069,2032
2047,2026,1979,2038,2051,2054,2057,2035
2044,2025,1967,2029,2039,2015,2053,2044
2045,2021,1964,2026,2057,2015,2059,2053
2051,2019,1960,2020,2069,2033,2056,2060
2051,2019,1955,2007,2063,2041,2070,2062
2047,2017,1953,2005,2063,2055,2059,2072
2046,2015,1956,2012,2097,2066,2062,2076
2047,2018,1963,2011,2121,2072,2062,2077
2039,2011,1979,2001,2088,2093,2054,2065
2031,2006,1996,1997,2008,2087,2048,2055
2015,2000,2012,1976,1901,2064,2037,2050
2017,2010,2041,1977,1858,2044,2037,2058
2030,2028,2057,2002,1930,2043,2056,2065
2039,2038,2073,2025,1993,1996,2040,2069
2051,2048,2103,2044,2101,2016,2042,2073
2058,2066,2130,2072,2157,2036,2048,2065
2062,2074,2145,2068,2154,2032,2042,2050
2067,2078,2137,2062,2174,2024,2038,2034
2060,2075,2129,2087,2208,2047,2056,2033
2063,2071,2130,2096,2171,2053,2068,2039
2057,2074,2114,2070,1978,2025,2060,2028
2053,2064,2093,2045,1922,2014,2048,2026
2052,2061,2089,2036,1939,2017,2048,2026
2050,2059,2086,2033,1918,2020,2046,2017
2051,2058,2082,2034,1935,2042,2041,2016
2050,2060,2083,2032,1951,2034,2041,2010
2052,2059,2081,2047,1974,2037,2070,2035
2052,2061,2083,2078,2070,2073,2086,2041
2062,2061,2074,2085,2149,2078,2075,2037
2057,2059,2067,2083,2144,2084,2084,2043
2056,2064,2070,2090,2112,2073,2068,2039
2057,2062,2064,2071,2046,2041,2073,2033
2051,2056,2059,2060,2002,2015,2067,2044
2055,2058,2072,2061,2024,2016,2051,2046
2050,2061,2069,2061,2021,2011,2048,2053
2047,2055,2066,2057,2044,2020,2045,2054
2046,2052,2059,2056,2051,2023,2032,2045
2045,2047,2052,2053,2056,2040,2031,2065
2055,2063,2065,2081,2084,2059,2066,2079
2066,2072,2075,2093,2065,2059,2064,2086
2067,2077,2079,2090,2058,2065,2076,2089
2065,2073,2068,2085,2069,2058,2075,2084
2058,2058,2065,2075,2067,2044,2062,2076
2048,2051,2066,2069,2056,2038,2049,2075
2051,2051,2059,2069,2041,2039,2052,2065
2045,2039,2055,2064,2044,2049,2051,2058
2042,2041,2052,2060,2040,2054,2058,2056
2041,2037,2053,2050,2026,2054,2040,2053
2044,2041,2055,2037,2027,2056,2034,2045
2036,2037,2054,2029,2036,2061,2051,2044
2050,2047,2058,2043,2074,2070,2041,2051
2058,2053,2062,2039,2080,2069,2067,2047
2060,2051,2060,2032,2066,2050,2082,2050
2056,2049,2069,2052,2064,2039,2061,2042
2053,2045,2078,2067,2062,2041,2059,2027
2051,2041,2082,2077,2083,2048,2066,2031
2047,2048,2080,2074,2082,2055,2063,2029
2052,2045,2071,2070,2056,2042,2044,2025
2046,2034,2054,2076,2053,2035,2050,2026
2045,2030,2056,2084,2058,2045,2051,2021
2046,2037,2062,2110,2088,2065,2060,2019
2055,2037,2062,2129,2106,2064,2054,2029
2064,2044,2065,2139,2096,2050,2058,2026
2062,2056,2070,2137,2077,2030,2064,2035
2066,2058,2067,2144,2061,2028,2067,2040
2067,2057,2065,2139,2083,2026,2054,2045
2059,2053,2075,2125,2103,2025,2040,2037
2051,2050,2069,2091,2085,2022,2054,2041
2043,2039,2073,2066,2087,2011,2059,2044
2038,2042,2078,2058,2079,2019,2036,2057
2046,2043,2076,2050,2072,2022,2049,2062
2051,2046,2060,2025,2061,2023,2041,2071
2055,2043,2048,2026,2039,2033,2048,2071
2053,2033,2030,2016,1949,2024,2044,2075
2031,2008,2001,2003,1968,2033,2040,2069
2031,2002,1989,2004,2033,2052,2053,2078
2046,2023,1994,2009,2057,2068,2036,2075
2053,2033,2004,2020,2099,2079,2051,2079
2055,2044,2013,2031,2121,2089,2045,2072
2055,2049,2028,2031,2108,2079,2052,2064
2051,2054,2042,2017,2015,2056,2045,2065
2052,2058,2046,1995,1945,2039,2049,2068
2050,2058,2047,1986,1998,2038,2034,2061
2043,2052,2040,1995,2000,2025,2027,2060
2042,2055,2041,1997,1972,2018,2016,2057
2050,2049,2045,1984,1868,2005,2014,2046
2053,2040,2039,1986,1909,2031,2028,2035
2039,2031,2043,2010,1996,2050,2040,2030
2036,2034,2052,2023,1976,2055,2034,2028
2042,2040,2059,2029,1947,2052,2035,2035
2042,2029,2055,2037,1984,2051,2044,2025
2042,2030,2053,2045,2046,2061,2044,2032
2049,2039,2059,2061,2140,2109,2048,2036
2048,2044,2050,2065,2145,2137,2046,2032
2045,2038,2056,2046,2121,2133,2045,2025
2038,2030,2042,2002,1993,2096,2041,2034
2033,2017,2032,1965,1845,2033,2021,2035
2039,2041,2049,1980,1827,1931,2032,2058
2056,2066,2072,2035,1937,1910,2034,2065
2054,2072,2074,2043,1978,1944,2024,2066
2061,2069,2067,2058,1998,1997,2022,2072
2062,2067,2065,2060,2033,2029,2044,2069
2060,2056,2055,2044,2028,2039,2041,2072
2054,2057,2049,2043,2091,2054,2049,2076
2053,2055,2038,2050,2185,2073,2074,2077
2053,2052,2036,2070,2231,2091,2068,2077
2051,2042,2030,2061,2184,2088,2026,2082
2057,2041,2033,2051,2148,2081,2034,2080
2047,2046,2044,2053,2166,2090,2040,2081
2049,2053,2049,2055,2151,2094,2033,2076
2046,2047,2041,2041,2078,2103,2050,2072
2041,2048,2041,2033,2027,2068,2064,2069
2045,2053,2041,2018,1945,2010,2061,2069
2061,2059,2048,2029,1929,2023,2068,2068
2070,2067,2060,2076,2080,2098,2072,2070
2072,2067,2056,2089,2142,2111,2077,2050
2062,2056,2042,2071,2128,2070,2062,2037
2054,2045,2034,2065,2073,1999,2041,2025
2061,2048,2038,2101,2097,1989,2041,2032
2062,2051,2034,2132,2124,2007,2026,2027
2057,2041,2027,2142,2076,2042,2026,2017
2045,2024,2012,2136,2062,2081,2042,2013
2039,2020,2001,2127,2132,2095,2017,2001
2034,2022,1994,2130,2154,2088,2028,2006
2036,2024,2004,2103,2101,2055,2032,2018
2046,2041,2024,2090,2065,1991,2053,2039
2057,2041,2036,2106,2045,1990,2064,2053
2050,2046,2035,2088,1934,2009,2060,2053
2054,2042,2032,2086,1960,2050,2060,2060
2058,2042,2030,2063,1952,2058,2058,2065
2053,2038,2036,2045,2003,2053,2044,2057
2054,2031,2041,2042,2109,2053,2051,2051
2049,2028,2046,2025,2102,2046,2045,2043
2040,2030,2050,1995,2034,2018,2036,2038
2040,2035,2065,1997,2058,2014,2033,2050
2043,2040,2088,2024,2111,2025,2046,2057
2046,2043,2096,2066,2172,2059,2049,2071
2040,2046,2087,2064,2160,2052,2026,2071
2030,2036,2068,2045,2135,2032,2003,2076
2030,2017,2050,1986,2031,2013,2022,2075
2033,2016,2040,1937,1943,2013,2004,2075
2038,2032,2048,1970,2056,2024,2039,2072
2038,2039,2047,2002,2088,2036,2035,2067
2040,2035,2051,2007,1992,2033,2039,2064
2037,2036,2055,2020,1960,2033,2023,2064
2046,2038,2055,2043,1967,2030,2038,2053
2044,2041,2052,2047,1963,2037,2051,2054
2038,2044,2043,2029,1946,2026,2042,2048
2036,2038,2032,2001,1922,2005,2001,2041
2036,2027,2034,1987,1961,2014,2007,2036
2039,2030,2045,2006,2021,2025,2051,2036
2041,2035,2056,2008,2008,2021,2041,2031
2041,2027,2055,2026,2054,2039,2035,2027
2042,2024,2060,2046,2079,2061,2062,2027
2051,2034,2069,2062,2085,2062,2029,2024
2044,2038,2065,2057,2086,2052,2041,2021
2036,2037,2056,2040,2058,2044,2048,2027
2047,2050,2067,2043,2036,2060,2049,2025
2051,2062,2070,2044,2030,2048,2039,2030
2045,2060,2066,2026,2009,2023,2044,2026
2052,2052,2057,2015,2004,2019,2044,2038
2053,2053,2059,2023,2003,2039,2046,2039
2052,2057,2064,2043,2060,2053,2061,2051
2049,2055,2063,2073,2132,2074,2054,2059
2055,2050,2059,2076,2101,2074,2061,2061
2046,2043,2058,2068,2078,2064,2040,2063
2046,2041,2061,2058,2050,2054,2055,2072
2052,2042,2052,2046,2037,2058,2057,2074
2053,2038,2052,2045,2025,2055,2043,2074
2045,2040,2056,2037,2020,2058,2040,2075
2040,2048,2058,2053,2045,2076,2033,2079
2046,2048,2055,2060,2088,2082,2029,2082
2047,2041,2055,2062,2144,2089,2046,2082
2048,2047,2054,2054,2161,2084,2040,2072
2045,2041,2049,2056,2138,2064,2046,2067
2042,2037,2045,2060,2103,2049,2039,2066
2040,2030,2037,2044,2121,2039,2027,2042
2032,2020,2028,2037,2160,2003,2021,2028
2024,2016,2024,2036,2091,1984,2023,2031
2032,2019,2024,2027,1944,1985,2040,2033
2039,2028,2041,2043,1926,1986,2029,2036
2046,2033,2044,2050,1919,1981,2041,2036
2051,2036,2043,2049,1885,1983,2038,2039
2051,2044,2043,2034,1872,1992,2033,2036
2055,2056,2047,2033,1954,2023,2041,2032
2064,2056,2047,2048,1925,2054,2058,2041
2064,2051,2052,2051,1951,2085,2040,2039
2052,2041,2048,2063,2043,2116,2067,2039
2057,2046,2049,2077,2166,2150,2069,2035
2066,2056,2054,2068,2160,2128,2066,2045
2065,2061,2055,2060,2151,2067,2070,2048
2063,2051,2056,2072,2108,2041,2051,2046
2061,2043,2046,2062,2116,2039,2030,2041
2059,2031,2034,2024,2060,2038,2042,2035
2047,2033,2037,2036,2060,2063,2073,2050
2058,2043,2054,2068,2093,2081,2055,2053
2057,2049,2064,2064,2045,2080,2066,2061
2057,2048,2061,2054,2054,2082,2062,2057
2042,2032,2046,2024,1926,2046,2044,2053
2029,2023,2033,2000,1842,1973,2052,2069
2033,2033,2041,1995,1788,1896,2051,2087
2039,2038,2039,2015,2061,1988,2067,2096
2046,2045,2049,2088,2334,2112,2098,2094
2053,2041,2060,2094,2328,2131,2096,2100
2055,2046,2068,2084,2239,2099,2080,2103
2063,2060,2070,2076,2168,2080,2071,2086
2069,2057,2057,2042,2026,2044,2063,2084
2065,2058,2054,2029,1948,2022,2040,2083
2060,2060,2047,1992,1860,1996,2044,2071
2056,2054,2041,1975,1827,1966,2023,2059
2050,2043,2033,1998,1875,1997,2040,2044
2042,2037,2031,2025,1911,2010,2025,2037
2046,2032,2043,2056,1977,1981,2021,2033
2052,2044,2052,2067,2027,2001,2015,2038
2063,2054,2061,2064,2002,2031,2033,2039
2060,2053,2062,2042,2000,2022,2041,2029
2055,2043,2042,2017,2033,2039,2013,2007
2033,2037,2030,2003,2012,2092,2031,2006
2032,2043,2042,2033,2102,2117,2037,2017
2043,2050,2050,2022,2004,2068,2021,2019
2046,2036,2042,2011,1934,2019,2019,2033
2054,2056,2056,2048,1958,1988,2050,2056
2071,2076,2072,2069,2016,2013,2065,2048
2065,2068,2070,2065,2017,2042,2069,2040
2056,2057,2057,2045,1952,2042,2057,2039
2050,2042,2045,2027,1923,2013,2048,2024
2042,2047,2066,2054,2048,2018,2046,2030
2039,2049,2071,2077,2094,2022,2047,2041
2049,2047,2073,2103,2197,2066,2053,2037
2041,2044,2060,2119,2268,2092,2053,2032
2036,2034,2054,2103,2168,2094,2055,2043
2028,2032,2043,2056,1989,2080,2045,2049
2032,2042,2042,2040,1967,2092,2072,2068
2048,2044,2046,2046,1991,2086,2048,2077
2047,2049,2046,2071,2051,2070,2081,2085
2049,2048,2043,2083,2118,2074,2068,2088
2043,2046,2026,2057,1972,2051,2052,2087
2035,2041,2023,2055,2005,2082,2053,2095
2044,2053,2047,2143,2339,2114,2067,2096
2058,2068,2062,2185,2487,2121,2089,2094
2057,2068,2063,2188,2484,2125,2076,2077
2050,2071,2065,2172,2389,2124,2087,2084
2059,2071,2064,2158,2351,2148,2092,2087
2058,2070,2060,2142,2423,2113,2077,2085
2064,2065,2048,2092,2234,1981,2053,2073
2044,2036,2011,1956,1666,1817,2011,2036
2021,2012,1994,1876,1528,1801,2014,2023
2025,2011,2004,1871,1667,1864,2029,2026
2029,2018,2017,1960,1979,1958,2040,2033
2040,2030,2047,2045,2213,2033,2060,2031
2041,2039,2043,2064,2188,2047,2048,2022
2040,2037,2045,2020,1985,2036,2033,2016
2034,2027,2028,1974,1842,2013,2039,2007
2026,2017,2019,1983,1916,2029,2030,2009
2028,2029,2032,2021,2072,2064,2056,2020
2048,2048,2048,2043,2141,2079,2076,2031
2053,2048,2043,2042,2124,2065,2079,2031
2051,2042,2043,2034,2109,2081,2078,2034
2052,2043,2046,2039,2109,2081,2074,2028
2044,2041,2049,2040,2065,2056,2064,2029
2040,2041,2043,2037,1995,2047,2067,2039
2045,2033,2039,2021,1872,2040,2070,2044
2044,2038,2044,2026,1927,2064,2087,2048
2049,2044,2048,2041,1975,2066,2072,2062
2050,2049,2042,2042,1972,2054,2075,2065
2042,2041,2043,2033,1963,2061,2071,2079
2046,2046,2046,2021,1961,2087,2082,2088
2061,2043,2042,2027,1993,2125,2081,2100
2068,2039,2039,2025,2028,2132,2063,2090
2058,2032,2025,2010,2051,2090,2039,2073
2042,2023,2027,2007,2042,1981,2024,2063
2031,2035,2040,2015,2075,1951,2036,2045
2026,2044,2051,2047,2093,2014,2051,2050
2036,2044,2059,2069,2082,2049,2041,2063
2040,2047,2061,2058,2050,2049,2049,2061
2042,2048,2053,2067,2057,2074,2066,2057
2042,2047,2055,2089,2094,2086,2056,2056
2037,2047,2045,2074,2099,2067,2057,2048
2046,2048,2048,2058,2074,2052,2040,2040
2058,2054,2043,2037,2022,2021,2032,2036
2054,2049,2039,2012,1973,2010,2041,2030
2048,2045,2039,2015,2011,2018,2036,2014
2031,2034,2029,2025,2060,2047,2054,2013
2032,2029,2035,2036,2050,2085,2062,2013
2041,2040,2036,2043,2026,2107,2067,2004
2045,2040,2040,2022,1975,2105,2054,1997
2031,2033,2037,2012,1968,2110,2043,2009
2026,2033,2035,2021,2023,2079,2059,2022
2028,2042,2043,2047,2082,1975,2050,2026
2029,2047,2054,2061,2111,1966,2047,2035
2032,2051,2060,2061,2107,1998,2060,2036
2040,2052,2059,2057,2071,2028,2051,2038
2035,2053,2066,2055,2050,2052,2057,2056
2048,2058,2068,2051,1972,2059,2065,2063
2059,2064,2070,2047,1938,2054,2071,2065
2056,2060,2063,2033,1893,2045,2058,2071
2052,2060,2055,2047,2008,2058,2070,2079
2056,2051,2061,2084,2149,2093,2077,2091
2057,2055,2064,2121,2327,2128,2083,2100
2056,2048,2066,2152,2442,2144,2100,2107
2053,2050,2066,2163,2440,2110,2090,2107
2055,2048,2060,2137,2381,2086,2081,2092
2054,2045,2041,2115,2362,2064,2068,2094
2050,2040,2030,2068,2187,2010,2043,2085
2043,2031,2023,1965,1718,1946,2013,2074
2033,2032,2019,1897,1343,1918,2012,2057
2027,2033,2018,1936,1508,1963,2019,2047
2016,2035,2037,2005,1764,2017,2047,2046
2032,2044,2048,2041,1934,2036,2047,2041
2029,2028,2036,2043,2012,2021,2026,2034
2027,2025,2033,2049,2101,2003,2025,2021
2019,2028,2043,2060,2152,2022,2045,2022
2023,2032,2046,2063,2148,2058,2051,2025
2031,2041,2045,2039,2081,2067,2043,2018
2039,2039,2038,2018,1985,2050,2050,2022
2035,2037,2037,2004,1932,2031,2041,2011
2036,2037,2034,1990,1891,2008,2017,2002
2035,2020,2023,1982,1890,1996,2002,2007
2023,2014,2022,2000,1964,1994,2022,2006
2020,2006,2021,2021,2018,2026,2069,2030
2033,2018,2034,2053,2060,2061,2092,2035
2034,2038,2053,2063,2093,2071,2074,2042
2035,2031,2044,2068,2111,2075,2072,2043
2036,2043,2051,2070,2116,2061,2070,2039
2036,2051,2054,2076,2096,2038,2070,2035
2034,2053,2055,2083,2118,2027,2051,2040
2039,2050,2062,2096,2135,2038,2070,2058
2048,2060,2072,2104,2147,2089,2077,2056
2050,2058,2069,2102,2133,2094,2078,2057
2047,2048,2061,2088,2104,2073,2060,2061
2050,2051,2062,2085,2088,2059,2056,2066
2049,2053,2055,2086,2075,2055,2062,2065
2046,2052,2053,2096,2071,2047,2053,2071
2045,2050,2058,2094,2067,2048,2054,2084
2051,2059,2056,2093,2059,2053,2070,2081
2051,2050,2055,2088,2055,2040,2060,2082
2041,2051,2054,2080,2054,2023,2066,2086
2043,2061,2058,2065,2049,2022,2058,2080
2056,2066,2061,2035,2038,2033,2063,2076
2057,2059,2053,2016,2034,2038,2059,2068
2050,2063,2056,2010,2041,2044,2072,2057
2049,2058,2055,2010,2041,2047,2057,2051
2045,2058,2049,2015,2042,2042,2045,2041
2043,2058,2056,2019,2040,2045,2051,2032
2044,2056,2050,2016,2032,2042,2049,2034
2037,2048,2053,2022,2017,2045,2034,2028
2040,2048,2049,2024,2026,2064,2035,2024
2041,2044,2043,2021,2018,2070,2019,2023
2042,2045,2050,2031,2011,2078,2047,2018
2043,2043,2041,2036,1989,2078,2052,2023
2052,2039,2048,2049,1995,2046,2062,2032
2050,2047,2056,2043,2025,2033,2051,2024
2042,2039,2054,2040,2064,2054,2046,2019
2034,2044,2056,2065,2109,2070,2060,2023
2039,2054,2062,2077,2044,2062,2064,2026
2039,2051,2054,2078,2002,2045,2070,2037
2052,2047,2056,2082,2006,2033,2056,2031
2051,2049,2054,2080,2000,2011,2050,2036
2042,2048,2054,2079,2048,2022,2047,2032
2044,2048,2056,2101,2111,2051,2047,2043
2041,2047,2051,2091,2093,2050,2044,2042
2038,2046,2056,2067,2067,2027,2046,2048
2037,2049,2053,2041,2076,2011,2035,2049
2039,2045,2051,2026,2126,2006,2034,2049
2034,2038,2049,2038,2150,2023,2043,2054
2032,2036,2049,2036,2120,2042,2047,2063
2033,2040,2052,2041,2093,2058,2062,2074
2044,2049,2058,2036,2081,2069,2062,2082
2043,2050,2054,2033,2071,2070,2055,2080
2037,2037,2043,2020,2068,2055,2055,2083
2036,2035,2043,2023,2079,2013,2058,2077
2041,2044,2056,2044,2088,2002,2048,2076
2047,2044,2057,2041,2086,2007,2035,2075
2047,2053,2064,2035,2078,2016,2034,2064
2052,2062,2060,2027,2078,2041,2024,2054
2047,2055,2053,2029,2067,2075,2044,2043
2037,2048,2047,2040,2054,2070,2041,2035
2039,2046,2047,2066,2038,2052,2036,2026
2040,2055,2054,2109,2035,2040,2050,2022
2043,2056,2058,2150,2084,2056,2051,2025
2048,2058,2065,2185,2139,2093,2076,2038
2048,2061,2066,2197,2147,2101,2085,2037
2050,2060,2065,2192,2144,2102,2083,2032
2042,2056,2067,2174,2130,2078,2065,2026
2043,2050,2059,2135,2106,2049,2063,2025
2043,2041,2045,2111,2070,2025,2050,2028
2040,2039,2042,2109,2095,2075,2080,2034
2033,2039,2048,2126,2157,2100,2085,2035
2042,2049,2051,2128,2172,2120,2104,2045
2042,2047,2056,2118,2166,2110,2091,2040
2038,2049,2065,2103,2116,2096,2085,2030
2041,2047,2060,2088,2086,2081,2067,2035
2041,2053,2059,2075,2060,2079,2080,2046
2042,2054,2058,2065,1996,2041,2063,2048
2042,2051,2049,2034,1996,2033,2081,2051
2047,2053,2049,2026,2003,2044,2073,2052
2036,2045,2042,1998,2010,2019,2046,2053
2036,2038,2034,1951,2002,2020,2032,2048
2031,2034,2021,1909,1991,2011,2033,2056
2035,2035,2021,1878,1992,1983,2033,2064
2035,2033,2014,1866,1931,1966,2025,2062
2030,2030,2013,1886,1867,1941,2010,2064
2031,2023,2018,1948,1933,1930,2012,2071
2029,2028,2026,1998,2027,1969,2015,2070
2032,2033,2030,2025,2066,2017,2026,2072
2046,2045,2038,2044,2074,2060,2035,2069
2040,2049,2040,2023,2090,2084,2052,2065
2045,2045,2037,2011,2087,2089,2029,2060
2039,2050,2040,2026,2061,2087,2032,2057
2043,2053,2039,2055,2055,2099,2043,2043
2042,2051,2042,2066,2052,2129,2055,2045
2044,2057,2044,2050,2056,2119,2055,2048
2042,2054,2051,2039,2062,2052,2049,2045
2053,2060,2045,2035,2077,1963,2056,2041
2048,2059,2047,2041,2070,1964,2056,2042
2052,2056,2044,2039,2059,2005,2068,2050
2053,2058,2048,2040,2060,2012,2061,2042
2044,2054,2050,2037,2053,2024,2049,2042
2041,2049,2040,2029,2050,2016,2049,2032
2036,2041,2038,2025,2041,1999,2036,2024
2032,2037,2038,2032,2045,1990,2045,2019
2045,2045,2046,2050,2060,1996,2028,2021
2039,2049,2041,2050,2058,1994,2028,2019
2030,2041,2042,2050,2067,1994,2043,2025
2036,2046,2049,2054,2076,2009,2054,2032
2043,2057,2047,2059,2079,2020,2053,2039
2044,2052,2046,2057,2089,2048,2053,2035
2038,2046,2040,2055,2073,2081,2055,2032
2036,2037,2037,2054,2072,2094,2051,2033
2030,2033,2036,2059,2074,2122,2062,2041
2028,2035,2045,2060,2079,2128,2066,2044
2034,2038,2045,2069,2073,2122,2071,2062
2034,2044,2052,2074,2063,2121,2083,2070
2034,2044,2051,2075,2055,2092,2073,2076
2043,2054,2056,2078,2050,2077,2072,2074
2038,2047,2056,2077,2039,2046,2057,2065
2023,2038,2041,2079,2046,2033,2045,2061
2029,2037,2038,2076,2059,2033,2040,2064
2029,2042,2053,2080,2072,2036,2041,2059
2035,2045,2051,2074,2084,2037,2034,2050
2032,2042,2048,2073,2109,2051,2027,2050
2027,2050,2051,2088,2111,2078,2050,2053
2035,2055,2056,2104,2145,2103,2064,2052
2039,2062,2060,2128,2135,2097,2068,2053
2045,2068,2055,2134,2093,2065,2059,2042
2050,2066,2058,2122,2076,2051,2037,2041
2049,2058,2055,2108,2058,2025,2016,2024
2038,2053,2046,2091,2047,2008,1972,2022
2036,2054,2042,2050,2016,1996,2000,2015
2035,2053,2037,1998,1977,1995,2016,2007
2033,2050,2035,1980,1986,2003,2034,1998
2032,2044,2030,1983,2012,2011,2046,2005
2027,2039,2017,2005,2069,2014,2037,2006
2027,2038,2016,2026,2110,2020,2031,2007
2024,2036,2012,2042,2195,2058,2050,2025
2031,2043,2020,2056,2238,2089,2069,2027
2038,2044,2022,2066,2219,2094,2084,2035
2045,2044,2014,2062,2155,2084,2076,2036
2041,2045,2020,2064,2131,2082,2084,2042
2049,2044,2025,2062,2038,2072,2091,2046
2051,2041,2026,2046,1882,2041,2084,2047
2047,2044,2030,2045,1780,2038,2082,2050
2045,2035,2026,2055,1887,2071,2081,2064
2048,2036,2036,2072,1969,2114,2083,2074
2059,2042,2043,2083,1996,2134,2084,2092
2059,2043,2052,2087,2034,2129,2085,2092
2063,2055,2064,2098,2074,2041,2072,2090
2063,2065,2064,2093,2051,1979,2033,2080
2061,2060,2063,2046,2029,2014,2043,2074
2045,2052,2057,2039,2097,2076,2048,2060
2039,2043,2053,2027,2082,2064,2035,2064
2046,2047,2051,1984,2043,2034,2026,2062
2045,2050,2048,1958,2028,2036,1994,2058
2047,2057,2053,1971,2028,2037,2020,2053
2052,2059,2058,1992,2028,2041,2041,2050
2046,2061,2058,2003,2031,2039,2046,2053
2048,2066,2056,2013,2032,2030,2046,2039
2052,2070,2059,2025,2028,2018,2045,2041
2055,2067,2055,2023,2025,2018,2029,2033
2059,2064,2054,2020,2025,2027,2021,2028
2049,2064,2059,2026,2039,2042,2033,2021
2054,2074,2058,2032,2044,2048,2044,2028
2053,2069,2066,2041,2060,2065,2046,2025
2052,2061,2060,2041,2060,2075,2024,2022
2049,2064,2053,2046,2069,2054,2028,2012
2046,2058,2045,2044,2067,2051,2025,2014
2034,2043,2040,2047,2069,2076,2053,2014
2042,2051,2037,2057,2068,2080,2048,2021
2048,2057,2038,2063,2079,2090,2042,2021
2049,2052,2031,2058,2085,2100,2062,2023
2044,2042,2019,2061,2087,2091,2055,2030
2044,2046,2017,2062,2080,2077,2053,2030
2048,2048,2016,2056,2080,2070,2058,2034
2048,2045,2016,2055,2073,2070,2063,2040
2051,2044,2016,2054,2077,2084,2067,2049
2054,2051,2024,2066,2086,2089,2072,2064
2059,2054,2042,2083,2100,2095,2083,2079
2054,2059,2043,2076,2090,2062,2068,2075
2046,2051,2043,2072,2074,2002,2059,2065
2034,2041,2039,2057,2054,1990,2039,2058
2020,2030,2036,2052,2043,2010,2034,2066
2020,2030,2035,2042,2042,2023,2034,2071
2028,2034,2040,2040,2042,2043,2027,2069
2028,2022,2036,2030,2038,2061,2020,2070
2025,2032,2053,2035,2041,2078,2014,2068
2038,2049,2070,2046,2042,2083,2031,2066
2045,2060,2081,2053,2044,2088,2055,2069
2047,2064,2088,2058,2049,2041,2053,2058
2048,2064,2085,2055,2053,2014,2053,2054
2044,2062,2086,2062,2052,2013,2058,2048
2046,2070,2075,2066,2060,2031,2043,2044
2049,2068,2076,2061,2073,2040,2064,2040
2054,2067,2067,2048,2067,2036,2062,2040
2053,2062,2055,2039,2061,2035,2049,2040
2051,2056,2057,2025,2045,2018,2027,2040
2048,2060,2062,2011,2035,2008,2026,2037
2057,2063,2061,2011,2039,2026,2034,2043
2058,2066,2065,2022,2038,2042,2032,2031
2060,2060,2066,2024,2039,2039,2018,2018
2053,2055,2062,2026,2035,2034,2019,2008
2046,2049,2055,2029,2036,2043,2022,2012
2047,2052,2059,2042,2054,2054,2058,2032
2056,2057,2057,2049,2062,2056,2060,2028
2055,2056,2058,2047,2055,2046,2060,2023
2047,2056,2050,2050,2054,2044,2046,2024
2044,2053,2047,2043,2056,2043,2043,2029
2040,2050,2044,2042,2059,2050,2056,2037
2035,2051,2048,2044,2066,2047,2064,2045
2039,2050,2045,2042,2069,2055,2053,2051
2038,2049,2047,2046,2071,2050,2049,2060
2043,2045,2040,2047,2075,2053,2055,2059
2043,2047,2046,2048,2074,2052,2054,2061
2043,2040,2040,2047,2072,2052,2044,2066
2040,2039,2043,2047,2068,2055,2046,2069
2041,2037,2042,2049,2062,2056,2049,2071
2036,2044,2038,2045,2065,2061,2058,2070
2035,2031,2035,2037,2064,2061,2049,2065
2030,2028,2031,2037,2055,2048,2028,2065
2036,2043,2041,2041,2056,2055,2036,2069
2040,2042,2040,2037,2057,2058,2036,2063
2040,2039,2042,2028,2044,2056,2037,2053
2037,2041,2033,2023,2047,2055,2045,2060
2043,2046,2036,2029,2047,2046,2057,2056
2047,2054,2034,2028,2048,2054,2056,2051
2048,2057,2033,2031,2046,2060,2056,2047
2050,2054,2037,2028,2045,2056,2058,2051
2048,2060,2041,2026,2047,2056,2053,2045
2050,2056,2038,2027,2041,2052,2060,2041
2050,2054,2043,2035,2038,2047,2062,2044
2052,2057,2041,2035,2040,2050,2058,2043
2050,2061,2045,2041,2043,2045,2051,2033
2051,2062,2052,2040,2044,2042,2050,2023
2042,2060,2053,2039,2039,2032,2033,2014
2036,2051,2039,2035,2042,2039,2023,2015
2039,2049,2040,2037,2052,2036,2032,2019
2047,2058,2047,2045,2056,2043,2026,2031
2047,2056,2045,2049,2055,2045,2019,2033
2047,2053,2050,2044,2065,2045,2030,2036
2047,2054,2045,2048,2058,2059,2055,2040
2050,2052,2046,2049,2067,2068,2061,2045
2056,2054,2047,2046,2065,2062,2070,2049
2052,2056,2046,2050,2064,2044,2071,2057
2054,2059,2044,2049,2061,2046,2061,2060
2054,2064,2053,2053,2068,2045,2058,2068
2056,2062,2052,2052,2067,2041,2059,2064
2054,2063,2053,2051,2073,2039,2052,2073
2055,2058,2055,2049,2062,2038,2062,2079
2044,2052,2053,2050,2059,2043,2042,2077
2046,2050,2050,2050,2062,2042,2044,2078
2043,2045,2050,2059,2057,2030,2044,2072
2033,2044,2044,2066,2055,2035,2038,2069
2038,2041,2046,2077,2055,2055,2040,2067
2048,2057,2049,2077,2055,2066,2041,2064
2042,2058,2046,2079,2055,2068,2040,2060
2043,2057,2038,2073,2048,2065,2037,2054
2056,2059,2040,2068,2046,2072,2047,2057
2054,2056,2040,2069,2058,2073,2039,2058
2056,2062,2040,2062,2057,2072,2057,2048
2055,2052,2038,2061,2060,2070,2057,2046
2050,2054,2036,2050,2051,2056,2052,2035
2052,2054,2032,2049,2048,2038,2045,2031
2051,2052,2029,2045,2048,2035,2041,2029
2045,2043,2028,2036,2043,2045,2031,2030
2053,2042,2035,2024,2044,2043,2021,2030
2045,2051,2030,2012,2033,2032,2024,2025
2046,2052,2029,2000,2033,2025,2034,2027
2054,2043,2021,2001,2029,2022,2009,2017
2041,2035,2013,2008,2033,2025,2008,2017
2042,2041,2023,2012,2038,2041,2024,2029
2055,2049,2033,2022,2041,2047,2029,2039
2055,2063,2041,2033,2050,2041,2037,2038
2061,2064,2051,2043,2050,2031,2037,2032
2058,2068,2053,2046,2057,2040,2044,2039
2058,2068,2059,2047,2050,2047,2045,2042
2060,2067,2057,2052,2057,2054,2050,2049
2061,2067,2060,2049,2056,2059,2061,2054
2057,2056,2056,2049,2052,2063,2058,2058
2049,2054,2051,2040,2043,2068,2061,2072
2045,2052,2052,2040,2047,2079,2073,2069
2051,2055,2050,2043,2049,2105,2076,2070
2045,2042,2045,2037,2048,2108,2068,2076
2040,2033,2043,2040,2047,2093,2051,2075
2039,2033,2043,2043,2049,2079,2058,2076
2040,2034,2033,2043,2047,2081,2063,2074
2037,2022,2037,2049,2064,2087,2076,2084
2042,2032,2039,2050,2063,2082,2084,2074
2042,2038,2045,2052,2055,2068,2066,2062
2041,2039,2040,2052,2057,2047,2067,2064
2051,2042,2045,2047,2043,2016,2043,2049
2047,2039,2039,2043,2042,1999,2045,2041
2044,2043,2041,2048,2040,1996,2028,2035
2047,2043,2044,2046,2038,2015,2030,2031
2054,2049,2046,2047,2041,2058,2040,2034
2051,2044,2045,2044,2040,2089,2052,2029
2054,2052,2051,2048,2035,2058,2039,2031
2051,2054,2046,2049,2024,1969,2021,2024
2059,2051,2047,2044,2024,1939,2023,2028
2060,2057,2052,2043,2026,1983,2018,2025
2055,2060,2052,2044,2019,2010,2033,2027
2050,2055,2045,2039,2020,2028,2018,2022
2047,2044,2042,2042,2016,2059,2013,2020
2046,2044,2045,2045,2025,2085,2030,2015
2046,2045,2046,2040,2025,2070,2039,2024
2049,2046,2040,2036,2025,2044,2040,2034
2053,2053,2051,2042,2026,2035,2066,2048
2063,2056,2053,2045,2061,2049,2080,2056
2065,2056,2058,2060,2070,2055,2078,2061
2064,2053,2053,2061,2058,2053,2054,2061
2057,2059,2055,2060,2064,2063,2069,2072
2071,2056,2057,2059,2080,2067,2095,2085
2066,2055,2059,2064,2084,2077,2083,2089
2061,2058,2058,2053,2065,2063,2092,2084
2064,2050,2053,2052,2039,2059,2072,2083
2057,2047,2051,2047,2028,2062,2062,2076
2055,2046,2048,2050,2033,2064,2052,2068
2054,2053,2054,2056,2041,2080,2041,2060
2052,2044,2044,2054,2064,2111,2057,2050
2047,2042,2047,2057,2049,2117,2061,2059
2048,2048,2046,2058,2041,2079,2038,2052
2049,2045,2040,2053,2025,2039,2015,2051
2045,2039,2037,2053,1998,2008,1999,2048
2047,2042,2045,2054,2009,2007,2021,2047
2054,2045,2047,2054,2021,2021,2040,2042
2058,2048,2050,2056,2060,2049,2045,2046
2056,2055,2043,2058,2086,2059,2057,2040
2056,2050,2044,2041,2074,2057,2060,2034
2057,2052,2045,2039,2053,2048,2066,2039
2064,2052,2049,2034,2033,2042,2054,2029
2054,2049,2043,2025,2028,2031,2026,2024
2056,2048,2036,2018,2021,2014,2048,2018
2044,2044,2035,2023,2044,2029,2042,2014
2050,2050,2051,2039,2082,2055,2027,2010
2052,2047,2053,2039,2066,2042,2027,2010
2048,2052,2048,2033,2054,2034,2020,2013
2059,2061,2055,2045,2058,2036,2022,2026
2064,2065,2060,2047,2061,2028,2021,2031
2067,2061,2064,2045,2055,2021,2000,2042
2069,2059,2060,2039,2052,2013,1996,2042
2061,2058,2059,2041,2047,2027,2011,2038
2065,2055,2060,2039,2046,2027,2014,2043
2059,2055,2056,2041,2047,2034,2009,2045
2052,2050,2053,2048,2052,2032,2033,2050
2053,2046,2055,2042,2042,2037,2037,2055
2052,2046,2057,2039,2040,2043,2029,2061
2053,2042,2052,2047,2048,2076,2049,2065
2051,2041,2048,2044,2051,2098,2057,2064
2049,2038,2042,2045,2053,2117,2045,2072
2045,2043,2044,2040,2045,2126,2051,2070
2052,2035,2045,2042,2039,2129,2031,2066
2040,2025,2038,2041,2034,2127,2033,2073
2047,2034,2048,2042,2032,2115,2045,2076
2062,2045,2052,2056,2037,2041,2031,2074
2062,2045,2049,2057,2040,1993,2016,2063
2058,2048,2051,2060,2039,2006,2008,2058
2060,2050,2047,2067,2038,2018,2004,2052
2063,2052,2049,2071,2035,1993,2006,2043
2065,2056,2052,2078,2040,1988,2024,2046
2066,2055,2054,2077,2016,2006,2030,2038
2060,2054,2056,2079,2023,2013,2029,2040
2058,2051,2059,2089,2054,2032,2043,2023
2059,2054,2058,2079,2023,2044,2016,2017
2049,2047,2053,2076,2007,2041,2018,2012
2044,2047,2047,2070,2002,2040,2021,2015
2053,2050,2047,2070,2018,2023,2031,2022
2057,2051,2054,2072,2052,2012,2038,2035
2057,2047,2053,2066,2057,2017,2062,2039
2056,2051,2050,2078,2098,2075,2072,2048
2067,2064,2063,2072,2071,2120,2088,2048
2062,2056,2046,2042,2006,2154,2086,2044
2053,2044,2032,2029,2032,2178,2052,2038
2055,2043,2043,2041,2069,2141,2046,2028
2050,2039,2045,2042,2050,2014,2015,2024
2048,2040,2046,2032,2021,1941,1986,2030
2045,2037,2051,2032,2045,1987,2014,2034
2044,2038,2057,2041,2082,2035,2038,2045
2039,2036,2043,2032,2084,2046,2033,2042
2040,2034,2042,2029,2101,2046,2026,2050
2037,2029,2039,2018,2112,2050,2050,2056
2048,2036,2046,2024,2095,2042,2022,2059
2052,2036,2041,2038,2076,2040,2032,2063
2044,2040,2044,2051,2064,2039,2046,2068
2038,2027,2042,2046,1970,2023,2037,2059
2034,2016,2036,2042,1929,2025,2034,2065
2033,2031,2048,2067,1969,2036,2026,2065
2034,2026,2046,2070,2007,2042,2018,2060
2035,2028,2044,2070,2013,2041,2028,2058
2038,2037,2042,2065,1997,2042,2043,2060
2050,2041,2030,2060,1986,2041,2019,2057
2053,2044,2022,2043,1991,2033,2022,2051
2055,2040,2006,2043,2015,2035,2015,2037
2049,2034,1994,2046,2029,2046,2046,2047
2055,2034,1995,2042,2031,2042,2051,2043
2054,2038,2000,2032,2032,2034,2077,2040
2051,2037,2002,2022,2048,2038,2066,2035
2051,2042,2001,2021,2031,2025,2056,2027
2047,2034,2005,2022,2035,2027,2057,2028
2051,2041,2011,2025,2037,2025,2073,2034
2053,2042,2010,2028,2034,2021,2054,2032
2053,2039,2017,2053,2035,2028,2067,2032
2046,2043,2030,2063,2038,2044,2076,2034
2057,2054,2030,2087,2041,2050,2046,2037
2055,2046,2028,2096,2040,2044,2053,2039
2055,2049,2033,2094,2014,2028,2053,2049
2061,2050,2055,2088,1986,2052,2050,2058
2061,2071,2088,2077,1967,2074,2076,2066
2076,2080,2107,2079,1963,2070,2074,2059
2070,2085,2117,2068,1989,2054,2073,2070
2073,2089,2118,2062,2017,2019,2060,2077
2075,2086,2110,2045,2014,2027,2057,2072
2076,2084,2097,2028,2000,2044,2055,2070
2065,2070,2074,2000,1998,2045,2034,2057
2038,2038,2040,1978,2081,2059,2042,2057
2027,2027,2036,1986,2146,2083,2052,2067
2039,2035,2046,1995,2147,2092,2073,2072
2032,2037,2052,1997,2112,2084,2066,2078
2036,2049,2061,2002,2084,2076,2076,2083
2042,2056,2058,2028,2072,2077,2076,2084
2041,2060,2057,2047,2057,2071,2060,2069
2040,2055,2058,2034,2042,2068,2045,2072
2049,2056,2048,2010,2026,2073,2051,2057
2050,2054,2046,2003,2027,2071,2056,2053
2043,2053,2043,2014,2042,2072,2064,2050
2051,2050,2044,2030,2054,2057,2059,2044
2050,2048,2049,2042,2053,2046,2053,2040
2060,2056,2056,2049,2058,2045,2068,2037
2057,2053,2056,2048,2055,2034,2058,2032
2055,2057,2059,2051,2040,2018,2042,2025
2060,2056,2056,2050,2047,2034,2018,2028
2052,2053,2053,2043,2043,2042,2026,2026
2052,2054,2046,2044,2046,2043,2035,2021
2043,2047,2044,2051,2049,2053,2047,2018
2053,2057,2055,2053,2060,2067,2059,2022
2060,2058,2058,2046,2061,2066,2061,2034
2053,2058,2046,2049,2058,2059,2037,2038
2055,2056,2043,2046,2055,2060,2034,2048
2060,2056,2047,2058,2057,2058,2076,2056
2058,2057,2038,2060,2049,2058,2078,2057
2062,2049,2032,2048,2058,2057,2071,2052
2055,2051,2036,2044,2049,2063,2073,2057
2052,2049,2029,2035,2039,2050,2055,2062
2056,2052,2032,2035,2037,2019,2054,2066
2055,2047,2031,2037,2036,2008,2042,2074
2052,2043,2026,2031,2027,2012,2039,2074
2050,2047,2025,2040,2042,2026,2041,2081
2050,2052,2029,2042,2044,2026,2053,2075
2052,2038,2016,2037,2023,2015,2042,2078
2047,2037,2017,2038,2023,2016,2049,2081
2047,2042,2021,2044,2039,2022,2048,2077
2052,2039,2015,2037,2069,2014,2051,2073
2051,2043,2016,2044,2090,2020,2058,2067
2053,2046,2022,2062,2126,2038,2058,2061
2052,2044,2022,2070,2120,2031,2055,2054
2046,2037,2027,2059,2109,2027,2027,2049
2044,2038,2028,2064,2111,2054,2037,2041
2045,2035,2032,2061,2104,2063,2042,2040
2048,2037,2034,2056,2094,2060,2059,2039
2046,2048,2037,2038,2036,2054,2054,2043
2051,2044,2036,2006,1963,2042,2042,2042
2053,2047,2043,2001,1946,2018,2041,2039
2060,2046,2040,2007,1949,2009,2049,2041
2057,2050,2046,2015,1975,2026,2046,2041
2053,2049,2047,2026,1991,2046,2041,2043
2052,2036,2045,2036,1998,2058,2049,2036
2051,2037,2051,2025,1970,2061,2049,2044
2054,2039,2055,2024,1954,2071,2050,2039
2054,2032,2049,2019,1939,2074,2032,2038
2050,2032,2051,2000,1891,2028,2031,2038
2045,2035,2050,1998,1895,1920,2006,2030
2043,2040,2063,2019,1937,1883,2010,2034
2052,2049,2080,2047,2041,1951,2014,2047
2055,2053,2089,2063,2121,2006,2029,2058
2057,2055,2084,2067,2135,2052,2048,2056
2053,2053,2082,2064,2094,2070,2045,2064
2053,2044,2066,2059,2070,2101,2047,2073
2050,2047,2061,2063,2067,2098,2046,2080
2057,2051,2057,2055,2065,2066,2019,2093
2056,2046,2054,2051,2047,2044,2042,2096
2058,2047,2047,2040,2038,2037,2030,2088
2052,2043,2051,2045,2040,2046,2033,2083
2051,2047,2054,2054,2037,2069,2032,2084
2051,2052,2053,2051,2034,2064,2034,2076
2048,2043,2045,2053,2043,2049,2027,2071
2048,2039,2044,2054,2046,2041,2016,2064
2047,2046,2050,2049,2031,2034,2027,2058
2050,2047,2045,2048,2034,2040,2014,2054
2049,2053,2050,2057,2042,2039,2034,2039
2051,2051,2049,2056,2043,2015,2024,2029
2052,2052,2048,2053,2038,2002,1993,2026
2056,2046,2050,2047,2030,2009,2006,2027
2053,2048,2050,2050,2018,2027,2041,2031
2064,2048,2056,2047,2019,2041,2051,2036
2064,2049,2060,2051,2021,2062,2042,2029
2059,2049,2053,2055,2027,2066,2040,2030
2059,2047,2057,2052,2029,2056,2039,2031
2052,2036,2049,2051,2035,2054,2042,2034
2052,2036,2044,2053,2042,2073,2054,2040
2055,2048,2049,2054,2039,2082,2058,2035
2054,2044,2050,2054,2051,2086,2044,2045
2054,2042,2050,2050,2047,2075,2041,2041
2057,2037,2049,2053,2049,2030,2030,2042
2053,2039,2049,2049,2057,2011,2044,2045
2053,2037,2043,2051,2059,2033,2048,2057
2054,2038,2047,2044,2066,2049,2042,2057
2044,2035,2049,2050,2062,2044,2036,2059
2043,2035,2045,2043,2036,2018,2038,2060
2039,2031,2040,2042,2017,2009,2035,2066
2033,2024,2040,2037,2024,2020,2020,2067
2038,2027,2039,2040,2027,2030,2026,2079
2039,2027,2040,2051,2051,2066,2056,2089
2043,2031,2043,2061,2080,2074,2062,2088
2041,2026,2040,2058,2087,2058,2059,2095
2041,2028,2040,2067,2110,2041,2045,2099
2059,2049,2046,2072,2139,2035,2041,2095
2060,2050,2054,2069,2140,2019,2009,2084
2061,2050,2051,2068,2140,2022,2023,2076
2057,2050,2052,2075,2148,2031,2036,2072
2058,2048,2051,2075,2137,2052,2051,2076
2068,2043,2044,2055,2069,2046,2053,2057
2057,2038,2047,2040,2000,2053,2069,2058
2061,2043,2042,2037,1930,2047,2055,2059
2057,2036,2045,2030,1868,2047,2033,2054
2063,2038,2051,2038,1934,2057,2040,2051
2061,2040,2051,2050,2009,2059,2051,2049
2061,2043,2056,2056,2044,2056,2035,2045
2061,2048,2052,2047,2042,2061,2017,2047
2058,2050,2052,2046,2029,2047,2035,2044
2055,2036,2043,2033,2018,2036,2040,2041
2049,2030,2040,2025,2008,2031,2036,2041
2053,2044,2048,2036,2035,2025,2035,2041
2064,2050,2055,2056,2081,2029,2057,2047
2056,2045,2046,2044,2007,2033,2068,2044
2052,2041,2043,2051,2055,2054,2058,2043
2049,2037,2043,2039,2037,2041,2037,2047
2048,2033,2040,2029,1990,2034,2034,2048
2047,2031,2043,2040,1994,2057,2038,2056
2049,2027,2049,2052,2031,2064,2036,2054
2052,2029,2043,2059,2062,2084,2044,2056
2044,2033,2043,2056,2056,2105,2042,2069
2047,2028,2042,2059,2055,2124,2034,2070
2046,2032,2046,2050,2051,2140,2049,2077
2046,2035,2044,2050,2045,2102,2039,2081
2054,2029,2044,2051,2048,1991,2022,2073
2046,2020,2038,2040,2035,1960,2024,2076
2038,2024,2040,2047,2040,2004,2048,2080
2049,2037,2049,2059,2044,2040,2048,2087
2050,2046,2051,2060,2036,2036,2056,2081
2052,2046,2048,2058,2037,2055,2064,2077
2060,2049,2048,2057,2043,2072,2053,2069
2057,2045,2047,2056,2052,2078,2045,2066
2060,2046,2045,2055,2049,2077,2061,2052
2058,2041,2046,2054,2049,2050,2054,2043
2059,2038,2037,2062,2053,2022,2039,2038
2057,2038,2032,2079,2084,2058,2038,2040
2054,2036,2033,2081,2070,2053,2047,2040
2057,2038,2031,2082,2048,2036,2050,2031
2050,2047,2035,2069,2043,2033,2058,2031
2045,2058,2040,2040,2035,2041,2076,2029
2051,2066,2047,2024,2004,2034,2057,2032
2051,2056,2041,2010,1996,2025,2049,2026
2041,2050,2039,2016,2005,2025,2055,2032
2048,2052,2044,2034,2013,2037,2047,2035
2047,2047,2045,2037,2011,2035,2048,2046
2053,2049,2045,2046,2022,2026,2047,2048
2057,2046,2050,2063,2040,2039,2053,2040
2055,2047,2048,2080,2059,2057,2068,2045
2060,2043,2039,2079,2052,2059,2057,2051
2055,2042,2034,2082,2042,2047,2032,2055
2054,2026,2030,2074,2056,2040,2053,2062
2056,2020,2028,2073,2067,2027,2041,2068
2054,2016,2026,2069,2051,2019,2029,2070
2052,2018,2024,2067,2045,2021,2046,2078
2053,2017,2019,2049,2026,2020,2056,2080
2053,2010,2015,2038,2025,2007,2035,2075
2039,2011,2020,2030,2023,2023,2051,2073
2040,2006,2016,2022,2014,2026,2064,2074
2040,2013,2027,2017,2033,2021,2062,2077
2040,2019,2024,2016,2058,2023,2057,2076
2043,2019,2029,2031,2064,2030,2033,2075
2049,2024,2037,2035,2060,2037,2043,2072
2049,2032,2031,2034,2050,2032,2050,2065
2052,2036,2031,2040,2043,2032,2051,2060
2051,2038,2026,2039,2029,2033,2044,2054
2060,2043,2033,2049,2034,2049,2037,2049
2057,2056,2045,2061,2018,2068,2060,2048
2062,2058,2036,2071,2043,2075,2077,2049
2058,2052,2034,2069,2058,2075,2070,2043
2051,2039,2023,2053,2053,2074,2077,2034
2046,2002,2017,2045,2044,2073,2063,2032
2040,1980,2007,2039,2029,2069,2067,2041
2038,1978,2006,2046,2036,2068,2064,2037
2035,1960,1989,2036,2026,2064,2053,2027
2032,1962,1981,2015,1986,2041,2060,2031
2039,1974,1987,2016,2017,2050,2056,2039
2037,1980,1989,2032,2055,2044,2044,2039
2036,1994,1999,2046,2072,2029,2036,2035
2032,2003,2010,2053,2073,2021,2035,2036
2037,2011,2022,2055,2079,2027,2030,2039
2036,2017,2028,2053,2087,2019,2043,2040
2038,2024,2025,2052,2079,2009,2053,2038
2032,2027,2026,2072,2063,2010,2061,2050
2029,2026,2032,2094,2057,2031,2073,2057
2029,2029,2030,2104,2052,2044,2078,2060
2025,2036,2046,2110,2038,2061,2089,2077
2028,2039,2051,2108,2033,2074,2097,2078
2037,2047,2068,2109,2026,2067,2086,2083
2037,2056,2070,2102,2024,2064,2056,2083
2046,2053,2064,2094,2020,2056,2046,2075
2037,2043,2056,2083,2007,2061,2040,2075
2040,2042,2048,2065,2024,2100,2034,2076
2043,2039,2039,2039,2031,2098,2042,2077
2038,2042,2029,2024,2048,2036,2046,2072
2039,2041,2038,2013,2057,1946,2041,2062
2046,2044,2050,2009,2076,1973,2052,2061
2051,2054,2062,2005,2074,2017,2053,2062
2056,2059,2056,1999,2058,2040,2049,2056
2062,2062,2052,1994,2037,2039,2064,2053
2053,2055,2050,1995,2014,2000,2025,2047
2054,2047,2054,2006,2012,1989,2038,2046
2056,2045,2063,2022,2022,2004,2044,2047
2062,2046,2070,2027,2034,2033,2060,2052
2065,2048,2065,2027,2050,2032,2041,2047
2066,2044,2062,2031,2040,2036,2046,2045
2054,2045,2049,2027,2045,2033,2042,2036
2046,2035,2042,2026,2027,2025,2018,2032
2040,2036,2046,2036,2037,2034,2033,2025
2046,2051,2050,2044,2054,2039,2036,2027
2046,2065,2060,2051,2061,2053,2053,2027
2055,2067,2063,2060,2072,2041,2056,2025
2045,2063,2064,2065,2084,2072,2054,2031
2040,2060,2063,2064,2084,2095,2060,2037
2039,2059,2060,2058,2072,2083,2062,2041
2039,2054,2062,2058,2063,2071,2066,2044
2036,2060,2056,2059,2062,2055,2079,2061
2038,2057,2048,2058,2067,2042,2080,2072
2038,2049,2045,2054,2062,2038,2067,2075
2042,2048,2039,2057,2058,2032,2078,2076
2041,2049,2038,2057,2053,2026,2071,2081
2041,2041,2033,2060,2055,2021,2068,2088
2042,2043,2037,2051,2053,2027,2041,2085
2036,2042,2031,2045,2045,2016,2046,2078
2033,2033,2036,2047,2034,2013,2037,2069
2039,2043,2058,2058,2034,2029,2031,2065
2038,2048,2071,2065,2048,2039,2052,2066
2038,2058,2082,2068,2049,2063,2054,2058
2035,2051,2086,2074,2056,2093,2044,2053
2039,2050,2085,2074,2047,2087,2055,2053
2046,2055,2089,2070,2043,2062,2047,2049
2044,2056,2094,2063,2032,2046,2049,2043
2039,2052,2089,2061,2035,2033,2048,2034
2046,2054,2085,2067,2033,2020,2035,2041
2061,2057,2074,2064,2034,2021,2060,2047
2063,2055,2079,2069,2049,2031,2050,2046
2058,2064,2081,2074,2061,2033,2059,2048
2064,2063,2082,2082,2063,2039,2045,2042
2064,2070,2077,2076,2068,2041,2058,2041
2070,2069,2075,2077,2063,2030,2056,2032
2064,2058,2067,2064,2061,2012,2055,2030
2061,2060,2059,2060,2061,2016,2058,2033
2057,2065,2061,2056,2064,2030,2060,2035
2054,2065,2058,2044,2064,2043,2067,2036
2057,2065,2056,2043,2061,2071,2070,2045
2057,2069,2043,2041,2063,2082,2072,2053
2057,2074,2037,2043,2074,2085,2085,2062
2060,2074,2037,2048,2078,2093,2083,2061
2056,2075,2036,2058,2092,2099,2064,2067
2056,2075,2049,2065,2090,2089,2081,2071
2055,2075,2056,2059,2089,2084,2070,2080
2057,2071,2048,2054,2073,2072,2046,2077
2056,2070,2047,2047,2059,2063,2042,2078
2051,2072,2055,2050,2060,2056,2033,2079
2054,2067,2053,2040,2060,2056,2044,2091
2049,2067,2059,2044,2037,2055,2044,2086
2052,2061,2048,2030,2043,2049,2034,2085
2045,2059,2047,2038,2060,2048,2037,2087
2046,2062,2052,2047,2059,2057,2038,2093
2056,2069,2057,2049,2051,2054,2059,2091
2055,2067,2064,2051,2047,2055,2052,2088
2054,2062,2070,2051,2048,2048,2055,2083
2048,2065,2069,2053,2050,2051,2062,2080
2048,2064,2066,2050,2050,2063,2047,2072
2052,2061,2068,2048,2050,2065,2058,2066
2050,2059,2065,2052,2062,2065,2068,2062
2048,2061,2067,2057,2066,2076,2069,2057
2045,2053,2061,2056,2060,2081,2057,2055
2049,2055,2063,2052,2056,2088,2045,2045
2048,2056,2058,2048,2050,2088,2041,2042
2048,2063,2056,2051,2049,2078,2050,2047
2049,2058,2059,2057,2050,2079,2026,2038
2041,2056,2055,2063,2056,2084,2007,2029
2040,2047,2057,2058,2050,2078,1997,2013
2036,2044,2049,2049,2050,2061,1998,2022
2036,2051,2055,2053,2057,2058,2001,2030
2043,2049,2054,2054,2061,2059,2002,2023
2038,2052,2056,2060,2077,2060,2030,2041
2042,2052,2057,2059,2075,2043,2041,2043
2040,2053,2054,2061,2075,2040,2025,2044
2046,2057,2052,2063,2073,2045,2040,2041
2047,2051,2052,2060,2059,2046,2059,2047
2049,2049,2053,2051,2028,2030,2038,2051
2045,2056,2057,2051,2027,2035,2032,2057
2047,2050,2054,2056,2042,2044,2038,2070
2047,2051,2055,2064,2054,2058,2036,2073
2044,2047,2050,2064,2058,2049,2044,2071
2047,2049,2047,2064,2054,2056,2057,2072
2048,2054,2047,2056,2055,2064,2052,2078
2053,2046,2045,2049,2075,2058,2039,2072
2035,2036,2039,2041,2068,2041,2008,2061
2040,2038,2042,2043,2078,2025,2008,2070
2043,2049,2043,2057,2106,2011,2002,2070
2050,2057,2049,2065,2123,2014,2037,2079
2056,2059,2050,2074,2146,2044,2046,2079
2063,2059,2051,2069,2132,2063,2060,2069
2059,2055,2052,2069,2107,2082,2064,2067
2056,2054,2051,2068,1999,2073,2052,2052
2055,2049,2051,2053,1944,2057,2042,2049
2057,2054,2051,2052,1974,2072,2061,2041
2055,2056,2054,2049,1982,2083,2075,2043
2056,2060,2056,2046,1988,2078,2068,2040
2057,2065,2055,2044,2035,2061,2063,2036
2057,2057,2045,2029,2008,2028,2070,2033
2052,2047,2040,2010,1940,2016,2043,2030
2053,2052,2038,2027,1984,2031,2061,2032
2054,2050,2045,2039,2020,2033,2049,2023
2047,2041,2043,2037,2044,2036,2047,2020
2046,2041,2046,2044,2044,2047,2041,2024
2055,2054,2053,2056,2072,2054,2042,2023
2057,2053,2050,2059,2094,2057,2033,2025
2053,2059,2054,2057,2069,2055,2043,2027
2060,2057,2061,2050,2039,2060,2047,2030
2060,2058,2060,2048,2032,2054,2045,2035
2052,2056,2054,2056,2015,2048,2053,2040
2049,2052,2049,2052,2048,2046,2048,2040
2047,2054,2050,2052,2073,2047,2042,2049
2047,2047,2050,2059,2067,2050,2041,2059
2053,2044,2049,2055,2076,2061,2040,2066
2049,2045,2048,2050,2061,2066,2038,2070
2050,2047,2054,2050,2050,2054,2052,2076
2048,2049,2053,2056,2046,2037,2056,2078
2059,2045,2050,2049,2013,2016,2056,2082
2054,2046,2044,2033,2004,2022,2045,2075
2046,2032,2039,2031,2038,2051,2038,2078
2038,2035,2041,2035,2037,2056,2054,2069
2045,2040,2039,2030,2016,2059,2035,2063
2037,2038,2035,2029,2015,2077,2029,2059
2036,2037,2042,2032,2035,2111,2026,2046
2043,2044,2040,2039,2039,2117,2034,2047
2046,2045,2041,2045,2052,2077,2036,2046
2045,2046,2041,2042,2044,1986,2030,2045
2043,2046,2039,2045,2045,1981,2047,2038
2049,2048,2044,2046,2046,2009,2046,2039
2052,2046,2047,2046,2046,2041,2055,2040
2057,2046,2044,2051,2057,2049,2048,2043
2055,2041,2045,2053,2060,2056,2059,2046
2055,2044,2047,2046,2052,2056,2049,2038
2060,2051,2050,2046,2052,2057,2041,2028
2057,2051,2045,2054,2052,2057,2041,2033
2052,2043,2037,2041,2041,2055,2045,2025
2049,2040,2034,2044,2049,2061,2050,2036
2057,2053,2046,2047,2057,2074,2061,2037
2062,2059,2058,2051,2061,2072,2058,2037
2068,2060,2059,2055,2057,2050,2052,2035
2065,2058,2061,2057,2059,2052,2051,2039
2066,2059,2062,2051,2052,2058,2037,2054
2068,2064,2061,2057,2054,2047,2025,2056
2067,2062,2055,2053,2047,2034,2028,2056
2063,2061,2056,2054,2049,2029,2035,2051
2062,2053,2054,2055,2048,2033,2025,2049
2052,2041,2047,2045,2048,2046,2016,2053
2047,2041,2041,2048,2052,2058,2030,2061
2046,2049,2052,2051,2055,2065,2049,2074
2044,2047,2046,2050,2054,2066,2046,2076
2050,2051,2056,2052,2051,2062,2052,2082
2045,2053,2052,2051,2051,2063,2053,2085
2047,2046,2049,2044,2049,2062,2038,2081
2044,2048,2040,2041,2037,2049,2054,2080
2054,2053,2049,2047,2033,2037,2055,2078
2054,2052,2051,2041,2038,2024,2043,2070
2053,2051,2050,2045,2037,2026,2055,2066
2054,2052,2049,2047,2047,2038,2058,2068
2050,2052,2050,2053,2042,2042,2070,2065
2051,2054,2055,2054,2041,2046,2072,2060
2055,2058,2056,2053,2041,2049,2062,2051
2059,2057,2052,2053,2045,2053,2071,2047
2058,2059,2055,2058,2049,2063,2067,2042
2061,2054,2054,2056,2041,2067,2029,2035
2053,2051,2051,2047,2038,2079,2036,2033
2045,2048,2051,2047,2040,2116,2050,2038
2047,2049,2048,2050,2036,2106,2046,2035
2047,2052,2049,2059,2039,2034,2013,2023
2043,2049,2051,2052,2029,1913,1993,2015
2043,2040,2041,2047,2022,1906,1998,2014
2038,2038,2042,2045,2031,1985,2037,2020
2038,2044,2048,2047,2047,2075,2042,2020
2040,2048,2048,2050,2056,2094,2039,2026
2041,2047,2048,2058,2052,2079,2030,2026
2043,2046,2052,2063,2060,2064,2036,2036
2049,2045,2054,2063,2059,2060,2042,2037
2049,2043,2051,2064,2062,2063,2060,2048
2050,2045,2052,2066,2064,2061,2038,2047
2043,2042,2055,2063,2069,2062,2046,2054
2041,2041,2054,2067,2061,2058,2047,2057
2041,2045,2056,2065,2055,2043,2032,2056
2042,2044,2054,2063,2057,2032,2038,2062
2044,2043,2053,2062,2047,2030,2031,2062
2042,2043,2050,2059,2049,2034,2041,2066
2040,2041,2046,2041,2044,2035,2038,2068
2044,2045,2044,2032,2043,2032,2033,2066
2038,2038,2033,2030,2054,2040,2028,2071
2041,2046,2044,2046,2055,2051,2048,2074
2051,2060,2044,2057,2052,2040,2051,2070
2052,2060,2049,2054,2050,2025,2031,2066
2053,2061,2054,2058,2048,2016,2027,2068
2052,2062,2054,2057,2043,2012,2022,2060
2048,2060,2053,2050,2036,2014,2036,2058
2058,2069,2055,2054,2036,2024,2041,2046
2060,2073,2060,2059,2036,2030,2049,2046
2065,2074,2054,2049,2024,2042,2052,2044
2060,2069,2054,2047,2016,2063,2031,2042
2056,2069,2057,2048,2021,2069,2055,2033
2055,2062,2057,2040,2022,2066,2051,2028
2059,2058,2050,2042,2031,2079,2060,2025
2058,2057,2052,2045,2031,2072,2066,2031
2058,2055,2053,2047,2029,2053,2059,2035
2061,2050,2050,2039,2001,2018,2045,2026
2053,2048,2048,2038,2001,2012,2025,2024
2053,2052,2048,2032,2017,2030,2020,2021
2040,2045,2046,2028,2029,2038,2016,2014
2038,2041,2046,2023,2055,2052,2035,2012
2045,2050,2047,2027,2066,2067,2045,2022
2052,2052,2056,2039,2084,2093,2059,2031
2057,2059,2052,2044,2077,2124,2060,2036
2053,2058,2048,2039,2062,2133,2062,2049
2057,2065,2049,2035,2057,2097,2064,2054
2056,2059,2047,2035,2044,2044,2056,2060
2053,2061,2045,2037,2058,2045,2047,2055
2047,2055,2045,2039,2061,2066,2031,2058
2043,2050,2043,2048,2067,2087,2064,2065
2050,2052,2051,2049,2089,2114,2084,2071
2049,2043,2039,2060,2111,2126,2082,2068
2042,2044,2037,2064,2110,2122,2070,2075
2032,2029,2033,2053,2089,2102,2053,2078
2036,2026,2029,2048,2082,2101,2066,2073
2050,2047,2039,2054,2074,2101,2082,2075
2053,2044,2039,2052,2088,2114,2076,2064
2052,2049,2043,2052,2077,2096,2065,2061
2051,2047,2047,2055,2069,2061,2030,2056
2052,2052,2051,2057,2057,2034,2049,2047
