CH1,CH2,CH3,CH4,CH5,CH6,CH7,CH8
2043,2040,2047,2058,2042,2036,2028,2033
2050,2038,2063,2074,2041,2038,2057,2035
2051,2041,2070,2068,2039,2033,2034,2034
2048,2044,2056,2073,2043,2038,2035,2037
2049,2042,2057,2071,2041,2034,2055,2039
2051,2040,2062,2077,2032,2035,2045,2038
2058,2044,2069,2082,2036,2028,2041,2037
2055,2036,2059,2078,2033,2034,2022,2037
2050,2032,2054,2080,2033,2050,2024,2032
2054,2043,2064,2095,2041,2052,2044,2030
2053,2049,2065,2098,2036,2050,2047,2036
2052,2055,2059,2102,2054,2052,2052,2039
2055,2059,2064,2118,2074,2038,2053,2051
2060,2064,2066,2125,2090,2029,2061,2053
2058,2046,2050,2100,2088,2041,2043,2047
2042,2031,2036,2078,2071,2054,2036,2048
2050,2037,2033,2067,2056,2066,2036,2049
2053,2045,2032,2059,2054,2069,2040,2054
2055,2039,2032,2046,2056,2036,2021,2054
2050,2041,2037,2043,2056,2032,2039,2071
2047,2035,2037,2038,2057,2054,2046,2072
2045,2039,2049,2036,2056,2094,2051,2065
2042,2041,2052,2032,2049,2108,2052,2072
2045,2047,2047,2027,2042,2088,2047,2076
2039,2041,2031,2026,2042,2058,2034,2071
2044,2049,2018,2036,2047,2043,2042,2076
2043,2045,2011,2023,2038,2019,2044,2067
2042,2033,2001,2009,2037,2007,2049,2073
2044,2027,1992,2011,2036,2005,2050,2064
2047,2024,2003,2016,2035,2001,2055,2061
2054,2039,2023,2029,2032,2013,2035,2062
2049,2048,2026,2028,2035,2031,2045,2057
2042,2049,2035,2023,2037,2056,2033,2052
2039,2048,2047,2037,2036,2061,2056,2045
2035,2045,2055,2038,2042,2066,2048,2045
2039,2042,2048,2042,2037,2056,2057,2034
2045,2043,2048,2036,2028,2052,2035,2043
2047,2046,2054,2037,2017,2049,2049,2039
2047,2046,2064,2038,2007,2042,2050,2033
2054,2048,2070,2039,1991,2037,2034,2026
2043,2043,2070,2028,1995,2030,2029,2021
2044,2049,2076,2036,1989,2034,2039,2032
2047,2055,2075,2046,1994,2037,2045,2031
2052,2057,2060,2042,1992,2038,2048,2030
2048,2054,2053,2049,2030,2044,2058,2036
2052,2066,2056,2052,2049,2051,2068,2042
2054,2057,2049,2052,2052,2054,2051,2043
2050,2057,2041,2049,2080,2053,2055,2043
2048,2053,2043,2061,2124,2053,2052,2047
2050,2051,2049,2078,2139,2055,2019,2058
2055,2050,2062,2090,2132,2059,2046,2059
2052,2048,2057,2080,2102,2052,2033,2061
2046,2038,2049,2081,2045,2033,2039,2058
2037,2030,2047,2075,1965,2025,2037,2049
2030,2024,2046,2071,1999,2046,2022,2057
2029,2016,2042,2073,2014,2061,2039,2051
2042,2021,2033,2073,2024,2048,2032,2055
2033,2016,2040,2075,2022,2047,2025,2056
2038,2024,2038,2086,2043,2052,2041,2061
2048,2038,2051,2094,2072,2031,2053,2063
2059,2054,2066,2110,2078,2032,2082,2061
2059,2056,2056,2101,2048,2040,2067,2054
2051,2045,2047,2075,2015,2034,2065,2040
2037,2029,2027,2037,2000,2028,2046,2038
2015,2021,2016,2008,2000,2029,2034,2025
2015,2032,2031,2008,2005,2043,2031,2031
2033,2044,2053,2005,2019,2050,2041,2035
2043,2050,2058,2004,2016,2054,2030,2040
2051,2055,2057,1998,2010,2034,2037,2044
2052,2060,2067,1990,2012,1999,2040,2042
2056,2057,2052,1994,2045,1998,2049,2045
2054,2053,2045,2006,2086,2023,2057,2044
2052,2042,2037,2019,2093,2044,2056,2045
2040,2034,2044,2024,2084,2053,2049,2039
2047,2051,2061,2029,2077,2053,2061,2036
2052,2060,2070,2029,2055,2054,2043,2034
2051,2061,2070,2028,2061,2058,2042,2038
2052,2068,2074,2042,2097,2068,2047,2042
2057,2069,2085,2053,2095,2065,2057,2041
2058,2062,2071,2051,2076,2062,2057,2051
2061,2060,2065,2047,2068,2064,2063,2055
2057,2052,2056,2047,2064,2057,2062,2063
2053,2051,2046,2044,2047,2065,2060,2062
2055,2052,2038,2045,2036,2062,2050,2062
2046,2046,2032,2043,2007,2056,2050,2063
2044,2040,2029,2037,2028,2047,2054,2070
2054,2050,2030,2048,2044,2041,2053,2078
2049,2049,2034,2049,2034,2031,2064,2074
2028,2038,2025,2052,2029,2043,2050,2053
2010,2006,2008,2039,2039,2046,2023,2060
2013,2018,2017,2045,2084,2057,2025,2072
2034,2034,2038,2064,2085,2062,2042,2069
2043,2042,2043,2061,2057,2060,2056,2065
2040,2047,2045,2054,2045,2047,2051,2065
2045,2049,2049,2051,2034,2038,2034,2062
2058,2054,2054,2048,2033,2032,2021,2056
2051,2061,2062,2048,2039,2028,2051,2047
2053,2055,2052,2034,1991,2009,2038,2043
2046,2046,2052,2035,2012,2022,2043,2037
2042,2035,2041,2041,2043,2033,2029,2030
2039,2029,2035,2038,2043,2040,2048,2025
2043,2037,2054,2045,2045,2043,2037,2017
2048,2055,2076,2057,2060,2045,2044,2014
2055,2063,2087,2060,2064,2041,2034,2022
2049,2056,2080,2061,2075,2053,2041,2025
2043,2045,2061,2066,2084,2054,2044,2014
2030,2034,2055,2076,2079,2055,2037,2019
2033,2035,2051,2076,2077,2061,2034,2026
2036,2030,2044,2062,2075,2055,2036,2028
2036,2030,2040,2068,2069,2058,2050,2033
2037,2034,2050,2068,2070,2064,2046,2033
2040,2038,2053,2067,2068,2066,2050,2031
2042,2034,2049,2061,2066,2057,2047,2034
2037,2037,2050,2056,2055,2055,2045,2047
2042,2036,2034,2060,2051,2053,2048,2047
2037,2036,2040,2059,2051,2043,2054,2053
2040,2043,2034,2066,2052,2038,2023,2055
2043,2053,2047,2070,2059,2042,2032,2059
2046,2060,2050,2071,2058,2046,2055,2065
2045,2054,2038,2056,2062,2039,2064,2067
2045,2049,2031,2043,2048,2045,2064,2072
2046,2045,2030,2035,2041,2036,2053,2067
2041,2047,2044,2048,2042,2037,2043,2071
2047,2049,2056,2057,2055,2049,2049,2081
2052,2056,2066,2064,2049,2049,2068,2069
2050,2052,2071,2074,2054,2050,2052,2059
2050,2045,2062,2075,2064,2053,2044,2063
2051,2049,2054,2069,2060,2053,2053,2061
2056,2045,2046,2068,2056,2050,2047,2056
2059,2042,2045,2072,2046,2052,2044,2046
2054,2050,2064,2085,2054,2058,2055,2041
2061,2057,2081,2094,2057,2064,2053,2027
2060,2055,2087,2085,2045,2055,2054,2026
2063,2055,2076,2074,2043,2049,2044,2025
2063,2052,2059,2065,2039,2045,2020,2030
2051,2044,2034,2050,2034,2047,2018,2021
2037,2037,2014,2042,2033,2043,2036,2024
2034,2038,2016,2041,2038,2041,2023,2021
2033,2037,2007,2036,2036,2046,2022,2023
2034,2049,2015,2039,2046,2052,2035,2028
2049,2064,2025,2052,2060,2061,2055,2040
2057,2072,2023,2055,2055,2058,2060,2044
2057,2067,2016,2056,2052,2059,2070,2050
2066,2067,2008,2043,2050,2059,2057,2052
2061,2060,2002,2038,2041,2056,2049,2056
2056,2051,1998,2033,2037,2046,2055,2062
2062,2047,2004,2031,2029,2040,2051,2060
2054,2050,2012,2038,2043,2044,2047,2051
2047,2053,2015,2039,2049,2052,2059,2051
2040,2044,2033,2045,2058,2057,2057,2054
2045,2047,2057,2044,2052,2059,2031,2066
2053,2047,2062,2043,2044,2056,2042,2076
2062,2050,2069,2035,2046,2055,2032,2093
2064,2052,2066,2041,2044,2057,2038,2082
2055,2049,2064,2051,2045,2055,2037,2076
2047,2053,2064,2058,2049,2052,2037,2075
2050,2055,2071,2069,2047,2057,2041,2071
2051,2041,2069,2062,2044,2055,2042,2066
2045,2039,2058,2062,2050,2060,2054,2055
2044,2042,2056,2066,2045,2065,2062,2060
2032,2051,2065,2080,2038,2066,2039,2066
2041,2063,2094,2102,2042,2073,2078,2067
2056,2080,2111,2106,2046,2078,2048,2059
2054,2063,2102,2097,2042,2070,2061,2047
2044,2046,2087,2088,2039,2058,2052,2037
2037,2037,2083,2092,2043,2044,2049,2032
2044,2040,2077,2094,2046,2040,2036,2034
2043,2042,2074,2095,2040,2034,2032,2029
2057,2046,2058,2099,2043,2037,2044,2026
2050,2045,2042,2095,2038,2034,2039,2019
2047,2039,2028,2081,2042,2032,2023,2014
2034,2038,2036,2091,2050,2046,2042,2020
2042,2049,2054,2096,2060,2058,2044,2024
2048,2058,2057,2089,2054,2053,2033,2029
2044,2053,2051,2072,2046,2043,2034,2026
2052,2056,2055,2065,2049,2042,2032,2039
2054,2060,2052,2060,2059,2045,2034,2042
2057,2053,2036,2044,2052,2042,2027,2039
2042,2041,2022,2019,2035,2034,2034,2048
2039,2031,2014,2007,2026,2029,2050,2042
2031,2020,2018,2005,2022,2030,2039,2049
2045,2051,2055,2028,2040,2044,2054,2060
2057,2084,2086,2048,2055,2051,2058,2077
2064,2094,2085,2051,2048,2052,2063,2079
2070,2088,2078,2048,2049,2037,2049,2084
2061,2082,2065,2035,2024,2022,2049,2075
2064,2070,2046,2025,2001,2015,2034,2076
2051,2057,2032,2008,1987,2013,2028,2075
2053,2068,2029,2000,1985,2023,2028,2074
2053,2059,2026,1999,1998,2038,2027,2068
2053,2060,2036,2018,2030,2058,2032,2070
2059,2064,2044,2027,2070,2061,2059,2072
2064,2069,2050,2036,2091,2071,2076,2069
2060,2064,2056,2044,2088,2079,2048,2056
2063,2062,2062,2054,2078,2069,2026,2046
2062,2065,2067,2057,2065,2064,2037,2038
2055,2065,2070,2052,2060,2058,2042,2043
2057,2064,2072,2051,2049,2051,2037,2050
2053,2061,2063,2047,2045,2050,2041,2040
2048,2057,2053,2040,2053,2050,2044,2034
2043,2053,2042,2045,2048,2050,2026,2029
2040,2055,2047,2044,2053,2056,2052,2027
2045,2054,2041,2042,2051,2054,2034,2028
2039,2048,2031,2031,2040,2060,2046,2024
2034,2044,2033,2034,2051,2068,2063,2027
2046,2068,2044,2052,2060,2084,2077,2039
2052,2066,2042,2058,2069,2084,2082,2043
2054,2059,2044,2057,2070,2076,2077,2043
2057,2057,2044,2059,2062,2074,2079,2052
2052,2054,2044,2057,2057,2068,2068,2050
2057,2054,2047,2049,2058,2060,2057,2059
2060,2060,2051,2050,2041,2046,2064,2056
2051,2055,2053,2047,2039,2036,2058,2056
2049,2056,2048,2050,2035,2037,2064,2055
2043,2052,2049,2053,2040,2046,2050,2057
2042,2053,2047,2052,2040,2053,2056,2063
2037,2051,2051,2050,2040,2053,2059,2072
2044,2050,2051,2042,2038,2047,2053,2078
2039,2046,2057,2047,2033,2046,2059,2082
2040,2038,2052,2048,2029,2042,2048,2078
2036,2039,2042,2046,2029,2042,2043,2075
2035,2042,2043,2043,2033,2048,2044,2073
2041,2042,2043,2044,2038,2046,2043,2069
2028,2038,2041,2044,2041,2051,2054,2063
2042,2044,2046,2056,2050,2056,2060,2053
2039,2051,2054,2064,2046,2053,2064,2050
2047,2051,2055,2060,2038,2048,2067,2047
2049,2053,2060,2057,2038,2049,2049,2039
2049,2063,2062,2062,2036,2056,2047,2041
2051,2057,2059,2062,2039,2048,2035,2033
2048,2049,2054,2054,2039,2045,2045,2035
2052,2054,2051,2061,2034,2045,2035,2029
2045,2052,2048,2052,2036,2047,2052,2029
2046,2048,2044,2050,2042,2050,2068,2028
2046,2049,2042,2053,2040,2052,2054,2025
2048,2048,2041,2046,2040,2046,2059,2027
2040,2036,2028,2043,2039,2047,2055,2022
2033,2033,2039,2041,2044,2053,2053,2024
2050,2048,2045,2050,2043,2053,2060,2033
2041,2049,2047,2050,2048,2052,2074,2036
2047,2049,2049,2045,2045,2054,2064,2040
2052,2050,2052,2054,2044,2056,2061,2046
2053,2048,2052,2062,2040,2056,2055,2047
2049,2051,2053,2057,2046,2054,2050,2051
2044,2052,2054,2059,2046,2057,2054,2049
2046,2048,2051,2059,2049,2054,2059,2053
2041,2047,2051,2054,2048,2049,2056,2060
2042,2047,2050,2058,2049,2050,2056,2065
2042,2049,2050,2055,2047,2045,2057,2068
2041,2052,2054,2056,2049,2047,2036,2064
2041,2052,2057,2057,2041,2048,2041,2070
2036,2049,2047,2056,2043,2043,2049,2076
2037,2043,2042,2051,2039,2036,2051,2067
2038,2041,2040,2048,2033,2038,2063,2076
2043,2054,2054,2053,2046,2051,2045,2078
2046,2056,2050,2047,2038,2042,2053,2079
2052,2063,2050,2046,2037,2043,2033,2071
2054,2062,2045,2039,2037,2047,2051,2061
2052,2056,2043,2033,2035,2046,2065,2049
2047,2054,2037,2029,2036,2044,2068,2047
2048,2055,2040,2032,2034,2044,2064,2040
2042,2060,2038,2032,2045,2049,2069,2039
2052,2056,2036,2036,2048,2055,2072,2039
2048,2057,2036,2036,2054,2050,2078,2033
2044,2057,2050,2041,2053,2058,2068,2024
2045,2055,2042,2039,2048,2050,2054,2021
2041,2050,2042,2034,2051,2049,2053,2024
2043,2044,2041,2032,2048,2046,2065,2026
2042,2039,2028,2034,2044,2040,2047,2023
2029,2032,2023,2034,2039,2045,2052,2021
2039,2048,2042,2043,2056,2054,2061,2030
2041,2051,2040,2042,2052,2054,2064,2032
2047,2045,2039,2048,2054,2047,2071,2039
2044,2052,2035,2045,2053,2051,2062,2043
2045,2053,2045,2053,2059,2054,2062,2052
2041,2056,2048,2045,2056,2051,2065,2043
2043,2059,2041,2050,2048,2052,2071,2048
2041,2058,2040,2046,2060,2053,2064,2054
2048,2053,2040,2044,2054,2052,2062,2061
2043,2051,2048,2041,2060,2052,2059,2065
2046,2050,2047,2042,2053,2048,2060,2065
2037,2047,2042,2043,2055,2051,2057,2069
2043,2039,2038,2047,2053,2046,2054,2073
2041,2043,2038,2043,2049,2049,2059,2072
2037,2046,2037,2033,2044,2041,2056,2062
2031,2035,2028,2038,2039,2043,2060,2065
2031,2049,2044,2042,2053,2047,2061,2066
2045,2055,2047,2049,2045,2049,2066,2072
2045,2057,2043,2042,2050,2046,2058,2062
2056,2058,2043,2041,2043,2049,2050,2064
2051,2057,2043,2042,2045,2044,2034,2043
2040,2047,2039,2038,2042,2041,2050,2034
2047,2050,2042,2039,2041,2044,2060,2040
2051,2042,2043,2048,2046,2046,2065,2033
2049,2044,2044,2040,2050,2051,2041,2032
2046,2044,2051,2046,2052,2045,2068,2030
2048,2043,2047,2046,2062,2050,2040,2026
2042,2046,2044,2044,2047,2043,2060,2024
2046,2046,2045,2040,2046,2045,2054,2018
2050,2045,2045,2047,2047,2045,2056,2022
2048,2049,2045,2047,2039,2040,2054,2013
2045,2043,2042,2043,2042,2035,2057,2016
2041,2048,2043,2049,2044,2038,2067,2019
2048,2056,2037,2051,2045,2047,2071,2027
2046,2049,2042,2047,2051,2047,2061,2031
2045,2048,2045,2041,2050,2048,2065,2026
2041,2045,2042,2042,2047,2044,2061,2029
2042,2039,2046,2042,2047,2045,2068,2026
2040,2042,2052,2046,2050,2048,2057,2030
2036,2045,2047,2050,2052,2045,2068,2036
2036,2043,2047,2045,2054,2047,2056,2035
2032,2036,2047,2039,2043,2046,2068,2037
2038,2034,2033,2046,2045,2039,2066,2052
2029,2036,2043,2048,2053,2046,2047,2054
2030,2032,2041,2045,2051,2047,2050,2062
2041,2042,2049,2038,2058,2041,2060,2063
2045,2045,2052,2043,2046,2047,2058,2068
2045,2040,2042,2035,2038,2036,2047,2055
2033,2033,2038,2029,2036,2031,2051,2053
2037,2037,2047,2033,2040,2041,2059,2065
2042,2046,2045,2033,2035,2042,2059,2070
2034,2044,2043,2043,2037,2046,2064,2064
2039,2035,2039,2037,2041,2042,2027,2059
2034,2036,2036,2037,2047,2046,2018,2045
2032,2042,2041,2041,2049,2047,2043,2040
2035,2047,2044,2041,2041,2050,2038,2038
2035,2042,2041,2043,2039,2048,2061,2035
2038,2043,2044,2048,2042,2053,2056,2033
2042,2050,2049,2047,2051,2048,2072,2033
2045,2048,2045,2044,2048,2049,2066,2019
2041,2049,2052,2046,2044,2050,2072,2019
2038,2046,2051,2046,2046,2047,2060,2017
2037,2050,2051,2041,2039,2051,2061,2028
2043,2043,2047,2044,2039,2047,2064,2018
2039,2036,2042,2036,2039,2044,2057,2022
2035,2031,2042,2038,2038,2039,2037,2023
2043,2048,2047,2040,2037,2040,2043,2022
2052,2050,2050,2041,2035,2038,2061,2027
2051,2050,2050,2039,2041,2044,2058,2028
2056,2054,2060,2046,2050,2047,2070,2034
2048,2060,2062,2047,2050,2044,2061,2040
2051,2068,2061,2049,2048,2048,2072,2050
2060,2067,2062,2044,2051,2044,2061,2055
2060,2066,2059,2044,2047,2042,2058,2062
2049,2063,2054,2041,2051,2039,2054,2066
2048,2060,2048,2041,2051,2047,2062,2060
2044,2060,2050,2045,2058,2045,2056,2065
2051,2053,2055,2049,2052,2044,2053,2071
2042,2053,2052,2045,2053,2048,2028,2072
2047,2053,2051,2048,2049,2047,2052,2078
2043,2049,2043,2042,2040,2039,2045,2073
2031,2037,2039,2037,2038,2040,2058,2074
2040,2041,2045,2040,2039,2044,2064,2086
2050,2053,2048,2040,2039,2041,2058,2075
2056,2062,2059,2046,2045,2041,2054,2069
2053,2068,2056,2049,2049,2042,2041,2061
2049,2067,2058,2045,2043,2043,2052,2051
2048,2059,2058,2039,2042,2045,2042,2048
2049,2058,2054,2039,2040,2041,2055,2035
2054,2057,2054,2038,2050,2043,2048,2033
2047,2052,2057,2041,2048,2040,2049,2026
2044,2050,2054,2040,2042,2045,2035,2029
2045,2049,2051,2041,2052,2047,2035,2026
2043,2046,2050,2039,2051,2047,2032,2028
2044,2045,2054,2038,2049,2049,2049,2025
2046,2045,2052,2034,2048,2047,2047,2024
2050,2047,2050,2040,2045,2045,2041,2018
2044,2044,2044,2030,2044,2045,2029,2021
2049,2048,2048,2031,2051,2047,2036,2026
2057,2062,2052,2041,2056,2049,2048,2030
2060,2058,2059,2035,2045,2045,2070,2037
2053,2059,2055,2038,2048,2042,2069,2034
2054,2058,2056,2038,2051,2044,2059,2042
2060,2060,2052,2045,2053,2040,2053,2052
2057,2059,2047,2044,2047,2036,2055,2052
2051,2052,2052,2038,2052,2032,2057,2048
2048,2049,2054,2038,2048,2032,2058,2049
2053,2052,2052,2036,2050,2035,2056,2063
2053,2055,2052,2034,2035,2032,2058,2063
2051,2055,2049,2034,2035,2030,2058,2066
2043,2051,2045,2033,2036,2036,2050,2072
2049,2048,2046,2028,2048,2050,2041,2070
2049,2049,2045,2030,2040,2052,2035,2069
2043,2040,2035,2024,2032,2048,2047,2065
2040,2035,2034,2020,2033,2052,2042,2074
2050,2043,2040,2026,2032,2063,2039,2075
2053,2046,2044,2021,2029,2058,2049,2067
2045,2048,2043,2029,2036,2048,2050,2050
2045,2043,2042,2020,2028,2042,2050,2040
2039,2040,2040,2022,2033,2038,2054,2046
2040,2043,2039,2025,2035,2039,2050,2043
2043,2039,2037,2028,2040,2047,2059,2046
2047,2041,2038,2031,2041,2047,2059,2038
2049,2050,2046,2033,2047,2056,2064,2040
2049,2057,2055,2037,2052,2052,2045,2039
2054,2056,2056,2039,2045,2046,2040,2035
2057,2050,2055,2035,2047,2047,2048,2028
2051,2052,2057,2032,2049,2045,2053,2032
2052,2057,2052,2036,2045,2046,2049,2030
2057,2060,2053,2036,2042,2045,2033,2020
2048,2050,2048,2024,2046,2043,2036,2014
2048,2044,2050,2030,2049,2054,2025,2027
2050,2054,2051,2034,2046,2066,2055,2030
2045,2058,2051,2034,2051,2075,2043,2033
2053,2052,2057,2036,2043,2084,2062,2041
2055,2052,2052,2040,2048,2074,2055,2043
2057,2058,2056,2039,2042,2023,2056,2049
2056,2062,2058,2034,2044,1990,2051,2052
2057,2061,2055,2032,2041,2000,2049,2058
2056,2064,2053,2034,2040,2009,2058,2063
2051,2052,2056,2039,2036,2020,2036,2058
2043,2055,2053,2036,2038,2026,2045,2061
2042,2043,2058,2028,2045,2043,2044,2068
2042,2051,2054,2036,2048,2065,2043,2080
2052,2046,2053,2036,2052,2074,2044,2081
2061,2048,2044,2036,2045,2071,2047,2077
2050,2035,2044,2027,2038,2070,2047,2073
2037,2030,2036,2025,2038,2060,2040,2078
2041,2034,2035,2024,2035,2056,2045,2070
2036,2036,2036,2023,2043,2057,2059,2069
2043,2042,2048,2032,2048,2064,2064,2062
2049,2055,2060,2043,2048,2065,2074,2064
2066,2075,2068,2042,2056,2067,2067,2052
2072,2065,2068,2044,2050,2054,2041,2050
2060,2063,2059,2042,2046,2043,2054,2047
2058,2059,2057,2036,2040,2028,2063,2041
2054,2052,2053,2036,2032,2021,2054,2039
2060,2051,2052,2034,2035,2030,2065,2043
2056,2058,2048,2030,2038,2048,2052,2041
2059,2055,2050,2033,2036,2043,2057,2035
2065,2057,2049,2029,2034,2028,2060,2027
2053,2057,2044,2039,2023,2017,2059,2032
2050,2044,2035,2029,2021,2013,2043,2031
2046,2046,2034,2028,2024,2014,2059,2026
2053,2050,2044,2031,2029,2024,2069,2032
2055,2050,2048,2032,2026,2026,2068,2040
2049,2049,2048,2033,2027,2029,2062,2039
2055,2049,2051,2034,2042,2038,2062,2038
2058,2054,2051,2041,2042,2049,2073,2040
2052,2053,2052,2035,2041,2052,2062,2042
2050,2056,2053,2037,2039,2044,2062,2044
2048,2052,2054,2031,2036,2024,2037,2046
2042,2047,2052,2028,2025,2017,2033,2046
2038,2048,2054,2031,2029,2028,2047,2051
2051,2049,2054,2039,2041,2032,2044,2072
2055,2049,2057,2037,2048,2046,2068,2083
2059,2045,2050,2035,2046,2045,2066,2088
2057,2040,2042,2032,2040,2047,2085,2096
2055,2040,2039,2026,2035,2036,2065,2092
2056,2026,2038,2026,2029,2036,2064,2093
2054,2040,2046,2030,2032,2041,2066,2083
2054,2045,2046,2032,2038,2050,2081,2069
2051,2036,2041,2029,2035,2049,2081,2059
2049,2033,2047,2024,2025,2027,2077,2057
2059,2041,2052,2019,2019,2014,2058,2058
2052,2041,2041,2018,2014,2008,2047,2043
2046,2031,2042,2012,2021,2018,2054,2036
2058,2042,2053,2029,2034,2028,2058,2037
2059,2047,2057,2043,2052,2040,2066,2036
2059,2055,2064,2050,2056,2050,2032,2028
2057,2052,2056,2044,2049,2065,2054,2031
2053,2045,2048,2041,2058,2099,2060,2016
2054,2036,2042,2037,2059,2126,2065,2016
2043,2039,2047,2036,2060,2114,2054,2017
2035,2043,2045,2032,2047,2094,2042,2020
2026,2034,2043,2036,2049,2088,2048,2031
2041,2046,2052,2042,2060,2095,2069,2039
2050,2057,2060,2042,2059,2094,2082,2036
2053,2053,2061,2044,2059,2097,2079,2046
2056,2055,2059,2042,2063,2098,2067,2045
2048,2054,2056,2044,2063,2107,2076,2048
2057,2054,2053,2041,2066,2093,2076,2050
2056,2052,2048,2045,2063,2072,2076,2049
2059,2045,2046,2042,2055,2046,2045,2044
2048,2038,2041,2042,2051,2014,2056,2050
2047,2039,2050,2041,2053,2001,2042,2049
2049,2042,2054,2044,2047,2021,2041,2069
2052,2043,2048,2040,2045,2021,2065,2071
2050,2043,2050,2036,2043,2019,2063,2075
2045,2046,2055,2035,2034,2019,2048,2063
2042,2054,2050,2031,2024,2014,2039,2058
2033,2032,2041,2031,2018,2006,2032,2068
2034,2040,2049,2037,2019,2012,2045,2072
2048,2042,2048,2041,2027,2019,2045,2066
2050,2046,2049,2038,2023,2026,2037,2062
2053,2046,2047,2037,2028,2033,2045,2050
2047,2049,2044,2042,2032,2038,2050,2047
2052,2049,2044,2034,2029,2044,2053,2043
2047,2044,2045,2036,2023,2043,2053,2040
2049,2039,2043,2040,2030,2052,2049,2034
2056,2043,2044,2038,2026,2047,2028,2026
2050,2051,2043,2039,2024,2032,2029,2031
2045,2043,2041,2044,2018,2036,2021,2024
2041,2041,2048,2039,2019,2038,2025,2018
2043,2039,2039,2039,2025,2040,2021,2015
2032,2041,2037,2035,2019,2037,2021,2012
2039,2040,2032,2031,2027,2040,2044,2017
2033,2030,2031,2031,2027,2048,2034,2025
2036,2034,2034,2036,2034,2063,2053,2044
2052,2049,2043,2044,2048,2066,2048,2042
2057,2059,2046,2045,2058,2068,2050,2048
2058,2057,2054,2050,2053,2068,2057,2063
2061,2062,2056,2049,2056,2060,2049,2058
2058,2056,2048,2045,2039,2052,2032,2058
2057,2049,2044,2039,2018,2047,2021,2059
2056,2042,2041,2033,2002,2057,2025,2056
2049,2031,2038,2020,1988,2044,2018,2054
2038,2025,2030,2014,1991,2034,2031,2055
2037,2027,2029,2019,2018,2039,2035,2072
2047,2035,2046,2050,2063,2026,2027,2093
2058,2041,2050,2057,2073,2030,2022,2089
2040,2038,2048,2057,2068,2023,2020,2081
2038,2040,2046,2053,2064,2027,2012,2080
2045,2031,2045,2051,2059,2037,1999,2089
2040,2031,2043,2044,2049,2042,2010,2086
2049,2035,2043,2043,2044,2043,2009,2081
2053,2036,2043,2038,2039,2042,2020,2070
2060,2027,2036,2033,2031,2061,2023,2056
2056,2037,2044,2032,2032,2065,2001,2047
2055,2050,2053,2041,2040,2080,2012,2047
2063,2061,2066,2049,2055,2090,2025,2051
2069,2075,2070,2060,2061,2102,2038,2048
2073,2074,2072,2060,2070,2105,2016,2057
2078,2073,2076,2061,2059,2109,2031,2055
2073,2066,2064,2055,2050,2105,2015,2045
2061,2063,2063,2049,2042,2074,2033,2047
2059,2060,2058,2045,2042,2055,2026,2031
2053,2057,2055,2047,2036,2054,2038,2026
2047,2054,2052,2040,2036,2052,2036,2030
2042,2038,2039,2030,2036,2054,2034,2023
2034,2033,2045,2037,2040,2068,2032,2031
2045,2045,2052,2051,2045,2072,2049,2034
2046,2059,2056,2052,2051,2070,2057,2031
2056,2066,2064,2054,2049,2068,2064,2036
2059,2061,2064,2051,2053,2043,2038,2039
2056,2057,2054,2050,2052,2018,2048,2047
2056,2053,2042,2039,2028,2027,2014,2040
2042,2039,2033,2031,2020,2030,2002,2044
2035,2038,2033,2025,1993,2020,2022,2047
2032,2044,2036,2017,1972,2000,2042,2054
2040,2044,2041,2018,1958,1975,2027,2060
2040,2032,2036,2018,1953,1938,2026,2072
2029,2032,2038,2019,1976,1934,2024,2073
2031,2043,2045,2039,2021,1974,2032,2080
2037,2052,2044,2047,2043,2012,2038,2073
2033,2044,2034,2040,2053,2044,2048,2068
2038,2052,2039,2041,2070,2072,2063,2073
2040,2053,2042,2042,2063,2086,2044,2075
2045,2047,2043,2043,2058,2093,2052,2076
2052,2050,2041,2039,2052,2102,2051,2069
2055,2054,2046,2042,2045,2127,2025,2069
2055,2052,2047,2036,2051,2174,2067,2068
2065,2058,2051,2045,2056,2196,2054,2054
2060,2056,2051,2055,2064,2157,2073,2058
2061,2058,2052,2051,2063,2037,2048,2051
2059,2048,2046,2045,2063,1974,2058,2050
2055,2053,2047,2046,2060,2017,2069,2039
2050,2051,2048,2042,2052,2047,2074,2043
2055,2048,2056,2041,2045,2048,2061,2040
2053,2051,2045,2041,2042,2047,2059,2036
2048,2039,2037,2036,2039,2041,2054,2018
2040,2029,2032,2034,2043,2050,2053,2022
2033,2038,2035,2045,2066,2059,2066,2024
2041,2036,2042,2048,2075,2075,2072,2021
2036,2030,2031,2046,2073,2086,2078,2017
2023,2027,2030,2046,2076,2092,2070,2019
2023,2028,2041,2048,2072,2102,2070,2031
2030,2032,2044,2056,2073,2100,2070,2041
2031,2040,2045,2054,2063,2087,2069,2038
2030,2044,2040,2045,2058,2058,2042,2046
2035,2035,2037,2047,2061,2054,2039,2047
2029,2029,2035,2049,2055,2050,2053,2059
2027,2020,2035,2044,2061,2038,2064,2063
2034,2030,2042,2046,2061,2030,2060,2066
2028,2039,2036,2047,2050,2024,2050,2069
2030,2035,2038,2037,2035,2012,2057,2078
2032,2038,2038,2039,2032,2003,2062,2072
2031,2040,2044,2042,2037,2012,2032,2081
2030,2044,2050,2045,2034,2031,2016,2074
2033,2051,2058,2048,2049,2054,2025,2070
2041,2061,2064,2052,2052,2104,2027,2071
2050,2056,2061,2053,2062,2127,2035,2064
2049,2063,2060,2052,2061,2121,2026,2053
2046,2061,2055,2042,2041,2103,2033,2046
2045,2062,2058,2041,2012,2084,2026,2037
2041,2052,2056,2043,2005,2071,2025,2026
2040,2054,2051,2038,1995,2068,2029,2019
2038,2048,2053,2032,1963,2049,2004,2020
2033,2046,2052,2029,1961,2015,2046,2029
2038,2052,2049,2041,2013,1986,2037,2030
2046,2047,2054,2058,2107,1984,2040,2033
2045,2052,2054,2060,2126,2001,2026,2029
2041,2046,2040,2046,2112,2007,1993,2022
2032,2037,2040,2039,2089,2020,2008,2016
2037,2033,2041,2039,2095,2052,2033,2020
2045,2040,2047,2053,2098,2064,2067,2025
2044,2046,2055,2058,2085,2065,2054,2041
2055,2047,2060,2048,2071,2058,2062,2044
2047,2050,2056,2050,2052,2040,2042,2037
2042,2043,2049,2035,2015,2025,2024,2038
2039,2040,2049,2035,1930,2012,2037,2042
2051,2046,2049,2028,1928,2019,2045,2044
2043,2047,2049,2036,1981,2025,2041,2049
2045,2040,2048,2040,2000,2022,2052,2050
2035,2033,2045,2031,2010,2012,2042,2056
2027,2033,2045,2036,2036,2017,2034,2059
2027,2042,2051,2047,2065,2038,2052,2066
2034,2042,2053,2049,2078,2049,2051,2075
2043,2042,2051,2050,2080,2045,2039,2069
2026,2025,2040,2036,2060,2046,2036,2068
2022,2021,2041,2040,2043,2047,2036,2062
2026,2026,2045,2036,2038,2042,2054,2054
2025,2030,2048,2033,2040,2048,2067,2051
2025,2027,2050,2031,2040,2056,2066,2053
2035,2028,2039,2038,2042,2046,2055,2045
2035,2032,2038,2033,2043,2039,2051,2044
2036,2029,2033,2029,2036,2042,2040,2039
2044,2029,2029,2035,2039,2052,2029,2032
2035,2026,2033,2040,2048,2056,2046,2029
2038,2027,2037,2046,2050,2047,2057,2036
2040,2026,2033,2046,2075,2032,2057,2036
2021,2012,2020,2034,2053,2021,2046,2033
2028,2006,2019,2034,2039,2032,2053,2033
2031,2023,2028,2040,2030,2048,2054,2036
2039,2026,2035,2042,1996,2047,2054,2028
2031,2015,2013,2027,1970,2047,2048,2014
2020,2007,1999,2020,1990,2067,2055,2013
2027,2022,2011,2028,2024,2097,2072,2019
2039,2028,2016,2012,1995,2088,2073,2024
2047,2035,2024,2002,1988,2086,2070,2025
2046,2047,2029,2020,2036,2093,2077,2036
2048,2046,2020,2026,2087,2091,2062,2038
2038,2036,2019,2030,2106,2076,2057,2033
2032,2029,2025,2033,2105,2051,2052,2038
2038,2041,2033,2037,2099,2038,2026,2038
2038,2038,2044,2041,2081,2038,2034,2031
2037,2043,2047,2030,2061,2030,2017,2043
2032,2038,2045,2016,2050,2019,1997,2045
2035,2030,2045,2004,2001,2008,1993,2049
2034,2035,2045,2012,1942,2017,2051,2059
2031,2036,2052,2029,1981,2035,2047,2058
2028,2029,2057,2041,2040,2034,2020,2066
2040,2040,2080,2046,2036,2030,2009,2063
2046,2057,2097,2050,2012,2022,2026,2062
2045,2061,2095,2052,2003,2019,2032,2050
2045,2064,2097,2048,2009,2019,2037,2053
2044,2059,2092,2046,2003,2007,2029,2051
2042,2055,2086,2028,1961,2006,2028,2047
2046,2058,2085,2025,1976,2025,2039,2049
2053,2060,2085,2036,2004,2016,2032,2050
2053,2058,2078,2032,2030,2018,2007,2043
2049,2048,2075,2035,2098,2043,2011,2037
2043,2040,2074,2042,2119,2045,2000,2036
2039,2037,2066,2030,2096,2041,1985,2025
2033,2034,2060,2030,2104,2060,1999,2022
2039,2032,2055,2031,2071,2069,2006,2021
2041,2041,2047,2031,2087,2067,2015,2020
2038,2036,2050,2030,2092,2053,2008,2015
2039,2030,2041,2035,2056,2038,2029,2019
2041,2040,2052,2048,2059,2060,2050,2021
2045,2046,2051,2054,2078,2061,2047,2014
2040,2041,2055,2054,2106,2065,2041,2009
2034,2037,2053,2056,2152,2098,2055,2018
2034,2032,2039,2049,2137,2112,2050,2028
2029,2020,2036,2037,2129,2075,2043,2026
2031,2018,2034,2044,2155,2076,2049,2034
2036,2033,2053,2064,2178,2120,2064,2035
2045,2042,2058,2053,2176,2163,2066,2033
2036,2042,2054,2045,2134,2154,2064,2037
2032,2042,2046,2017,2010,2123,2058,2045
2026,2037,2045,2018,1902,2120,2053,2049
2034,2052,2056,2037,1938,2157,2065,2061
2033,2052,2058,2050,1964,2158,2066,2073
2038,2036,2052,2032,1944,2107,2034,2061
2027,2028,2045,2013,1886,1986,2020,2045
2019,2022,2038,2003,1933,1923,2017,2043
2022,2022,2035,2016,1990,1937,2026,2042
2022,2015,2029,2022,2030,1968,2018,2027
2024,2020,2030,2033,2076,2004,2013,2028
2026,2026,2040,2038,2073,2026,2027,2031
2040,2038,2042,2037,2064,2028,2022,2037
2036,2046,2047,2048,2083,2046,2041,2026
2039,2041,2049,2051,2092,2051,2055,2019
2032,2034,2042,2045,2084,2042,2060,2010
2028,2038,2043,2042,2092,2036,2045,2010
2035,2038,2043,2036,2099,2032,2049,2017
2045,2040,2044,2034,2105,2037,2042,2010
2045,2034,2035,2025,2097,2046,2047,2002
2042,2027,2031,2019,2089,2046,2038,2000
2043,2028,2032,2022,2078,2043,2037,1996
2040,2028,2036,2026,2081,2051,2042,1996
2035,2041,2044,2037,2057,2018,2030,2005
2051,2052,2051,2037,2048,1972,2027,2023
2054,2065,2059,2042,2014,1966,2056,2023
2046,2056,2050,2026,1929,1985,2027,2019
2036,2040,2041,2029,1984,2052,2023,2010
2033,2042,2048,2044,2064,2071,2043,2004
2029,2042,2059,2060,2084,2081,2048,2003
2025,2047,2061,2072,2110,2099,2049,2008
2028,2048,2065,2079,2132,2104,2053,2015
2034,2052,2068,2072,2123,2102,2040,2030
2044,2043,2055,2068,2108,2089,2025,2037
2038,2039,2050,2058,2108,2073,2007,2036
2030,2027,2036,2050,2117,2062,1990,2039
2030,2022,2035,2047,2119,2057,2011,2047
2028,2019,2030,2031,2082,2037,2016,2044
2027,2024,2030,2033,2065,2030,2030,2043
2029,2035,2053,2054,2072,2014,2046,2046
2030,2036,2055,2048,2052,1990,2034,2038
2042,2038,2060,2044,2029,1970,2028,2044
2046,2053,2060,2045,2017,1979,2042,2039
2040,2053,2063,2024,1977,1998,2055,2035
2042,2047,2059,2020,1972,2022,2010,2017
2044,2043,2060,2030,2000,2026,2034,2008
2042,2039,2059,2044,2006,2029,2035,2005
2042,2038,2056,2047,2009,2031,2024,2009
2037,2039,2057,2048,2009,2029,2023,2009
2047,2044,2056,2044,1989,2025,2019,2001
2041,2040,2056,2037,1981,2022,2032,1997
2045,2039,2048,2027,1991,2033,2030,1992
2038,2034,2046,2020,2006,2058,2055,1992
2046,2028,2045,2016,2012,2064,2062,2004
2040,2031,2048,2029,2053,2088,2056,2004
2045,2039,2057,2054,2111,2093,2062,2011
2048,2045,2054,2057,2115,2086,2043,2016
2050,2046,2060,2052,2098,2081,2054,2021
2052,2060,2061,2047,2075,2079,2069,2025
2058,2058,2059,2046,2051,2093,2058,2024
2055,2058,2056,2049,2049,2099,2059,2028
2057,2055,2054,2049,2068,2100,2052,2024
2054,2053,2048,2055,2076,2081,2038,2030
2052,2051,2049,2047,2066,2061,2022,2035
2042,2038,2040,2043,2065,2058,2040,2026
2030,2032,2042,2045,2051,2059,2034,2029
2037,2034,2047,2046,2039,2060,2027,2032
2040,2032,2047,2042,1997,2045,2024,2040
2023,2027,2038,2037,1972,2032,2019,2042
2019,2028,2033,2048,2031,2051,2004,2041
2027,2026,2031,2067,2128,2084,2020,2039
2036,2038,2047,2073,2145,2106,2032,2040
2048,2040,2052,2057,2142,2092,2060,2035
2035,2040,2050,2058,2173,2091,2060,2026
2027,2032,2048,2055,2210,2096,2060,2026
2029,2033,2044,2064,2217,2089,2052,2027
2039,2036,2037,2043,2126,2051,2056,2022
2039,2033,2028,2028,2026,2011,2049,2014
2036,2024,2027,2018,1943,2001,2034,1999
2034,2023,2021,2018,1871,2007,2033,1989
2028,2023,2018,2019,1903,2025,2036,1981
2018,2014,2016,2028,2021,2035,2048,1977
2021,2010,2010,2037,2082,2038,2041,1990
2032,2016,2024,2047,2082,2046,2042,1998
2032,2024,2026,2041,2070,2037,2036,1995
2033,2017,2015,2035,2072,2029,2027,1995
2032,2010,2015,2037,2084,2031,2026,1993
2030,2027,2027,2045,2110,2058,2038,2006
2044,2042,2042,2058,2111,2088,2042,2001
2046,2042,2044,2056,2094,2099,2035,2005
2043,2040,2036,2050,2072,2073,2036,2000
2042,2027,2038,2042,2069,2062,2055,2001
2036,2026,2032,2034,2060,2068,2047,2008
2036,2024,2039,2033,2031,2044,2051,2014
2031,2025,2038,2013,1885,1985,2031,2036
2037,2027,2027,1989,1813,1986,2039,2036
2035,2030,2040,2016,1930,2051,2065,2047
2044,2037,2056,2043,1994,2094,2073,2053
2040,2042,2053,2029,1976,2102,2070,2039
2026,2051,2060,2037,1984,2101,2080,2041
2034,2059,2070,2038,1930,2069,2075,2050
2042,2052,2055,1988,1815,2024,2049,2045
2040,2046,2052,1983,1830,1992,2049,2058
2038,2057,2064,2006,1893,1960,2053,2062
2046,2054,2062,2029,1996,1956,2053,2058
2053,2061,2071,2064,2125,2004,2071,2063
2058,2065,2081,2086,2177,2042,2075,2056
2055,2060,2073,2084,2195,2067,2077,2050
2054,2054,2059,2073,2212,2074,2072,2036
2046,2051,2046,2062,2198,2062,2062,2022
2041,2045,2047,2050,2163,2059,2040,2010
2040,2033,2038,2028,2115,2038,2042,2005
2040,2031,2031,2006,2068,2021,2038,2008
2048,2027,2032,2023,2071,2035,2050,2010
2047,2030,2041,2040,2077,2041,2063,2024
2046,2021,2036,2037,2028,2033,2045,2019
2042,2019,2036,2028,1990,2031,2054,2011
2037,2033,2049,2040,1992,2028,2048,2003
2039,2034,2055,2052,2016,2046,2077,2018
2047,2036,2060,2050,2026,2074,2088,2017
2045,2038,2047,2040,2009,2092,2078,2011
2028,2033,2045,2038,2033,2083,2063,1998
2025,2037,2044,2052,2074,2073,2064,2002
2028,2041,2042,2043,2055,2082,2052,2009
2019,2044,2046,2038,2007,2069,2040,2012
2027,2056,2056,2014,1974,2045,2040,2021
2032,2054,2048,1992,1892,2049,2045,2025
2040,2046,2040,1977,1841,2086,2056,2025
2051,2042,2046,1997,1913,2032,2057,2054
2060,2057,2068,2053,2044,1983,2046,2062
2049,2068,2080,2081,2132,2031,2041,2066
2041,2059,2076,2097,2189,2097,2056,2068
2040,2053,2067,2101,2220,2141,2051,2055
2039,2047,2059,2089,2190,2123,2018,2044
2027,2028,2043,2080,2166,2090,2018,2040
2029,2025,2045,2084,2174,2043,2039,2044
2038,2040,2055,2080,2175,2022,2029,2057
2045,2042,2054,2081,2167,2027,2048,2050
2043,2043,2049,2072,2168,2045,2046,2041
2041,2040,2044,2070,2209,2077,2050,2041
2037,2031,2034,2054,2206,2093,2053,2028
2031,2030,2039,2045,2150,2096,2063,2022
2032,2040,2049,2041,2085,2104,2051,2020
2031,2040,2039,2033,2008,2104,2059,2013
2025,2028,2039,2044,2064,2098,2073,2017
2028,2028,2039,2062,2149,2087,2064,2024
2034,2033,2034,2059,2150,2047,2036,2020
2026,2021,2021,2021,2074,2045,2042,2011
2023,2029,2028,2000,1940,2069,2017,2020
2038,2044,2031,1986,1922,2036,2014,2006
2042,2045,2042,2005,2038,1946,2016,2022
2053,2054,2061,2036,2122,1941,2053,2035
2062,2059,2060,2036,2065,1995,2057,2026
2052,2037,2042,2005,1929,2081,2058,2012
2028,2020,2017,1984,1925,2152,2050,2000
2025,2017,2015,1986,1945,2176,2039,1997
2023,2027,2021,1988,1920,2162,2024,1995
2017,2019,2019,1974,1920,2092,2008,2007
2017,2025,2030,2020,2009,1975,2034,2036
2024,2028,2038,2059,2102,1932,2044,2045
2030,2035,2047,2095,2192,1950,2050,2040
2028,2035,2055,2117,2224,2005,2048,2041
2022,2025,2044,2090,2120,2014,2040,2036
2013,2025,2035,2072,2007,2009,2028,2030
2021,2032,2050,2083,2029,2022,2030,2036
2032,2044,2064,2068,1961,2004,2020,2036
2032,2047,2056,2037,1907,1992,2023,2049
2038,2054,2062,2035,1911,1988,2026,2051
2051,2059,2053,2032,1915,1969,2023,2056
2052,2062,2058,2039,1983,1956,2035,2055
2062,2065,2063,2061,2085,1972,2017,2061
2062,2057,2070,2084,2152,2006,2039,2069
2049,2058,2071,2094,2186,2059,2035,2040
2029,2052,2067,2080,2171,2094,2034,2025
2026,2042,2054,2062,2101,2108,2030,2025
2041,2032,2036,2047,2051,2129,2040,2021
2045,2029,2028,2049,2102,2144,2037,1997
2036,2044,2041,2081,2139,2103,2065,2022
2062,2064,2069,2115,2192,2059,2075,2043
2069,2072,2075,2108,2175,2037,2070,2035
2054,2062,2064,2098,2134,2051,2077,2029
2045,2050,2050,2076,2111,2070,2043,2023
2033,2034,2029,2034,1976,2067,2048,2010
2030,2032,2028,2014,1977,2072,2046,2006
2032,2035,2027,2006,2026,2073,2043,2003
2034,2044,2033,2011,2013,2067,2041,2018
2048,2058,2053,2060,2083,2095,2048,2014
2048,2061,2049,2080,2103,2108,2054,2016
2044,2047,2039,2077,2082,2102,2051,2025
2045,2032,2039,2070,2058,2067,2046,2031
2048,2022,2048,2064,2041,2007,2032,2050
2043,2037,2057,2078,2045,1968,2041,2042
2036,2050,2062,2093,2087,1960,2029,2029
2021,2051,2056,2104,2110,1992,2039,2039
2026,2039,2053,2100,2090,2037,2042,2038
2025,2027,2043,2089,2094,2062,2026,2046
2032,2026,2045,2099,2133,2078,2031,2061
2043,2042,2052,2112,2187,2081,2031,2061
2055,2049,2046,2118,2180,2045,2029,2066
2049,2048,2046,2096,2079,2014,2038,2074
2051,2042,2040,2041,1938,2015,2042,2058
2048,2029,2012,2013,1971,2022,2038,2040
2039,2027,2010,2054,2109,2060,2054,2040
2039,2025,2012,2071,2134,2065,2058,2032
2037,2027,2006,2049,2051,2063,2054,2034
2044,2039,2007,2039,2016,2059,2043,2026
2047,2049,2009,2027,2005,2037,2036,2026
2062,2048,2010,2007,1949,2023,2039,2019
2067,2046,2022,2008,1960,2029,2033,2018
2055,2040,2027,2014,1989,2041,2042,2011
2040,2033,2024,2003,2002,2052,2062,2005
2036,2028,2015,1990,2016,2048,2049,2009
2031,2016,2005,1979,2038,2043,2044,2011
2030,2009,2006,1980,2072,2037,2031,1998
2030,2020,2024,1989,2070,2035,2020,2000
2015,2039,2041,2020,2048,2055,2036,2015
2037,2066,2062,2048,2058,2084,2041,2030
2066,2058,2068,2049,2075,2108,2050,2027
2069,2051,2068,2037,2081,2121,2063,2024
2063,2049,2068,2031,2042,2111,2064,2035
2056,2043,2070,2017,2031,2094,2066,2046
2052,2042,2057,2010,2022,2080,2056,2026
2027,2035,2050,2019,2012,2074,2036,2025
2031,2041,2058,2032,2009,2060,2035,2017
2033,2047,2071,2057,2025,2031,2056,2042
2050,2049,2066,2078,2090,2049,2073,2061
2043,2045,2053,2060,2036,2052,2045,2048
2027,2045,2045,2027,2023,2039,2040,2027
2016,2051,2056,2029,2103,2056,2037,2034
2018,2048,2051,2033,2103,2078,2047,2038
2017,2033,2039,2041,2119,2102,2026,2050
2019,2020,2037,2070,2189,2131,2032,2058
2038,2039,2048,2085,2208,2147,2048,2066
2050,2056,2051,2074,2164,2090,2045,2061
2060,2054,2041,2027,2054,2003,2018,2035
2047,2044,2044,2017,1975,1971,2031,2018
2053,2068,2081,2067,1989,1969,2031,2013
2050,2073,2099,2102,2077,1997,2033,2009
2054,2062,2096,2097,2128,2017,2046,2018
2042,2060,2079,2093,2142,2025,2038,2010
2030,2056,2076,2078,2101,2019,2042,2011
2038,2053,2066,2057,2006,2011,2041,2012
2051,2049,2064,2032,1824,2010,2046,2011
2050,2036,2054,2027,1828,2018,2028,1993
2026,2022,2054,2048,1917,2051,2016,1971
2017,2023,2074,2111,2009,2090,2021,1977
2019,2007,2087,2163,2068,2088,2052,1978
2020,2012,2085,2152,2052,2059,2035,1990
2048,2030,2086,2160,2051,2042,2065,2011
2054,2035,2066,2137,2062,2005,2050,1999
2058,2035,2050,2139,2206,2023,2053,2011
2051,2023,2032,2163,2287,2062,2058,2021
2042,2012,1998,2142,2200,2066,2041,2026
2055,2007,1985,2100,2013,2062,2045,2020
2050,2008,1970,2063,1920,2061,2053,2006
2044,2000,1952,2033,1910,2053,2032,2000
2027,2010,1942,2008,1834,2035,2040,2017
2043,2034,1950,2031,1894,2017,2056,2055
2053,2046,1956,2056,2036,2024,2070,2076
2053,2050,1954,2044,2060,2053,2060,2080
2040,2040,1944,2010,2062,2059,2045,2075
2039,2023,1947,1992,2085,2061,2058,2078
2045,2029,1969,1984,2085,2059,2061,2070
2047,2027,1988,1974,2081,2050,2055,2061
2041,2036,2020,1983,2087,2053,2020,2065
2041,2048,2059,2015,2071,2050,2029,2062
2060,2078,2114,2052,2038,2049,2030,2068
2071,2085,2138,2084,2086,2060,2045,2053
2057,2079,2143,2110,2218,2081,2059,2046
2057,2072,2136,2099,2220,2098,2044,2034
2061,2066,2122,2075,2180,2090,2058,2024
2060,2059,2104,2069,2191,2092,2057,2016
2050,2043,2084,2065,2178,2084,2050,2000
2033,2034,2067,2064,2167,2055,2061,1996
2026,2045,2066,2071,2130,1992,2045,2001
2026,2042,2050,2028,1840,1968,2020,1993
2011,2032,2036,2032,1877,1990,2013,2019
2052,2045,2043,2092,2008,2015,2034,2035
2084,2058,2042,2105,2065,2034,2046,2026
2078,2045,2061,2125,2117,2046,2050,2023
2077,2055,2077,2127,2090,2040,2053,2025
2079,2056,2074,2102,2079,2039,2054,2014
2064,2036,2046,2061,2044,2034,2063,2005
2039,2029,2038,2038,2014,2048,2071,2006
2055,2044,2033,2034,2013,2049,2056,2017
2059,2065,2042,2038,2011,2049,2066,2023
2039,2068,2041,2047,2039,2059,2061,2034
2042,2065,2027,2068,2113,2073,2060,2044
2043,2054,2014,2062,2108,2059,2051,2049
2053,2046,2004,2040,2092,2041,2042,2043
2042,2038,2006,2029,2083,2025,2035,2044
2024,2031,2013,2020,2056,2018,2025,2048
2025,2035,2031,1998,2062,2035,2038,2054
2025,2040,2044,2006,2095,2061,2027,2047
2021,2039,2042,1992,2062,2062,2019,2033
2008,2015,2016,1968,2005,2049,2015,2028
1996,2005,2018,1964,1973,2055,2018,2042
2008,2016,2020,1958,1963,2039,2022,2049
2024,2036,2041,1975,1967,2002,2020,2059
2030,2052,2070,2002,1976,1970,2017,2058
2056,2077,2097,2031,2002,2006,2035,2058
2060,2070,2097,2055,2043,2058,2052,2041
2054,2072,2095,2065,2067,2080,2050,2042
2064,2082,2091,2075,2102,2089,2033,2042
2054,2080,2097,2080,2142,2087,2044,2035
2050,2078,2104,2103,2147,2079,2059,2035
2056,2073,2087,2096,2112,2070,2066,2028
2054,2070,2078,2090,2041,2051,2047,2022
2052,2072,2066,2076,2027,2048,2057,2012
2042,2054,2048,2058,2031,2044,2039,2012
2040,2042,2028,2040,2025,2037,2039,2009
2027,2022,2010,2032,2023,2030,2030,2015
2038,2037,2010,2041,2033,2048,2049,2025
2054,2069,2030,2053,2051,2064,2051,2035
2063,2062,2010,2032,2044,2062,2062,2032
2050,2042,1969,2007,2030,2053,2055,2019
2035,2027,1953,2010,2057,2053,2048,2021
2031,2021,1957,2025,2111,2055,2057,2029
2037,2013,1958,2017,2083,2047,2061,2023
2043,2022,1968,2016,2049,2045,2075,2034
2050,2021,1979,2021,2058,2050,2069,2039
2052,2029,1993,2037,2076,2059,2059,2029
2038,2047,1994,2044,2084,2054,2062,2032
2035,2048,1989,2050,2084,2052,2027,2056
2049,2052,1982,2058,2087,2054,2047,2068
2057,2062,1998,2078,2084,2057,2050,2065
2064,2069,2031,2101,2066,2050,2045,2068
2060,2075,2051,2108,2037,2041,2043,2066
2061,2066,2060,2104,2030,2026,2051,2064
2053,2051,2063,2093,2023,2029,2048,2054
2044,2043,2072,2091,2025,2031,2042,2031
2025,2037,2088,2096,2059,2038,2038,2020
2010,2028,2095,2079,2057,2037,2040,2036
2028,2030,2105,2064,2071,2040,2038,2032
2030,2036,2138,2083,2069,2048,2051,2029
2046,2065,2178,2111,2074,2072,2063,2044
2058,2080,2180,2106,2089,2081,2061,2050
2058,2090,2164,2101,2095,2082,2070,2053
2044,2080,2144,2084,2069,2064,2062,2045
2045,2072,2122,2040,2008,2038,2050,2032
2048,2074,2107,2012,1984,2045,2046,2025
2045,2080,2085,1989,1978,2045,2048,2025
2040,2066,2055,1967,1955,2032,2025,2019
2031,2056,2037,1956,1950,2013,1997,2008
2025,2042,2026,1960,1993,2020,2019,2020
2039,2037,2017,1980,2096,2038,2056,2044
2058,2055,2020,2003,2163,2060,2076,2040
2052,2046,2018,2013,2128,2082,2058,2042
2043,2032,2020,2004,2061,2067,2057,2039
2040,2027,2009,1993,2017,2064,2040,2027
2029,2018,2014,2001,2034,2078,2053,2031
2028,2020,2025,2024,2069,2062,2069,2060
2055,2039,2062,2070,2132,2084,2100,2070
2069,2032,2073,2076,2068,2107,2103,2049
2059,2032,2061,2048,1991,2099,2075,2033
2041,2037,2051,2036,1970,2066,2053,2037
2023,2027,2033,2044,1941,1992,2044,2058
2023,2035,2054,2097,2028,1999,2062,2069
2044,2059,2082,2146,2077,2034,2065,2082
2053,2062,2077,2150,2085,2038,2055,2069
2050,2047,2049,2141,2078,2019,2040,2055
2052,2034,2018,2118,2064,2027,2031,2044
2044,2037,2024,2120,2066,2030,2036,2045
2055,2050,2033,2120,2069,2038,2040,2050
2054,2062,2046,2119,2063,2049,2046,2065
2054,2070,2049,2104,2061,2047,2056,2060
2049,2074,2051,2076,2059,2053,2048,2059
2058,2075,2049,2046,2047,2045,2047,2059
2065,2072,2043,2014,2041,2042,2051,2058
2072,2059,2038,1985,2017,2032,2062,2051
2062,2045,2032,1954,2023,2019,2041,2043
2050,2048,2044,1956,2063,2032,2032,2024
2038,2048,2061,1972,2103,2042,2046,2028
2044,2048,2065,1999,2113,2051,2078,2039
2049,2042,2055,2007,2116,2053,2053,2042
2036,2037,2060,2034,2132,2055,2038,2031
2023,2039,2067,2059,2150,2068,2022,2033
2037,2054,2096,2076,2162,2080,2054,2038
2053,2071,2116,2080,2139,2080,2051,2045
2045,2063,2096,2059,2010,2057,2061,2033
2038,2055,2074,2053,1944,2056,2047,2038
2038,2046,2051,2089,2074,2062,2055,2035
2039,2037,2044,2106,2130,2049,2062,2038
2047,2034,2040,2112,2065,2017,2068,2046
2056,2029,2025,2109,2000,2006,2056,2050
2065,2043,2016,2098,1991,2013,2064,2051
2074,2039,2006,2094,2003,2013,2061,2043
2050,2027,1984,2096,2050,2031,2068,2054
2046,2025,1971,2099,2082,2052,2077,2062
2030,2017,1954,2079,2077,2047,2049,2058
2013,2014,1949,2067,2068,2049,2056,2057
2011,2026,1965,2059,2056,2041,2054,2067
2021,2031,1975,2040,2045,2030,2050,2077
2032,2035,1981,2024,2043,2036,2053,2076
2051,2062,2019,2026,2049,2044,2063,2069
2055,2064,2044,2021,2037,2048,2058,2066
2062,2061,2043,2006,2004,2031,2051,2055
2048,2062,2036,1993,1985,2031,2051,2049
2051,2066,2055,1999,1983,2033,2065,2042
2049,2077,2110,2030,1994,2030,2056,2052
2064,2089,2137,2050,2015,2039,2053,2048
2060,2093,2130,2066,2024,2048,2041,2048
2069,2084,2120,2065,2041,2051,2026,2042
2064,2069,2106,2061,2063,2052,2024,2034
2065,2059,2081,2041,2075,2044,2047,2031
2051,2048,2050,2022,2086,2034,2017,2019
2047,2042,2033,2021,2078,2042,2035,2038
2063,2055,2047,2039,2067,2047,2046,2033
2054,2044,2035,2037,2058,2031,2027,2019
2033,2046,2023,2027,2053,2035,2032,2027
2046,2067,2018,2039,2073,2046,2043,2033
2059,2069,2022,2046,2084,2061,2040,2026
2053,2071,2021,2047,2084,2058,2042,2028
2058,2064,2000,2038,2068,2048,2061,2041
2056,2054,1990,2021,2050,2051,2059,2039
2054,2058,1995,2026,2054,2069,2057,2048
2067,2068,2004,2035,2064,2069,2062,2044
2060,2078,2016,2056,2064,2075,2048,2048
2070,2076,2018,2065,2070,2042,2066,2060
2077,2059,2034,2069,2079,2020,2057,2076
2078,2065,2075,2079,2076,2026,2050,2080
2061,2067,2105,2074,2072,2035,2037,2069
2033,2078,2122,2069,2061,2052,2060,2071
2031,2076,2139,2068,2058,2068,2069,2082
2038,2076,2125,2047,2037,2055,2056,2077
2036,2058,2117,2037,2020,2038,2057,2079
2058,2069,2145,2054,2038,2058,2061,2091
2069,2079,2177,2090,2078,2058,2071,2085
2080,2085,2192,2112,2075,2053,2065,2070
2090,2071,2171,2108,2067,2061,2073,2062
2082,2052,2126,2088,2050,2075,2060,2039
2054,2032,2078,2082,2033,2073,2056,2041
2039,2028,2054,2085,1983,2042,2046,2040
2032,2039,2036,2090,1966,2034,2024,2018
2025,2032,2027,2100,1957,2007,2047,2020
2040,2041,2021,2114,1987,2010,2049,2028
2041,2034,2022,2138,2050,2024,2062,2037
2043,2041,2036,2157,2126,2024,2071,2041
2039,2048,2048,2181,2192,2037,2076,2038
2047,2057,2055,2168,2207,2058,2080,2028
2040,2046,2031,2106,2123,2047,2050,2017
2028,2019,2013,2039,2025,2023,2041,2009
2020,2016,2001,2016,2008,2025,2047,2001
2008,2019,2006,1999,2023,2026,2047,2025
2018,2036,2022,1994,2046,2038,2069,2039
2043,2064,2056,2015,2071,2047,2070,2055
2056,2077,2065,2030,2089,2062,2074,2058
2061,2065,2058,2037,2089,2060,2074,2057
2052,2051,2056,2029,2071,2047,2072,2057
2051,2032,2026,2000,2048,2039,2071,2052
2035,2014,2008,1979,2030,2032,2070,2065
2031,2028,2036,1994,2040,2050,2069,2074
2045,2065,2080,2012,2031,2060,2079,2080
2065,2086,2098,2027,2018,2060,2082,2092
2064,2084,2093,2038,2027,2056,2067,2091
2057,2082,2086,2043,2032,2053,2055,2094
2068,2080,2071,2040,2024,2039,2054,2085
2063,2065,2058,2047,2076,2047,2056,2089
2068,2075,2071,2078,2095,2062,2066,2094
2081,2069,2066,2075,2061,2047,2064,2089
2073,2062,2063,2068,2039,2044,2055,2080
2061,2052,2042,2068,2051,2052,2072,2077
2057,2049,2039,2068,2072,2053,2070,2061
2054,2052,2042,2069,2072,2053,2067,2059
2062,2069,2041,2076,2061,2050,2065,2053
2062,2080,2041,2080,2076,2046,2067,2060
2068,2078,2030,2072,2073,2043,2042,2041
2062,2074,2029,2061,2064,2029,2061,2041
2056,2061,2025,2051,2049,2018,2053,2034
2046,2043,2024,2043,2032,2001,2047,2032
2044,2024,2021,2034,2030,2011,2036,2040
2041,2029,2037,2051,2059,2036,2042,2048
2057,2048,2058,2083,2079,2068,2047,2040
2054,2051,2077,2083,2082,2068,2064,2037
2056,2049,2080,2061,2070,2069,2056,2052
2053,2042,2070,2040,2032,2064,2042,2047
2040,2035,2065,2020,2034,2070,2058,2034
2041,2047,2073,2013,2040,2039,2046,2034
2045,2068,2080,2031,2046,2027,2063,2044
2051,2073,2075,2038,2054,2027,2068,2054
2051,2058,2048,2032,2051,2044,2063,2053
2049,2054,2033,2032,2063,2060,2074,2058
2066,2054,2013,2045,2068,2068,2066,2077
2062,2055,2008,2050,2069,2066,2052,2068
2046,2045,2001,2055,2070,2061,2056,2065
2047,2035,1989,2049,2061,2056,2050,2071
2038,2035,1983,2050,2059,2046,2040,2070
2043,2035,1989,2049,2056,2046,2038,2082
2051,2038,1991,2052,2048,2038,2051,2081
2035,2032,1991,2047,2043,2039,2046,2080
2039,2045,2007,2055,2055,2048,2043,2086
2053,2058,2014,2070,2062,2054,2047,2077
2047,2052,2018,2067,2061,2053,2042,2076
2046,2045,2032,2061,2051,2049,2036,2071
2042,2044,2048,2055,2048,2052,2023,2062
2045,2036,2044,2041,2038,2052,2030,2054
2041,2033,2035,2033,2028,2049,2031,2064
2049,2043,2053,2048,2042,2052,2043,2053
2064,2075,2097,2066,2050,2050,2050,2051
2075,2087,2123,2074,2056,2049,2050,2049
2069,2085,2111,2069,2048,2051,2061,2054
2074,2084,2102,2073,2051,2058,2056,2064
2071,2080,2080,2068,2054,2059,2069,2066
2074,2073,2065,2063,2050,2055,2063,2058
2067,2065,2065,2054,2034,2040,2046,2039
2038,2052,2058,2049,2026,2036,2033,2028
2030,2046,2056,2048,2027,2038,2047,2039
2044,2057,2054,2049,2033,2050,2053,2056
2052,2059,2057,2054,2035,2047,2062,2056
2060,2070,2055,2047,2033,2050,2056,2073
2072,2073,2054,2048,2026,2041,2030,2072
2075,2066,2044,2044,2033,2045,2044,2070
2076,2068,2040,2051,2049,2043,2050,2071
2072,2056,2031,2044,2050,2039,2023,2061
2066,2058,2035,2056,2073,2056,2038,2068
2064,2062,2053,2083,2110,2089,2052,2079
2069,2077,2065,2092,2098,2115,2064,2078
2060,2069,2058,2087,2075,2108,2054,2072
2046,2058,2046,2075,2045,2091,2052,2079
2041,2053,2042,2071,2036,2083,2051,2090
2050,2059,2047,2092,2073,2053,2054,2110
2060,2061,2045,2106,2096,2015,2066,2107
2059,2057,2058,2119,2090,2031,2061,2099
2056,2065,2091,2134,2073,2036,2056,2091
2055,2066,2119,2143,2066,2031,2040,2076
2047,2069,2139,2143,2050,2036,2039,2067
2045,2064,2135,2136,2059,2050,2039,2065
2048,2053,2121,2118,2062,2062,2047,2056
2045,2046,2102,2118,2057,2067,2028,2053
2039,2043,2091,2118,2062,2077,2062,2052
2052,2058,2111,2144,2062,2080,2057,2053
2054,2073,2125,2154,2071,2072,2076,2050
2059,2074,2112,2149,2069,2076,2071,2052
2059,2066,2090,2118,2049,2072,2070,2047
2060,2058,2059,2093,2043,2060,2075,2043
2054,2049,2042,2072,2043,2043,2059,2046
2054,2044,2026,2045,2017,2031,2045,2042
2043,2032,1987,2003,2000,2002,2033,2037
2040,2037,1976,2008,2001,1996,2043,2046
2051,2059,1999,2016,2003,2002,2042,2048
2055,2050,1985,2002,1991,2019,2051,2054
2066,2060,1981,1986,1982,2040,2055,2062
2073,2071,1990,1995,1972,2042,2031,2060
2063,2066,2011,1998,1999,2040,2048,2064
2065,2061,2031,2002,2051,2054,2060,2070
2063,2070,2056,2020,2088,2053,2066,2085
2066,2070,2073,2029,2109,2059,2059,2090
2066,2061,2066,2025,2110,2059,2072,2092
2060,2066,2079,2046,2096,2056,2070,2093
2069,2063,2091,2051,2085,2046,2058,2100
2068,2061,2089,2053,2061,2034,2060,2098
2066,2055,2072,2058,2048,2029,2064,2102
2057,2056,2066,2062,2052,2025,2046,2090
2039,2037,2062,2055,2045,2019,2045,2085
2034,2032,2058,2053,2039,2033,2044,2082
2037,2035,2056,2059,2037,2030,2037,2073
2036,2026,2046,2051,2029,2017,2051,2072
2045,2038,2048,2051,2030,2016,2053,2076
2072,2061,2057,2060,2035,2029,2050,2082
2078,2068,2054,2054,2026,2031,2048,2081
2074,2048,2033,2043,2015,2026,2037,2064
2074,2047,2036,2044,2020,2036,2057,2046
2069,2059,2052,2054,2054,2048,2060,2042
2062,2075,2066,2065,2088,2058,2041,2042
2059,2080,2066,2068,2071,2057,2044,2045
2046,2072,2060,2061,2036,2043,2016,2047
2053,2062,2066,2052,2015,2033,2044,2049
2055,2067,2068,2043,2017,2017,2035,2061
2068,2069,2069,2055,2055,1991,2048,2067
2067,2063,2065,2056,2085,1996,2051,2057
2056,2051,2051,2048,2085,2008,2063,2058
2058,2049,2045,2028,2009,2013,2056,2059
2055,2048,2034,2027,1979,2012,2054,2063
2053,2049,2031,2048,1988,2012,2045,2058
2043,2051,2031,2071,2009,2001,2034,2060
2046,2049,2040,2090,2019,1998,2028,2064
2053,2063,2068,2098,2008,2006,2046,2077
2063,2069,2065,2108,2051,2012,2037,2070
2061,2062,2059,2116,2064,2047,2052,2075
2059,2061,2052,2107,2078,2094,2064,2083
2062,2059,2054,2088,2049,2107,2068,2095
2053,2061,2054,2069,2052,2094,2045,2103
2056,2054,2046,2051,2046,2074,2069,2103
2061,2049,2036,2038,2033,2057,2046,2102
2060,2046,2069,2052,2044,2053,2070,2098
2054,2047,2093,2089,2080,2054,2066,2101
2057,2056,2114,2100,2072,2059,2060,2104
2059,2059,2114,2104,2061,2043,2062,2095
2047,2050,2103,2108,2069,2038,2048,2083
2049,2050,2098,2114,2073,2045,2057,2083
2058,2054,2086,2125,2090,2051,2054,2076
2053,2050,2073,2125,2094,2056,2064,2063
2049,2045,2056,2107,2059,2055,2049,2056
2039,2041,2044,2096,2020,2060,2039,2046
2046,2046,2035,2092,2012,2056,2053,2059
2052,2050,2030,2090,2024,2048,2060,2060
2053,2048,2023,2087,2038,2038,2066,2056
2050,2034,2002,2064,2041,2049,2065,2044
2046,2025,1973,2045,2042,2049,2052,2038
2055,2034,1966,2022,2055,2049,2048,2036
2064,2042,1963,2008,2070,2048,2045,2039
2060,2035,1954,1998,2056,2029,2034,2041
2051,2035,1954,1999,2044,2014,2033,2038
2060,2051,1970,2014,2035,2001,2051,2044
2058,2059,1986,2019,2024,2006,2053,2052
2059,2057,1993,2036,2031,2032,2046,2052
2062,2059,2001,2038,2040,2034,2041,2054
2060,2064,2004,2045,2046,2033,2051,2059
2058,2055,1999,2026,2050,2030,2050,2064
2058,2053,2002,2031,2048,2031,2048,2069
2059,2052,2016,2040,2052,2040,2055,2075
2050,2056,2030,2051,2062,2043,2054,2077
2057,2059,2049,2064,2075,2055,2058,2076
2050,2057,2062,2053,2059,2070,2061,2081
2050,2054,2072,2049,2052,2077,2055,2089
2050,2061,2089,2053,2092,2086,2051,2092
2061,2063,2107,2063,2102,2083,2058,2095
2064,2069,2097,2058,2081,2046,2050,2100
2062,2062,2099,2068,2115,2052,2060,2092
2055,2061,2094,2077,2123,2053,2037,2088
2064,2061,2088,2069,2096,2007,2050,2088
2073,2065,2079,2069,2050,2010,2045,2076
2062,2069,2080,2053,1965,2017,2020,2063
2064,2064,2072,2036,1825,1995,2025,2050
2056,2057,2058,2018,1802,1991,2013,2052
2049,2053,2052,2024,1847,1979,2024,2050
2047,2054,2044,2037,1911,1967,2055,2064
2060,2058,2050,2062,2026,2020,2083,2062
2065,2048,2048,2066,2095,2082,2075,2060
2066,2049,2045,2068,2095,2115,2096,2055
2065,2051,2046,2060,2042,2112,2092,2056
2070,2051,2037,2054,2023,2117,2093,2054
2083,2052,2044,2069,2030,2111,2091,2066
2078,2053,2048,2065,2020,2066,2060,2056
2061,2040,2040,2063,2043,2011,2049,2050
2054,2040,2041,2070,2090,1989,2056,2072
2073,2051,2043,2062,2061,1994,2075,2065
2072,2049,2027,2058,2038,2024,2066,2062
2056,2037,2012,2048,1990,2030,2055,2054
2044,2023,2002,2041,1978,2077,2051,2048
2057,2048,2030,2071,2001,2123,2090,2051
2060,2062,2033,2064,2005,2128,2085,2048
2053,2053,2027,2064,2055,2147,2056,2053
2046,2040,2019,2079,2110,2158,2062,2067
2043,2032,1997,2083,2124,2097,2053,2060
2039,2016,1999,2078,2073,1997,2040,2066
2035,2011,2002,2081,2084,1949,2038,2069
2033,2016,2000,2084,2100,1963,2025,2074
2037,2024,2006,2088,2100,1988,2032,2076
2047,2036,2008,2086,2127,2003,2038,2075
2046,2025,2008,2081,2134,2014,2041,2072
2048,2010,2014,2067,2115,2027,2036,2072
2038,2016,2016,2050,2113,2042,2037,2063
2033,2020,2019,2038,2110,2045,2044,2063
2034,2028,2034,2036,2096,2049,2025,2068
2044,2035,2029,2026,2081,2045,2050,2064
2044,2028,2021,2022,2061,2044,2043,2055
2046,2031,2024,1991,1940,2024,2033,2038
2038,2035,2045,2009,1923,2010,2031,2039
2055,2051,2075,2032,1974,2022,2048,2053
2073,2074,2095,2040,2018,2032,2053,2060
2084,2076,2095,2042,2029,2042,2052,2057
2083,2073,2080,2031,2031,2038,2048,2041
2052,2048,2051,2019,2031,2041,2037,2026
2048,2038,2032,2013,2023,2016,2032,2021
2054,2041,2035,2026,2027,1982,2026,2024
2047,2030,2040,2039,2034,1992,2043,2035
2044,2046,2059,2056,2046,2013,2063,2044
2048,2062,2080,2063,2040,2035,2075,2053
2049,2051,2072,2055,2040,2037,2068,2068
2056,2047,2071,2056,2044,2034,2050,2059
2071,2065,2085,2058,2048,2041,2058,2058
2077,2080,2090,2064,2052,2049,2046,2052
2071,2067,2085,2060,2042,2043,2047,2047
2054,2062,2076,2060,2050,2047,2047,2061
2053,2063,2073,2067,2053,2049,2046,2068
2055,2058,2065,2064,2052,2050,2053,2075
2064,2055,2060,2063,2056,2051,2059,2095
2065,2057,2062,2058,2049,2044,2041,2100
2062,2060,2061,2064,2054,2041,2045,2101
2066,2074,2076,2072,2060,2040,2057,2097
2072,2075,2081,2070,2054,2028,2052,2095
2062,2057,2061,2053,2039,2022,2025,2085
2059,2048,2047,2049,2036,2018,2031,2086
2069,2048,2047,2049,2030,2029,2024,2084
2067,2045,2044,2054,2034,2039,2048,2080
2071,2049,2058,2068,2046,2049,2061,2077
2065,2057,2061,2075,2067,2052,2052,2066
2060,2058,2062,2073,2059,2045,2052,2054
2054,2052,2060,2072,2059,2060,2050,2053
2055,2056,2061,2069,2055,2069,2059,2049
2053,2060,2060,2062,2036,2057,2057,2045
2056,2055,2056,2053,2009,2040,2037,2052
2061,2057,2053,2047,1989,1999,2035,2054
2065,2062,2056,2033,1976,1991,2029,2050
2067,2060,2058,2048,2004,2017,2026,2052
2063,2058,2064,2068,2042,2032,2046,2060
2066,2064,2064,2066,2037,2053,2036,2046
2055,2041,2045,2048,2011,2058,2045,2037
2050,2038,2048,2065,2024,2060,2051,2046
2049,2045,2058,2075,2025,2044,2045,2048
2052,2046,2061,2072,2024,2037,2048,2044
2054,2046,2057,2064,2018,2032,2062,2046
2050,2045,2049,2059,2009,2045,2055,2053
2053,2048,2046,2059,2003,2061,2035,2060
2053,2038,2044,2055,2008,2066,2037,2057
2047,2032,2045,2065,2052,2072,2051,2056
2052,2034,2045,2077,2097,2079,2066,2064
2059,2040,2051,2083,2110,2081,2066,2071
2061,2035,2045,2078,2086,2070,2075,2082
2058,2040,2040,2062,2062,2047,2060,2077
2044,2032,2029,2056,2053,2036,2044,2077
2034,2028,2019,2046,2023,2040,2060,2074
2026,2029,2011,2038,2040,2039,2056,2075
2033,2022,2008,2034,2028,2032,2051,2085
2040,2024,2000,2035,2006,2031,2045,2084
2045,2026,1999,2037,1992,2031,2052,2077
2043,2019,2008,2052,1992,2036,2067,2075
2046,2036,2026,2075,2021,2045,2044,2066
2057,2047,2044,2080,2036,2045,2052,2070
2050,2051,2057,2063,2020,2025,2064,2059
2050,2053,2071,2058,2038,2032,2068,2052
2063,2060,2082,2072,2062,2043,2074,2046
2068,2060,2080,2080,2071,2039,2068,2044
2055,2053,2075,2080,2073,2041,2057,2036
2052,2053,2078,2094,2121,2049,2066,2038
2063,2065,2108,2111,2146,2057,2072,2043
2061,2078,2128,2108,2093,2048,2073,2037
2063,2075,2113,2082,2065,2038,2053,2036
2058,2057,2079,2048,2007,2024,2047,2029
2051,2047,2051,2010,1936,2021,2049,2030
2043,2048,2048,2011,1961,2029,2053,2043
2050,2050,2033,1999,1982,2033,2070,2039
2051,2051,2041,2007,1997,2039,2065,2042
2063,2060,2057,2004,2017,2036,2073,2061
2067,2069,2048,2009,2028,2042,2068,2059
2071,2066,2036,2005,2047,2045,2064,2058
2068,2061,2030,2007,2062,2057,2054,2073
2067,2065,2028,2013,2067,2076,2062,2074
2075,2059,2024,2020,2064,2092,2073,2081
2062,2051,2008,2018,2063,2098,2063,2075
2057,2043,2013,2017,2054,2095,2074,2076
2057,2047,2021,2012,2049,2086,2059,2079
2060,2047,2039,2022,2047,2080,2071,2087
2064,2057,2058,2031,2032,2062,2069,2094
2067,2064,2071,2040,2021,2038,2038,2096
2064,2055,2069,2050,2010,2025,2058,2088
2056,2048,2062,2052,2004,2010,2046,2070
2059,2045,2054,2064,2050,2005,2054,2068
2054,2058,2054,2102,2090,2014,2056,2072
2065,2060,2055,2116,2100,2016,2056,2072
2072,2074,2060,2120,2117,2020,2060,2076
2081,2080,2057,2120,2139,2041,2058,2070
2075,2075,2042,2115,2156,2068,2060,2054
2070,2065,2032,2119,2142,2082,2050,2041
2060,2051,2020,2104,2132,2083,2054,2028
2052,2040,2023,2084,2120,2084,2049,2034
2053,2044,2029,2055,2117,2041,2056,2052
2055,2050,2029,2035,2117,2009,2069,2043
2059,2047,2014,2022,2089,2019,2077,2037
2054,2039,2014,1999,1971,2009,2077,2032
2054,2043,2012,1982,1940,2006,2071,2034
2050,2038,2011,1978,1990,1988,2049,2034
2052,2042,2015,1993,2009,1992,2065,2043
2068,2058,2037,2006,1978,1999,2073,2041
2073,2066,2049,2015,1974,2012,2063,2042
2057,2061,2046,2013,1973,2003,2040,2047
2066,2049,2047,2008,1970,1995,2032,2052
2067,2052,2050,2026,2004,2004,2042,2056
2071,2053,2049,2040,2018,2028,2041,2050
2058,2047,2037,2037,2026,2066,2025,2041
2050,2051,2029,2041,2011,2072,2035,2039
2047,2055,2028,2033,1957,2054,2031,2051
2045,2057,2023,2022,1909,2038,2036,2070
2041,2055,2023,2017,1913,2012,2047,2080
2045,2046,2017,2018,1945,2012,2042,2089
2054,2050,2022,2023,1988,2029,2048,2093
2062,2060,2032,2028,1995,2029,2040,2088
2060,2038,2021,2018,1976,2015,2039,2087
2057,2035,2017,2011,1949,2008,2028,2089
2056,2044,2026,2005,1914,2003,2013,2073
2057,2049,2044,2022,1969,2049,2036,2069
2063,2066,2064,2042,2008,2087,2052,2060
2074,2071,2077,2047,2022,2102,2075,2055
2064,2061,2069,2034,2014,2097,2049,2039
2056,2062,2069,2031,2028,2050,2045,2042
2059,2059,2071,2051,2098,2034,2061,2044
2066,2049,2055,2055,2129,2047,2048,2038
2057,2045,2045,2056,2130,2054,2063,2037
2060,2039,2043,2063,2136,2056,2048,2038
2061,2047,2043,2060,2134,2052,2040,2036
2058,2047,2046,2059,2132,2057,2042,2041
2065,2048,2050,2052,2105,2050,2058,2037
2055,2046,2049,2050,2068,2034,2033,2025
2050,2040,2037,2046,2054,2029,2062,2028
2046,2036,2032,2046,2047,2033,2055,2035
2057,2055,2045,2057,2044,2039,2046,2033
2058,2055,2049,2052,2037,2049,2035,2041
2064,2062,2058,2054,2042,2049,2039,2045
2066,2064,2051,2052,2047,2054,2043,2060
2065,2058,2041,2054,2049,2055,2045,2056
2068,2050,2047,2058,2056,2061,2056,2047
2047,2043,2042,2056,2078,2067,2045,2051
2045,2039,2043,2068,2090,2071,2079,2063
2053,2047,2059,2066,2085,2073,2086,2076
2056,2046,2063,2071,2084,2077,2086,2084
2058,2046,2069,2083,2089,2080,2076,2082
2054,2042,2076,2082,2063,2056,2066,2080
2055,2036,2078,2077,2041,2031,2040,2088
2055,2045,2080,2081,2027,2020,2053,2073
2042,2039,2077,2075,1997,2007,2030,2075
2051,2047,2070,2061,1985,2014,2060,2078
2056,2057,2069,2042,1943,2012,2036,2070
2056,2051,2062,2027,1924,2016,2049,2060
2042,2044,2046,2008,1902,2004,2021,2040
2041,2034,2034,2005,1927,2015,2040,2045
2052,2044,2039,2037,2000,2065,2050,2053
2055,2054,2046,2052,2033,2093,2068,2051
2051,2059,2047,2061,2106,2141,2084,2053
2066,2064,2062,2064,2156,2169,2077,2046
2063,2065,2064,2054,2146,2117,2055,2036
2059,2056,2058,2044,2103,2026,2066,2035
2057,2054,2060,2045,2104,1996,2061,2031
2058,2056,2057,2047,2106,1987,2030,2028
2057,2051,2041,2038,2101,1985,2021,2040
2057,2042,2029,2019,2084,2006,2033,2024
2043,2029,2014,1995,2038,2028,2024,2023
2037,2037,2029,1992,1935,2061,2031,2032
2043,2044,2033,2015,1982,2069,2052,2041
2056,2046,2037,2034,2023,2037,2063,2054
2056,2044,2037,2036,2040,2028,2052,2051
2054,2051,2046,2040,2054,2051,2040,2046
2059,2065,2056,2043,2070,2056,2051,2049
2063,2058,2051,2041,2071,2042,2034,2045
2056,2052,2045,2035,2067,2045,2052,2055
2055,2047,2045,2042,2061,2058,2070,2075
2064,2052,2046,2029,2029,2051,2070,2090
2063,2046,2041,2034,2003,2044,2061,2087
2056,2045,2042,2036,2004,2040,2075,2083
2049,2052,2060,2050,2028,2043,2062,2077
2053,2054,2064,2056,2017,2038,2061,2093
2065,2046,2055,2034,1978,2034,2050,2075
2049,2027,2039,2032,1973,2031,2037,2078
2045,2018,2043,2034,1984,2024,2045,2074
2042,2019,2035,2037,2016,2026,2037,2068
2043,2024,2038,2034,2021,2025,2020,2053
2036,2028,2038,2039,2034,2037,2043,2040
2044,2027,2033,2036,2047,2039,2028,2038
2033,2021,2029,2039,2055,2042,2045,2031
2039,2042,2040,2052,2070,2053,2046,2040
2045,2062,2052,2063,2075,2062,2057,2040
2042,2052,2050,2061,2067,2067,2050,2036
2044,2046,2038,2054,2054,2063,2065,2045
2058,2046,2036,2044,2052,2057,2042,2045
2057,2039,2030,2035,2050,2048,2051,2034
2053,2038,2027,2040,2044,2040,2050,2032
2050,2044,2031,2033,2045,2038,2054,2029
2056,2047,2026,2034,2032,2025,2036,2028
2057,2044,2024,2035,2037,2021,2062,2037
2069,2055,2035,2040,2036,2020,2062,2051
2074,2058,2038,2044,2040,2024,2049,2056
2068,2059,2038,2046,2041,2022,2060,2047
2063,2058,2055,2059,2046,2029,2052,2033
2053,2061,2067,2064,2043,2028,2065,2038
2056,2061,2063,2056,2041,2036,2051,2053
2069,2055,2055,2045,2037,2042,2031,2054
2058,2046,2052,2034,2026,2042,2045,2055
2056,2049,2065,2040,2034,2050,2037,2057
2055,2063,2103,2058,2038,2051,2030,2069
2057,2081,2124,2074,2026,2052,2025,2069
2060,2087,2115,2077,2024,2060,2049,2078
2062,2073,2097,2080,2021,2059,2043,2072
2060,2070,2088,2087,2019,2060,2047,2072
2050,2062,2080,2086,2019,2050,2043,2066
2041,2049,2071,2072,2010,2050,2038,2066
2049,2054,2067,2078,2020,2054,2053,2077
2056,2066,2076,2081,2048,2068,2056,2077
2065,2078,2074,2076,2048,2068,2056,2078
2069,2075,2076,2074,2068,2077,2046,2074
2065,2072,2069,2083,2108,2071,2063,2071
2057,2069,2062,2079,2108,2064,2050,2063
2057,2064,2061,2069,2096,2058,2062,2054
2055,2054,2047,2058,2085,2061,2051,2047
2061,2056,2051,2056,2119,2068,2040,2042
2053,2045,2043,2031,2104,2079,2038,2043
2052,2036,2018,1996,2038,2088,2050,2045
2051,2026,2012,1986,2052,2099,2064,2042
2049,2022,2004,1981,2091,2088,2061,2041
2048,2026,2017,2001,2135,2104,2064,2045
2062,2051,2032,2030,2202,2105,2065,2043
2054,2048,2039,2037,2162,2059,2051,2034
2053,2041,2043,2011,1979,1996,2054,2041
2051,2043,2045,1991,1756,1961,2025,2042
2046,2047,2051,1987,1760,1960,2030,2045
2043,2051,2050,1997,1915,2001,2042,2038
2047,2050,2051,2024,2043,2050,2065,2039
2056,2051,2060,2052,2082,2064,2043,2035
2049,2049,2047,2047,2068,2062,2046,2039
2041,2043,2037,2038,2052,2059,2047,2056
2039,2042,2029,2036,2036,2057,2056,2058
2048,2048,2033,2038,2031,2053,2059,2069
2051,2051,2029,2037,2021,2043,2058,2075
2049,2044,2020,2021,2011,2039,2050,2076
2045,2041,2008,2008,1997,2036,2058,2078
2044,2029,1994,2002,2002,2036,2062,2077
2041,2022,1991,2004,2007,2035,2030,2076
2034,2012,1986,1998,2014,2027,2037,2066
2042,2018,1988,1996,2018,2037,2032,2072
2058,2029,1998,1998,2021,2044,2060,2073
2063,2036,2026,2010,2036,2046,2026,2058
2062,2048,2032,2017,2073,2054,2036,2054
2052,2048,2044,2028,2101,2065,2033,2052
2051,2037,2039,2028,2080,2053,2028,2040
2038,2026,2037,2024,2051,2051,2018,2038
2048,2041,2048,2033,2039,2056,2038,2041
2055,2044,2043,2029,2021,2033,2044,2032
2055,2033,2040,2024,2013,2016,2036,2030
2048,2032,2032,2020,2007,2005,2011,2019
2041,2024,2039,2025,2009,2007,2026,2013
2037,2035,2057,2042,2009,2020,2038,2025
2048,2049,2074,2054,2009,2044,2055,2037
2053,2048,2064,2054,2022,2041,2028,2035
2061,2048,2075,2065,2030,2049,2033,2035
2067,2067,2100,2075,2041,2050,2040,2039
2067,2072,2106,2078,2033,2049,2029,2041
2060,2068,2090,2067,2001,2056,2028,2043
2065,2060,2077,2060,2011,2067,2045,2044
2059,2052,2065,2049,2045,2079,2056,2055
2056,2050,2066,2050,2046,2084,2067,2056
2062,2062,2075,2066,2066,2083,2072,2063
2061,2065,2080,2059,2078,2062,2052,2056
2071,2071,2083,2074,2119,2039,2051,2064
2067,2071,2080,2075,2122,2042,2064,2070
2060,2061,2060,2058,2107,2037,2054,2071
2049,2050,2045,2034,2096,2045,2052,2067
2053,2053,2062,2045,2110,2074,2059,2079
2060,2053,2063,2049,2089,2079,2074,2082
2056,2050,2060,2039,2040,2054,2046,2076
2053,2036,2050,2028,2032,2027,2030,2077
2049,2033,2060,2027,2030,2022,2057,2074
2060,2048,2069,2043,2035,2026,2051,2060
2054,2055,2087,2069,2050,2050,2041,2058
2045,2054,2081,2069,2036,2047,2044,2054
2041,2058,2079,2068,2037,2051,2043,2058
2047,2062,2075,2073,2036,2040,2034,2056
2045,2062,2063,2074,2054,2011,2018,2042
2048,2053,2058,2075,2090,2001,2015,2036
2051,2063,2059,2078,2101,1994,2020,2031
2051,2064,2056,2065,2089,2003,2043,2035
2055,2054,2043,2048,2050,1997,2042,2036
2054,2046,2034,2029,1991,1977,2019,2036
2050,2048,2030,2018,1953,1970,2009,2031
2047,2045,2033,1999,1928,1973,1994,2018
2044,2044,2024,1972,1911,1993,2007,2017
2031,2024,2012,1967,1952,2031,2019,2024
2039,2032,2020,2015,2041,2081,2049,2032
2052,2057,2047,2051,2107,2116,2081,2040
2055,2057,2057,2066,2121,2147,2073,2044
2052,2060,2063,2071,2119,2167,2075,2030
2046,2052,2058,2066,2088,2172,2058,2037
2043,2053,2052,2062,2062,2152,2043,2040
2041,2056,2051,2066,2051,2072,2027,2046
2042,2055,2055,2080,2066,1948,2030,2053
2047,2061,2051,2082,2084,1954,2041,2060
2054,2064,2053,2082,2087,1996,2045,2071
2050,2061,2050,2069,2076,2028,2051,2069
2055,2053,2044,2052,2071,2043,2060,2078
2040,2041,2030,2047,2060,2041,2065,2072
2039,2043,2036,2041,2053,2041,2056,2071
2039,2038,2029,2033,2044,2038,2057,2071
2036,2034,2027,2026,2037,2029,2053,2066
2024,2022,2012,2007,2027,2021,2032,2073
2030,2027,2011,2007,2028,2019,2042,2074
2031,2043,2023,2015,2028,2015,2028,2067
2033,2040,2026,2014,2025,2017,2034,2069
2033,2032,2033,2020,2033,2040,2043,2067
2039,2041,2036,2031,2049,2050,2038,2066
2045,2052,2043,2039,2068,2061,2050,2068
2051,2054,2045,2053,2090,2057,2045,2065
2053,2052,2048,2061,2097,2048,2040,2058
2046,2051,2049,2064,2084,2032,2033,2052
2041,2046,2048,2053,2051,2013,2012,2048
2039,2042,2045,2051,2038,2016,2028,2034
2039,2044,2042,2047,2049,2014,2046,2038
2046,2047,2050,2041,2044,2009,2044,2044
2054,2042,2036,2041,2046,2012,2054,2049
2055,2033,2034,2040,2032,1992,2060,2048
2059,2021,2025,2042,2019,1980,2037,2044
2047,2017,2023,2058,2014,1987,2022,2041
2045,2029,2036,2070,2009,2011,2003,2044
2044,2036,2045,2063,1996,2041,2025,2034
2035,2024,2049,2049,1969,2048,2022,2030
2027,2016,2049,2038,1860,2033,2033,2031
2035,2024,2063,2059,1932,2060,2034,2037
2035,2046,2083,2105,2076,2075,2081,2054
2044,2063,2079,2124,2169,2051,2097,2074
2050,2065,2061,2116,2185,2070,2083,2072
2037,2047,2046,2088,2132,2101,2073,2061
2025,2036,2041,2067,2110,2119,2072,2056
2033,2042,2039,2072,2137,2121,2067,2062
2045,2047,2034,2069,2137,2106,2075,2073
2043,2044,2021,2057,2102,2074,2065,2058
2034,2025,2008,2029,2067,2035,2047,2064
2026,2026,2007,2005,2027,2010,2025,2062
2033,2026,2009,2002,2025,2005,2031,2068
2041,2034,2025,2007,2026,2007,2043,2071
2046,2058,2043,2002,2019,2013,2055,2081
2050,2059,2048,1994,2013,2037,2056,2081
2051,2055,2053,2000,2047,2041,2062,2077
2058,2052,2053,2002,2049,2033,2056,2067
2050,2051,2045,2004,2044,2025,2042,2056
2059,2057,2046,2016,2040,2024,2036,2055
2050,2051,2055,2036,2030,2018,2037,2049
2053,2048,2068,2042,2031,2021,2043,2041
2053,2049,2073,2051,2052,2029,2009,2037
2052,2045,2074,2053,2057,2037,2042,2034
2058,2047,2069,2054,2058,2031,2051,2036
2048,2054,2062,2045,2065,2027,2057,2029
2044,2047,2047,2046,2063,2030,2029,2020
2040,2034,2037,2051,2061,2026,2048,2014
2042,2037,2035,2042,2058,2044,2038,2009
2042,2036,2030,2045,2061,2044,2038,2010
2045,2036,2043,2043,2058,2055,2043,2016
2058,2051,2049,2045,2052,2069,2053,2013
2044,2040,2049,2035,2046,2058,2037,2020
2038,2040,2043,2052,2088,2013,2068,2046
2040,2042,2056,2071,2148,2040,2076,2049
2035,2053,2069,2075,2152,2106,2083,2043
2043,2061,2076,2067,2082,2124,2074,2042
2056,2056,2064,2036,1929,2114,2073,2047
2046,2052,2054,2003,1806,2084,2058,2046
2043,2034,2037,1990,1827,2033,2028,2060
2043,2036,2039,2018,1911,1988,2053,2084
2046,2046,2046,2048,2011,2027,2064,2076
2044,2047,2056,2059,2074,2081,2058,2076
2055,2056,2058,2067,2147,2125,2076,2082
2055,2046,2055,2073,2173,2091,2075,2085
2057,2046,2049,2065,2144,2047,2054,2075
2044,2029,2038,2043,2089,2038,2022,2066
2030,2026,2022,2024,2003,2038,2044,2074
2038,2036,2042,2029,1980,2056,2057,2082
2046,2043,2048,2039,2034,2045,2044,2073
2047,2048,2056,2050,2043,2037,2046,2062
2042,2051,2055,2052,2068,2029,2035,2051
2042,2053,2067,2056,2079,2034,2027,2043
2051,2053,2063,2062,2068,2050,2048,2037
2051,2044,2046,2069,2084,2066,2037,2041
2043,2052,2033,2069,2073,2051,2045,2043
2050,2054,2027,2068,2085,2029,2060,2041
2043,2050,2027,2062,2106,2032,2041,2040
2040,2042,2019,2036,2104,2034,2035,2029
2040,2029,2011,2007,2062,2030,2037,2027
2037,2024,2009,2004,2032,2033,2040,2025
2039,2022,2016,2012,2016,2031,2038,2021
2039,2015,2011,2012,2016,2027,2028,2017
2041,2009,2002,2006,2025,2026,2018,2020
2038,2009,1992,2010,2035,2027,2041,2028
2027,2006,1987,2009,2044,2036,2045,2030
2030,2027,2005,2020,2056,2041,2051,2029
2043,2040,2019,2025,2053,2048,2045,2027
2036,2045,2028,2031,2062,2045,2053,2039
2039,2049,2046,2044,2068,2051,2052,2043
2047,2059,2058,2050,2067,2052,2061,2049
2059,2060,2065,2055,2060,2052,2048,2051
2064,2049,2054,2047,2059,2051,2038,2059
2063,2036,2048,2044,2062,2049,2052,2070
2065,2037,2054,2051,2067,2050,2052,2070
2053,2038,2049,2050,2061,2045,2053,2068
2042,2031,2044,2055,2061,2042,2039,2066
2032,2039,2063,2065,2078,2042,2052,2073
2032,2056,2076,2079,2086,2042,2043,2069
2024,2038,2071,2075,2088,2046,2038,2070
2024,2049,2068,2077,2076,2054,2058,2068
2030,2050,2059,2064,2070,2057,2058,2070
2039,2049,2046,2042,2059,2055,2056,2069
2044,2044,2035,2028,2046,2053,2049,2057
2033,2022,2027,2010,2027,2041,2036,2052
2023,2019,2022,2017,2025,2047,2030,2047
2029,2028,2031,2027,2029,2049,2032,2044
2043,2050,2051,2037,2030,2051,2034,2038
2048,2051,2058,2042,2028,2043,2033,2039
2051,2051,2067,2046,2028,2049,2046,2043
2046,2049,2075,2050,2055,2056,2066,2044
2046,2049,2074,2051,2073,2057,2056,2043
2048,2044,2071,2046,2099,2054,2058,2049
2048,2052,2067,2021,2087,2037,2051,2059
2059,2061,2071,2003,2007,2015,2051,2050
2052,2058,2061,2000,1978,2018,2065,2047
2052,2059,2053,2005,1991,2040,2070,2055
2067,2066,2051,2015,2008,2045,2078,2055
2052,2058,2042,2015,2010,2041,2074,2056
2052,2051,2040,2023,2027,2053,2066,2061
2048,2056,2036,2037,2039,2053,2069,2057
2055,2051,2036,2045,2062,2062,2050,2046
2045,2048,2038,2039,2082,2067,2073,2053
2039,2042,2036,2037,2072,2065,2067,2055
2050,2044,2030,2036,2058,2074,2059,2058
2051,2046,2032,2036,2065,2090,2057,2064
2043,2040,2027,2028,2057,2083,2062,2066
2040,2034,2023,2027,2043,2046,2031,2066
2036,2030,2030,2020,2012,2019,2031,2066
2038,2036,2038,2010,1990,1993,2010,2065
2036,2030,2039,2002,1964,1977,2009,2067
2037,2025,2036,2013,2003,2006,2031,2073
2029,2023,2054,2038,2053,2032,2041,2078
2029,2039,2075,2061,2087,2044,2043,2077
2028,2044,2077,2066,2109,2056,2062,2073
2027,2050,2073,2065,2102,2056,2063,2080
2044,2060,2074,2076,2115,2066,2067,2077
2051,2057,2066,2074,2114,2056,2055,2068
2048,2054,2060,2074,2116,2044,2045,2061
2052,2054,2058,2067,2109,2043,2057,2052
2053,2052,2054,2064,2108,2048,2048,2045
2056,2055,2053,2061,2108,2057,2043,2042
2053,2056,2052,2062,2110,2061,2046,2045
2055,2061,2054,2064,2106,2060,2049,2047
2054,2059,2053,2061,2094,2056,2039,2038
2050,2053,2057,2056,2076,2058,2045,2033
2045,2054,2051,2040,2050,2068,2042,2029
2046,2057,2053,2031,2027,2072,2057,2023
2031,2033,2053,2042,2018,2072,2038,2022
2028,2041,2058,2038,2003,2074,2038,2024
2033,2060,2075,2050,2009,2074,2032,2027
2037,2052,2073,2048,1998,2055,2026,2030
2035,2050,2068,2053,2007,2055,2044,2036
2036,2053,2064,2069,2066,2046,2057,2057
2040,2056,2067,2078,2082,2042,2061,2059
2052,2058,2065,2075,2068,2045,2064,2059
2048,2053,2067,2065,2046,2038,2056,2054
2046,2043,2065,2065,2040,2051,2058,2056
2040,2039,2058,2042,2032,2052,2058,2062
2038,2037,2059,2031,2028,2051,2065,2067
2038,2041,2062,2034,2037,2050,2068,2074
2035,2039,2060,2049,2041,2044,2059,2074
2040,2040,2068,2048,2046,2046,2061,2079
2037,2044,2064,2056,2058,2044,2052,2082
2037,2043,2060,2051,2044,2039,2043,2082
2037,2037,2060,2058,2060,2045,2037,2076
2036,2049,2064,2066,2075,2053,2047,2078
2046,2051,2058,2069,2080,2047,2042,2075
2053,2050,2053,2064,2073,2043,2042,2073
2050,2052,2054,2057,2067,2046,2046,2070
2053,2055,2052,2057,2058,2045,2038,2065
2058,2060,2048,2050,2041,2033,2041,2051
2056,2059,2047,2048,2027,2022,2049,2050
2059,2056,2040,2046,2015,2033,2045,2049
2064,2057,2042,2054,2023,2042,2029,2041
2057,2048,2039,2047,2042,2054,2029,2030
2057,2052,2038,2044,2053,2057,2034,2033
2058,2045,2031,2041,2053,2061,2036,2030
2046,2041,2030,2036,2050,2059,2050,2028
2050,2046,2038,2039,2044,2056,2050,2028
2047,2042,2038,2038,2044,2053,2040,2029
2041,2033,2024,2029,2037,2045,2041,2027
2036,2023,2023,2037,2035,2045,2052,2031
2050,2040,2033,2047,2043,2048,2049,2032
2051,2036,2029,2054,2043,2048,2049,2038
2058,2045,2024,2052,2038,2061,2061,2037
2062,2049,2031,2044,2033,2065,2054,2041
2054,2042,2036,2047,2039,2056,2030,2036
2041,2039,2040,2043,2038,2061,2017,2031
2032,2042,2041,2043,2036,2052,2013,2039
2041,2041,2047,2045,2039,2025,2020,2047
2050,2051,2048,2042,2046,2025,2031,2067
2054,2047,2046,2040,2040,2032,2032,2067
2050,2045,2041,2035,2038,2043,2036,2074
2042,2031,2022,2023,2048,2061,2054,2071
2033,2033,2033,2023,2026,2056,2041,2080
2037,2029,2032,2025,2011,2056,2027,2080
2045,2027,2026,2023,2007,2048,2029,2078
2040,2022,2029,2024,2015,2044,2043,2077
2038,2037,2054,2051,2028,2050,2046,2080
2054,2061,2080,2062,2034,2049,2041,2082
