CH1,CH2,CH3,CH4,CH5,CH6,CH7,CH8
2022,2013,2023,2069,2059,2047,2046,1970
2030,2017,2006,2062,2056,2042,2048,1988
2034,2018,1988,2052,2050,2047,2035,2006
2040,2026,1981,2039,2045,2043,2044,2016
2038,2032,1981,2029,2038,2045,2041,2036
2047,2044,1990,2023,2037,2042,2052,2041
2055,2051,2008,2027,2040,2046,2047,2060
2061,2062,2018,2033,2038,2051,2037,2068
2063,2069,2018,2044,2046,2055,2030,2071
2057,2071,2031,2047,2046,2056,2045,2082
2053,2059,2037,2051,2045,2051,2018,2086
2048,2047,2048,2064,2044,2039,2037,2088
2041,2051,2068,2075,2035,2031,2022,2082
2038,2048,2086,2080,2038,2033,2011,2081
2034,2053,2099,2093,2050,2041,2018,2087
2043,2059,2108,2104,2057,2046,2044,2090
2042,2056,2104,2104,2056,2044,2042,2091
2036,2056,2109,2108,2056,2047,2044,2090
2049,2057,2115,2107,2059,2047,2058,2074
2049,2061,2110,2094,2062,2049,2045,2075
2046,2065,2108,2084,2067,2054,2056,2076
2056,2074,2111,2078,2064,2056,2062,2067
2053,2082,2114,2064,2064,2055,2066,2053
2055,2077,2101,2039,2054,2057,2056,2048
2053,2070,2084,2043,2057,2052,2058,2035
2057,2070,2084,2051,2063,2056,2047,2026
2060,2081,2086,2059,2062,2055,2035,2018
2058,2069,2080,2057,2049,2047,2046,1993
2053,2066,2070,2041,2034,2038,2056,1984
2043,2048,2056,2032,2021,2032,2032,1975
2040,2049,2061,2026,2012,2035,2046,1977
2052,2061,2068,2034,2024,2044,2052,1987
2054,2061,2061,2039,2023,2041,2053,1988
2056,2068,2057,2039,2019,2051,2056,2002
2055,2060,2053,2041,2016,2048,2057,2013
2058,2058,2056,2049,2023,2037,2050,2034
2061,2064,2051,2052,2020,2039,2049,2040
2061,2056,2047,2056,2048,2039,2047,2043
2048,2058,2053,2056,2061,2055,2057,2055
2058,2064,2061,2059,2078,2070,2057,2067
2060,2064,2069,2062,2090,2075,2065,2071
2056,2062,2075,2077,2103,2070,2064,2083
2055,2060,2081,2078,2093,2057,2053,2087
2052,2055,2077,2076,2084,2046,2049,2091
2050,2054,2076,2077,2093,2040,2037,2092
2042,2040,2082,2086,2101,2041,2034,2092
2047,2047,2071,2098,2104,2051,2052,2096
2050,2058,2071,2095,2097,2046,2045,2094
2049,2055,2064,2095,2076,2036,2035,2095
2049,2053,2059,2092,2064,2034,2038,2096
2048,2052,2051,2077,2060,2040,2044,2083
2050,2052,2038,2058,2048,2032,2039,2079
2045,2047,2022,2032,2011,2020,2042,2066
2047,2032,2003,2007,1979,2011,2049,2054
2041,2029,1991,2002,2029,2029,2052,2047
2044,2030,1995,2005,2059,2048,2053,2040
2048,2036,2003,2002,2068,2048,2042,2020
2055,2049,2039,2012,2063,2055,2054,2007
2056,2059,2062,2004,2019,2044,2055,1988
2055,2067,2080,2011,1996,2046,2049,1984
2057,2060,2077,2022,2036,2052,2052,1973
2039,2051,2066,2030,2087,2054,2029,1969
2037,2053,2058,2048,2130,2057,2064,1972
2056,2065,2060,2052,2129,2048,2072,1972
2059,2066,2063,2049,2106,2040,2066,1982
2062,2067,2055,2043,2094,2046,2066,1987
2061,2067,2057,2044,2054,2034,2066,2001
2057,2062,2076,2040,2000,2034,2067,2014
2055,2067,2080,2057,2011,2048,2065,2033
2055,2064,2073,2063,2045,2061,2068,2044
2054,2070,2068,2074,2033,2064,2076,2058
2054,2060,2051,2057,1915,2034,2033,2064
2059,2054,2045,2049,1905,2029,2049,2074
2062,2065,2041,2053,1960,2019,2030,2076
2054,2053,2028,2049,1992,2010,2034,2080
2046,2047,2033,2049,2018,2025,2046,2090
2049,2048,2046,2050,2031,2038,2031,2098
2050,2047,2043,2028,2032,2036,2033,2085
2041,2048,2049,2030,2038,2036,2049,2086
2047,2054,2055,2036,2050,2039,2058,2082
2054,2052,2050,2033,2048,2039,2043,2101
2057,2058,2043,2034,2037,2036,2063,2097
2071,2063,2050,2037,2035,2029,2066,2104
2067,2070,2055,2043,2020,2016,2056,2101
2067,2067,2060,2053,2030,2015,2061,2089
2074,2069,2058,2059,2045,2021,2070,2088
2068,2067,2058,2063,2054,2026,2060,2056
2067,2063,2050,2054,2055,2026,2066,2038
2058,2061,2051,2052,2057,2032,2058,2030
2058,2059,2051,2057,2056,2021,2070,2010
2054,2056,2046,2051,2040,2016,2065,1991
2043,2055,2042,2051,2031,2020,2071,1978
2051,2050,2054,2051,2026,2056,2070,1977
2050,2051,2043,2038,2029,2088,2062,1968
2049,2048,2041,2035,2042,2112,2055,1964
2053,2054,2050,2034,2053,2112,2069,1967
2059,2058,2041,2031,2040,2096,2046,1975
2059,2063,2046,2042,2031,2090,2037,1970
2058,2072,2059,2045,2032,2080,2055,1982
2048,2065,2063,2045,2027,2072,2028,1999
2042,2067,2054,2047,2007,2068,2026,2010
2046,2058,2047,2043,1992,2050,2037,2018
2035,2045,2037,2047,1987,2032,2047,2040
2043,2042,2046,2045,1989,2013,2048,2051
2041,2040,2044,2052,2015,2010,2052,2060
2045,2046,2051,2068,2048,2015,2053,2076
2051,2049,2057,2080,2087,2029,2077,2092
2055,2051,2062,2082,2104,2055,2076,2095
2053,2059,2060,2093,2105,2062,2077,2090
2046,2043,2052,2094,2115,2041,2055,2091
2037,2034,2048,2090,2126,2040,2043,2086
2038,2039,2047,2096,2134,2050,2065,2089
2030,2038,2044,2098,2141,2052,2061,2091
2036,2039,2039,2090,2118,2056,2044,2087
2043,2042,2028,2079,2079,2056,2040,2084
2049,2039,2024,2065,2063,2053,2042,2080
2045,2035,2016,2049,2056,2057,2054,2077
2047,2044,2020,2029,2040,2044,2049,2070
2044,2050,2039,2006,1972,2040,2045,2055
2044,2058,2052,2020,1976,2053,2066,2043
2051,2062,2045,2033,2014,2067,2065,2035
2048,2053,2030,2030,2038,2070,2056,2010
2043,2045,2028,2023,2048,2052,2036,1990
2039,2043,2024,2021,2031,2037,2047,1986
2040,2045,2023,2018,2029,2038,2044,1987
2033,2042,2011,2011,2028,2029,2030,1978
2030,2037,2001,2016,2034,2026,2013,1966
2030,2046,2012,2029,2032,2031,2033,1972
2030,2044,2024,2034,2039,2037,2053,1980
2034,2039,2011,2026,2041,2040,2045,1987
2039,2037,2001,2030,2036,2053,2046,1998
2043,2031,2003,2033,2043,2049,2059,2011
2039,2033,2003,2037,2039,2057,2044,2026
2046,2031,2012,2038,2041,2057,2041,2033
2044,2041,2025,2041,2038,2058,2027,2047
2042,2043,2031,2047,2047,2067,2047,2064
2047,2054,2043,2046,2044,2068,2049,2075
2055,2050,2048,2054,2050,2073,2063,2084
2056,2062,2056,2054,2050,2075,2068,2095
2049,2060,2057,2053,2049,2072,2055,2097
2042,2053,2054,2047,2047,2058,2042,2091
2038,2045,2052,2048,2034,2038,2035,2092
2029,2036,2056,2045,2030,2030,2035,2105
2035,2057,2060,2045,2039,2031,2047,2104
2038,2049,2042,2039,2034,2026,2044,2098
2046,2048,2046,2052,2047,2031,2058,2101
2048,2053,2050,2063,2050,2035,2053,2101
2045,2059,2068,2074,2050,2033,2048,2096
2055,2066,2080,2081,2052,2040,2057,2089
2061,2069,2095,2076,2055,2044,2055,2077
2062,2066,2108,2074,2052,2052,2047,2069
2059,2078,2098,2070,2048,2055,2042,2050
2056,2075,2094,2066,2044,2054,2063,2039
2047,2070,2091,2068,2050,2061,2059,2022
2054,2080,2098,2072,2061,2062,2065,2018
2054,2077,2095,2068,2063,2052,2058,2002
2049,2072,2089,2062,2053,2047,2064,1984
2051,2068,2069,2052,2055,2050,2047,1976
2046,2058,2058,2038,2052,2056,2031,1971
2042,2069,2068,2039,2059,2063,2055,1976
2045,2072,2057,2023,2054,2067,2049,1988
2050,2067,2046,2021,2055,2062,2040,1998
2041,2060,2045,2024,2053,2036,2024,2000
2052,2066,2050,2041,2055,2021,2041,2007
2051,2060,2047,2038,2051,2030,2040,2012
2044,2049,2039,2043,2051,2050,2055,2031
2039,2052,2036,2041,2042,2055,2056,2046
2038,2053,2027,2039,2044,2047,2048,2049
2039,2049,2019,2039,2037,2033,2038,2053
2036,2047,2030,2051,2016,2022,2040,2065
2045,2047,2030,2053,2017,2019,2046,2075
2044,2051,2021,2063,2029,2031,2060,2084
2046,2053,2028,2072,2045,2045,2056,2089
2042,2050,2027,2077,2048,2052,2054,2089
2045,2050,2027,2085,2060,2060,2058,2096
2053,2054,2038,2088,2063,2058,2063,2096
2045,2058,2055,2086,2053,2048,2045,2088
2044,2057,2065,2085,2028,2029,2043,2080
2038,2059,2067,2085,2017,2024,2040,2078
2044,2064,2080,2084,2017,2020,2035,2083
2055,2071,2084,2072,2038,2028,2040,2080
2056,2077,2093,2072,2037,2027,2033,2065
2049,2078,2100,2056,2036,2029,2047,2052
2050,2072,2094,2039,2041,2042,2033,2041
2047,2066,2080,2013,2031,2056,2035,2031
2046,2059,2059,1993,2032,2066,2054,2022
2051,2055,2044,1993,2027,2058,2044,2003
2041,2051,2030,1997,2021,2064,2044,1993
2046,2054,2027,2004,2038,2081,2051,1987
2045,2061,2035,2019,2063,2065,2044,1974
2042,2052,2033,2029,2086,2047,2041,1975
2040,2050,2036,2040,2090,2051,2046,1979
2044,2045,2039,2050,2093,2057,2047,1984
2050,2060,2041,2059,2088,2057,2044,1996
2047,2052,2035,2058,2074,2052,2045,1994
2040,2040,2017,2046,2050,2046,2044,2002
2036,2030,2007,2041,2044,2042,2060,2019
2047,2039,2009,2038,2043,2046,2055,2038
2053,2048,2017,2038,2034,2039,2050,2043
2048,2049,2011,2031,2030,2036,2051,2050
2051,2056,2015,2028,2031,2041,2037,2059
2060,2073,2031,2038,2042,2044,2033,2072
2064,2074,2037,2027,2032,2033,2022,2073
2061,2070,2047,2028,2032,2037,2038,2084
2056,2068,2039,2025,2040,2030,2048,2083
2050,2051,2019,2000,2033,2027,2035,2075
2036,2042,2008,1981,2044,2016,2036,2080
2043,2046,2041,2000,2040,2017,2032,2092
2050,2065,2072,2012,2041,2029,2024,2093
2050,2066,2084,2021,2046,2038,2028,2093
2052,2075,2092,2045,2054,2044,2033,2096
2058,2072,2082,2048,2061,2050,2047,2082
2048,2060,2061,2054,2066,2049,2036,2069
2036,2051,2053,2050,2072,2053,2028,2069
2044,2055,2055,2047,2069,2050,2052,2056
2041,2054,2061,2050,2076,2054,2059,2053
2036,2053,2058,2046,2070,2055,2058,2041
2040,2060,2059,2045,2069,2054,2054,2026
2044,2062,2066,2049,2070,2052,2039,2011
2043,2061,2072,2056,2074,2055,2033,1998
2049,2060,2082,2054,2070,2056,2042,1989
2049,2061,2079,2054,2068,2048,2027,1983
2039,2056,2077,2042,2058,2041,2027,1975
2044,2051,2084,2040,2057,2043,2043,1977
2057,2064,2089,2041,2055,2044,2039,1979
2057,2069,2082,2035,2056,2049,2026,1987
2062,2075,2077,2040,2058,2056,2065,2003
2062,2079,2063,2043,2059,2056,2063,2010
2064,2075,2060,2046,2048,2051,2055,2022
2060,2071,2056,2042,2055,2047,2032,2030
2056,2057,2044,2033,2049,2042,2030,2034
2054,2056,2045,2033,2055,2042,2040,2044
2056,2062,2052,2042,2053,2050,2055,2050
2056,2065,2057,2043,2056,2045,2042,2055
2056,2064,2055,2041,2049,2050,2049,2060
2051,2058,2051,2040,2050,2045,2046,2066
2042,2060,2047,2038,2043,2040,2051,2069
2040,2064,2043,2035,2044,2042,2047,2071
2041,2057,2039,2034,2045,2040,2052,2084
2039,2052,2037,2032,2050,2045,2038,2087
2042,2063,2038,2040,2056,2053,2041,2095
2046,2064,2033,2043,2058,2048,2045,2094
2051,2068,2036,2050,2066,2052,2052,2093
2048,2068,2051,2063,2062,2059,2039,2090
2051,2071,2063,2066,2062,2060,2041,2090
2058,2076,2073,2069,2064,2061,2040,2080
2058,2080,2073,2078,2069,2063,2045,2071
2056,2078,2071,2071,2065,2064,2049,2055
2051,2067,2063,2073,2070,2070,2034,2042
2051,2072,2068,2074,2068,2069,2067,2025
2051,2062,2057,2070,2062,2061,2065,2013
2047,2052,2045,2070,2055,2052,2066,1996
2045,2051,2038,2067,2060,2056,2036,1984
2037,2049,2032,2062,2061,2060,2066,1977
2037,2053,2025,2054,2056,2054,2068,1964
2034,2037,2019,2042,2055,2044,2060,1960
2027,2046,2023,2040,2051,2041,2042,1964
2036,2051,2028,2025,2039,2036,2046,1968
2032,2049,2022,2019,2035,2032,2035,1966
2031,2048,2028,2006,2031,2032,2041,1980
2037,2053,2029,2000,2026,2028,2040,1991
2042,2058,2039,2005,2025,2033,2036,2012
2042,2059,2051,2018,2030,2035,2040,2025
2053,2067,2056,2028,2032,2043,2056,2042
2052,2077,2064,2032,2028,2050,2046,2053
2056,2074,2065,2040,2022,2051,2062,2049
2049,2066,2061,2036,2023,2063,2070,2059
2047,2061,2052,2036,2024,2067,2080,2077
2049,2056,2046,2034,2027,2071,2065,2088
2054,2062,2043,2029,2029,2072,2054,2098
2063,2064,2054,2042,2037,2076,2053,2095
2056,2062,2062,2047,2034,2071,2047,2096
2050,2066,2075,2056,2033,2057,2051,2097
2059,2075,2089,2064,2039,2062,2063,2096
2058,2078,2085,2070,2053,2056,2069,2093
2051,2076,2082,2074,2071,2057,2049,2100
2054,2084,2084,2084,2075,2052,2055,2098
2056,2083,2081,2077,2066,2047,2072,2101
2065,2078,2073,2075,2051,2037,2065,2088
2066,2079,2080,2073,2057,2036,2074,2078
2068,2072,2081,2065,2055,2042,2069,2070
2061,2073,2069,2055,2046,2041,2060,2049
2052,2060,2049,2030,2032,2036,2046,2032
2037,2054,2032,2015,2068,2026,2055,2009
2040,2048,2028,2011,2094,2035,2047,2001
2033,2043,2026,2013,2109,2041,2063,1985
2038,2051,2030,2024,2124,2046,2060,1978
2042,2041,2038,2038,2126,2045,2043,1966
2036,2041,2040,2050,2141,2045,2046,1964
2034,2044,2045,2058,2131,2048,2025,1972
2038,2034,2031,2059,2112,2052,2038,1977
2037,2028,2023,2055,2100,2056,2033,1980
2038,2028,2022,2050,2080,2060,2031,1982
2043,2035,2021,2052,2025,2057,2039,1989
2044,2038,2016,2044,1919,2045,2055,2003
2041,2036,2008,2044,1932,2044,2041,2018
2047,2036,2002,2055,1979,2058,2033,2034
2038,2044,1999,2054,2012,2050,2027,2047
2043,2043,1993,2058,2026,2051,2034,2052
2036,2048,1983,2053,2027,2048,2040,2059
2040,2052,1984,2051,2030,2042,2038,2069
2044,2056,1996,2049,2038,2044,2042,2081
2049,2057,2004,2049,2030,2035,2035,2087
2054,2049,1989,2038,2024,2023,2034,2100
2052,2040,1983,2035,2016,2019,2024,2096
2042,2052,2002,2047,2022,2027,2025,2100
2058,2066,2023,2059,2020,2036,2052,2102
2062,2068,2031,2064,2024,2040,2048,2106
2060,2064,2022,2058,2030,2044,2043,2104
2058,2057,2017,2044,2029,2043,2055,2099
2052,2057,2015,2037,2027,2061,2064,2090
2060,2058,2020,2011,2025,2071,2056,2085
2064,2064,2031,2013,2026,2075,2056,2072
2058,2075,2065,2024,2034,2079,2072,2059
2065,2078,2097,2040,2045,2078,2068,2049
2071,2084,2108,2036,2045,2069,2074,2030
2071,2084,2119,2035,2055,2087,2081,2020
2068,2082,2126,2038,2051,2099,2071,2018
2067,2080,2116,2034,2050,2107,2054,1999
2056,2076,2103,2033,2043,2080,2040,1980
2052,2064,2090,2033,2040,2042,2024,1979
2054,2062,2083,2036,2037,2031,2042,1986
2051,2068,2072,2029,2041,2018,2027,1979
2047,2077,2075,2043,2042,2013,2035,1985
2048,2081,2075,2051,2042,2014,2031,1990
2055,2084,2079,2054,2046,2025,2041,2009
2055,2077,2071,2048,2028,2033,2035,2021
2052,2077,2066,2038,2009,2024,2031,2027
2051,2068,2053,2042,1996,2019,2024,2033
2052,2059,2042,2036,1983,2018,2045,2043
2048,2052,2030,2033,1979,2004,2035,2052
2044,2045,2020,2030,1991,2010,2033,2059
2049,2056,2039,2062,2038,2048,2044,2080
2066,2066,2045,2082,2079,2069,2044,2090
2068,2066,2044,2082,2105,2084,2029,2097
2069,2058,2036,2076,2101,2086,2040,2103
2062,2048,2041,2067,2082,2072,2032,2101
2054,2047,2045,2063,2071,2062,2056,2098
2058,2045,2030,2059,2060,2057,2048,2101
2047,2046,2024,2056,2061,2055,2055,2099
2055,2048,2031,2061,2067,2062,2057,2105
2058,2050,2026,2059,2067,2072,2062,2102
2065,2066,2038,2061,2067,2062,2056,2085
2063,2063,2046,2046,2057,2053,2047,2065
2056,2049,2053,2032,2043,2049,2052,2055
2053,2066,2080,2037,2048,2062,2045,2047
2059,2071,2090,2036,2050,2066,2051,2046
2056,2069,2079,2038,2055,2073,2044,2030
2054,2070,2074,2039,2057,2070,2056,2016
2063,2088,2082,2052,2062,2065,2068,2017
2069,2084,2082,2057,2070,2063,2064,2009
2065,2084,2079,2050,2049,2048,2045,1987
2061,2072,2060,2044,2041,2057,2048,1982
2055,2068,2064,2042,2044,2061,2056,1982
2056,2072,2059,2045,2050,2068,2057,1987
2052,2068,2058,2045,2062,2070,2062,1997
2059,2072,2057,2046,2061,2079,2068,2009
2047,2070,2056,2055,2050,2087,2066,2017
2051,2068,2057,2056,2046,2102,2076,2034
2049,2068,2050,2057,2046,2108,2064,2042
2050,2063,2039,2052,2043,2078,2064,2055
2045,2056,2037,2048,2042,2050,2054,2070
2042,2052,2028,2044,2037,2052,2068,2073
2051,2056,2030,2046,2041,2054,2056,2081
2050,2059,2026,2052,2044,2039,2044,2085
2052,2063,2030,2058,2052,2021,2048,2096
2054,2062,2029,2060,2048,2025,2045,2104
2050,2060,2022,2054,2043,2020,2030,2103
2042,2050,2010,2052,2061,2029,2050,2110
2039,2048,2009,2055,2078,2045,2062,2114
2043,2047,2018,2053,2088,2050,2062,2113
2050,2049,2020,2051,2083,2053,2056,2103
2045,2051,2022,2050,2073,2037,2054,2098
2044,2051,2033,2051,2069,2038,2039,2098
2044,2058,2045,2057,2071,2036,2058,2088
2051,2059,2063,2058,2048,2028,2064,2086
2045,2056,2078,2060,2028,2014,2054,2073
2046,2056,2085,2065,2042,2015,2050,2056
2036,2053,2086,2063,2053,2021,2052,2045
2045,2052,2081,2068,2060,2041,2052,2024
2035,2051,2057,2058,2056,2057,2054,2008
2036,2044,2031,2057,2056,2059,2056,1996
2038,2046,2029,2052,2060,2069,2063,1990
2035,2052,2028,2058,2068,2060,2054,1979
2042,2052,2029,2053,2055,2057,2051,1973
2035,2051,2025,2052,2059,2054,2048,1980
2039,2055,2023,2046,2055,2056,2058,1981
2046,2058,2021,2038,2052,2053,2061,1985
2042,2069,2026,2033,2041,2063,2059,1991
2050,2065,2023,2007,2012,2058,2064,2005
2052,2072,2015,1992,1979,2047,2063,2025
2052,2071,2024,1991,1965,2044,2053,2036
2058,2072,2027,1995,1962,2028,2059,2051
2060,2072,2040,2008,1980,2001,2059,2059
2060,2070,2047,2028,2004,1992,2053,2067
2058,2067,2053,2045,2033,2014,2053,2080
2061,2065,2053,2048,2033,2023,2037,2091
2063,2069,2057,2045,2026,2032,2041,2102
2063,2066,2061,2054,2064,2031,2053,2103
2058,2060,2064,2056,2116,2031,2037,2108
2055,2054,2061,2064,2159,2029,2032,2100
2045,2051,2059,2063,2167,2039,2040,2104
2052,2064,2053,2062,2164,2039,2031,2091
2048,2056,2050,2064,2140,2039,2028,2090
2050,2061,2052,2063,2127,2053,2037,2098
2056,2067,2060,2069,2132,2066,2054,2093
2055,2066,2054,2065,2112,2076,2050,2085
2047,2052,2048,2042,2045,2054,2036,2064
2049,2047,2040,2020,1967,2036,2032,2054
2047,2045,2034,2023,1976,2036,2038,2056
2049,2042,2026,2022,2007,2044,2044,2047
2050,2042,2018,2029,2034,2041,2047,2030
2052,2040,2014,2036,2049,2044,2042,2007
2041,2042,2021,2048,2081,2055,2052,2003
2045,2053,2034,2064,2098,2058,2046,1987
2048,2055,2042,2059,2092,2044,2036,1975
2046,2044,2041,2061,2086,2034,2009,1974
2042,2049,2042,2060,2086,2034,2020,1975
2042,2054,2043,2065,2074,2032,2046,1981
2044,2051,2037,2069,2076,2040,2033,1982
2040,2046,2038,2076,2068,2042,2034,1987
2043,2051,2041,2074,2062,2043,2038,2000
2045,2051,2051,2077,2055,2042,2046,2013
2043,2047,2035,2076,2044,2042,2028,2027
2054,2049,2037,2076,2041,2047,2047,2034
2049,2049,2041,2059,2018,2041,2037,2045
2046,2053,2050,2050,2025,2049,2048,2049
2042,2054,2037,2030,2028,2053,2037,2047
2033,2050,2016,2015,2022,2054,2034,2058
2030,2036,1995,1999,2032,2052,2043,2070
2036,2030,1993,2003,2042,2054,2035,2085
2041,2038,2008,2016,2039,2058,2040,2085
2036,2033,2023,2017,2042,2056,2050,2084
2037,2035,2028,2022,2045,2062,2046,2085
2046,2052,2054,2037,2055,2055,2031,2089
2047,2065,2064,2042,2054,2061,2052,2092
2052,2069,2068,2047,2053,2058,2052,2092
2048,2059,2062,2044,2044,2052,2047,2077
2047,2049,2055,2043,2043,2059,2039,2068
2049,2044,2043,2043,2039,2049,2042,2061
2048,2053,2043,2041,2039,2058,2046,2047
2044,2044,2049,2044,2038,2059,2039,2034
2045,2039,2040,2039,2026,2049,2034,2015
2044,2042,2032,2040,2022,2050,2045,2004
2044,2039,2037,2040,2030,2053,2051,1993
2036,2034,2026,2038,2022,2062,2043,1977
2029,2031,2011,2035,2018,2071,2045,1974
2032,2030,2017,2032,2017,2055,2031,1962
2038,2032,2017,2026,2004,2048,2021,1953
2044,2045,2026,2034,2007,2034,2014,1969
2045,2056,2042,2039,2008,1997,2036,1975
2049,2064,2044,2045,2013,1986,2038,1988
2059,2061,2044,2040,2022,2009,2040,1995
2049,2061,2044,2056,2057,2038,2038,2004
2051,2055,2049,2061,2076,2032,2032,2010
2041,2054,2044,2063,2064,2029,2033,2022
2045,2053,2052,2059,2053,2038,2034,2030
2048,2059,2048,2064,2061,2052,2030,2041
2049,2056,2053,2072,2069,2066,2029,2058
2057,2059,2054,2083,2073,2068,2044,2062
2056,2062,2059,2086,2075,2062,2029,2072
2059,2064,2059,2092,2080,2061,2053,2085
2062,2064,2059,2084,2077,2062,2039,2090
2061,2058,2044,2082,2067,2054,2049,2087
2048,2038,2031,2073,2064,2048,2038,2086
2045,2034,2025,2060,2065,2051,2039,2091
2059,2051,2040,2058,2061,2048,2047,2097
2058,2060,2068,2059,2069,2036,2029,2094
2056,2074,2071,2053,2058,2031,2033,2088
2057,2072,2066,2043,2055,2030,2030,2074
2055,2067,2057,2039,2049,2042,2049,2066
2051,2059,2042,2032,2046,2047,2054,2055
2052,2055,2037,2028,2054,2057,2058,2057
2050,2053,2052,2024,2057,2058,2069,2050
2053,2062,2072,2029,2057,2060,2049,2040
2058,2074,2079,2038,2060,2064,2049,2024
2058,2071,2059,2028,2056,2061,2053,2010
2054,2059,2039,2024,2055,2057,2040,1991
2047,2052,2033,2026,2050,2044,2034,1988
2042,2051,2039,2027,2049,2041,2034,1974
2037,2046,2048,2031,2054,2034,2026,1963
2035,2043,2059,2032,2052,2036,2032,1968
2045,2048,2063,2037,2054,2042,2038,1972
2043,2046,2056,2037,2051,2048,2041,1987
2042,2046,2058,2033,2045,2052,2050,1992
2044,2048,2048,2032,2055,2055,2061,2001
2046,2052,2053,2039,2059,2057,2052,2025
2052,2059,2057,2035,2062,2053,2067,2041
2062,2054,2058,2040,2056,2051,2067,2043
2053,2054,2053,2036,2058,2049,2061,2051
2049,2051,2047,2042,2056,2054,2062,2057
2048,2044,2038,2038,2048,2047,2063,2059
2045,2041,2034,2033,2039,2050,2057,2074
2052,2037,2035,2033,2035,2044,2065,2083
2044,2033,2029,2039,2025,2034,2040,2088
2043,2034,2025,2030,2009,2030,2032,2080
2028,2024,2016,2032,2014,2025,2037,2079
2027,2023,2011,2037,2005,2020,2044,2077
2036,2027,2018,2034,1991,2021,2036,2084
2038,2027,2012,2042,1986,2021,2018,2086
2037,2031,2014,2052,1998,2016,2029,2081
2031,2018,2010,2049,2003,2030,2024,2073
2031,2019,2018,2069,2050,2060,2065,2074
2043,2029,2030,2088,2087,2076,2065,2067
2046,2030,2019,2088,2110,2088,2072,2060
2039,2018,2013,2078,2103,2106,2075,2042
2037,2013,2003,2072,2079,2103,2059,2024
2037,2016,2006,2069,2069,2111,2059,2017
2040,2022,2014,2075,2067,2111,2080,2004
2048,2029,2015,2066,2062,2105,2081,1997
2046,2032,2014,2057,2062,2090,2069,1976
2048,2033,2020,2035,2039,2068,2054,1970
2042,2037,2032,2029,2043,2057,2034,1967
2044,2045,2063,2028,2046,2049,2028,1981
2049,2048,2054,2016,2047,2034,2022,1988
2052,2047,2054,2011,2049,2015,2011,1990
2061,2068,2075,2028,2069,2000,2028,1994
2069,2076,2074,2038,2069,1991,2037,2010
2069,2071,2069,2040,2058,1986,2054,2020
2060,2076,2078,2045,2059,1988,2025,2031
2058,2076,2105,2050,2056,2003,2036,2047
2051,2075,2109,2040,2049,2014,2040,2050
2052,2067,2104,2035,2047,2020,2033,2050
2043,2063,2094,2033,2052,2024,2041,2062
2046,2061,2075,2023,2049,2027,2043,2079
2055,2066,2077,2028,2057,2050,2060,2088
2053,2061,2071,2040,2063,2067,2045,2085
2047,2052,2059,2037,2052,2089,2058,2090
2043,2042,2048,2036,2056,2088,2030,2102
2047,2044,2048,2043,2064,2077,2045,2104
2045,2048,2050,2042,2057,2061,2045,2100
2051,2042,2048,2038,2050,2057,2044,2101
2045,2043,2059,2044,2046,2049,2044,2087
2042,2054,2070,2046,2056,2053,2044,2085
2038,2056,2077,2052,2055,2050,2042,2075
2042,2054,2074,2050,2050,2046,2042,2065
2037,2046,2078,2050,2055,2051,2045,2053
2045,2051,2074,2055,2056,2051,2047,2037
2047,2056,2067,2052,2059,2058,2044,2031
2046,2043,2062,2047,2055,2059,2057,2017
2043,2041,2063,2050,2054,2058,2060,2003
2043,2036,2056,2048,2052,2056,2054,1996
2040,2039,2059,2049,2047,2053,2061,1983
2040,2034,2052,2049,2048,2045,2043,1982
2043,2032,2050,2041,2051,2034,2043,1973
2043,2041,2052,2048,2052,2030,2047,1978
2044,2044,2058,2051,2044,2035,2042,1985
2045,2050,2050,2049,2044,2039,2033,1989
2049,2044,2043,2039,2034,2036,2011,1990
2048,2038,2047,2036,2032,2043,2029,2007
2039,2040,2037,2038,2039,2051,2016,2016
2041,2043,2036,2047,2051,2057,2055,2030
2050,2049,2039,2049,2062,2052,2033,2049
2045,2049,2033,2051,2066,2056,2050,2059
2050,2046,2026,2049,2058,2052,2058,2068
2043,2040,2021,2040,2060,2051,2060,2071
2037,2034,2016,2044,2061,2058,2050,2075
2037,2028,2013,2040,2065,2051,2049,2071
2032,2024,2015,2040,2061,2058,2063,2079
2024,2014,2014,2037,2058,2063,2055,2079
2024,2014,2018,2039,2058,2062,2052,2091
2036,2021,2029,2048,2058,2079,2055,2089
2033,2020,2028,2039,2051,2088,2056,2090
2038,2018,2019,2037,2045,2092,2059,2091
2039,2030,2022,2050,2038,2077,2050,2082
2043,2034,2040,2054,2047,2043,2043,2080
2049,2034,2056,2058,2054,2042,2068,2069
2045,2044,2061,2059,2056,2051,2052,2069
2050,2036,2050,2055,2062,2054,2066,2058
2045,2027,2038,2058,2070,2061,2049,2038
2043,2024,2033,2051,2069,2066,2056,2032
2041,2025,2027,2045,2089,2067,2058,2014
2044,2026,2022,2046,2123,2075,2047,2002
2047,2027,2024,2039,2127,2069,2067,1998
2049,2039,2022,2024,2125,2063,2048,1988
2042,2032,2029,2010,2111,2040,2042,1976
2035,2034,2048,2016,2122,2044,2049,1973
2040,2048,2079,2031,2118,2041,2039,1973
2040,2057,2087,2037,2114,2044,2038,1982
2045,2055,2089,2032,2103,2047,2054,1997
2045,2052,2079,2038,2083,2062,2043,2014
2048,2043,2068,2032,2053,2069,2053,2020
2051,2042,2063,2031,1954,2060,2050,2037
2046,2039,2064,2037,1920,2049,2055,2044
2049,2044,2068,2045,1970,2042,2035,2050
2046,2044,2065,2045,2005,2040,2034,2059
2046,2047,2070,2047,2019,2031,2040,2073
2051,2048,2072,2060,2026,2029,2038,2083
2058,2058,2079,2069,2034,2032,2031,2087
2051,2049,2082,2070,2034,2031,2041,2096
2054,2049,2080,2067,2033,2025,2024,2086
2049,2037,2070,2068,2031,2017,2030,2091
2042,2033,2075,2070,2031,2021,2032,2099
2050,2043,2091,2084,2039,2031,2046,2102
2045,2048,2088,2084,2043,2036,2043,2101
2054,2044,2093,2099,2057,2053,2047,2100
2049,2045,2099,2098,2058,2061,2058,2093
2053,2043,2092,2101,2059,2066,2045,2092
2051,2044,2081,2108,2049,2071,2048,2084
2055,2041,2075,2108,2048,2078,2058,2074
2060,2044,2060,2102,2048,2072,2073,2056
2057,2045,2056,2097,2041,2074,2062,2039
2057,2049,2053,2082,2029,2063,2060,2027
2054,2043,2046,2069,2018,2048,2063,2024
2055,2046,2031,2055,2027,2045,2070,2011
2050,2044,2018,2043,2007,2051,2053,1991
2046,2039,2007,2026,1996,2062,2045,1979
2033,2034,2002,2013,1983,2068,2032,1968
2041,2032,1995,2000,1976,2069,2044,1971
2047,2035,1989,1987,1979,2061,2046,1978
2040,2025,1973,1964,1990,2032,2045,1995
2042,2023,1981,1976,2023,2026,2063,2002
2054,2042,2014,2012,2070,2056,2059,2019
2053,2047,2029,2019,2081,2058,2056,2030
2047,2039,2023,2022,2080,2062,2054,2040
2050,2036,2023,2023,2099,2069,2063,2049
2052,2044,2036,2038,2114,2090,2067,2055
2051,2052,2052,2043,2110,2100,2056,2064
2053,2055,2055,2044,2098,2086,2050,2068
2053,2045,2062,2038,2077,2070,2050,2077
2053,2050,2062,2034,2080,2066,2038,2079
2052,2049,2066,2033,2099,2053,2048,2092
2048,2045,2059,2029,2074,2036,2035,2090
2042,2037,2059,2025,2043,2029,2042,2101
2037,2036,2062,2037,2059,2046,2050,2104
2039,2045,2060,2039,2085,2052,2048,2100
2038,2044,2053,2023,2033,2043,2051,2094
2043,2041,2043,2030,2001,2051,2053,2093
2049,2045,2047,2044,2020,2058,2053,2090
2058,2040,2055,2066,2107,2071,2054,2089
2056,2042,2056,2073,2150,2066,2069,2079
2063,2043,2052,2069,2150,2053,2048,2071
2057,2043,2051,2059,2132,2037,2052,2052
2054,2038,2040,2048,2098,2026,2035,2029
2048,2030,2038,2043,2071,2033,2037,2008
2043,2030,2042,2032,2013,2051,2057,1992
2046,2033,2034,2016,1971,2052,2052,1985
2045,2037,2040,1996,1938,2027,2023,1966
2030,2025,2021,1971,1857,1992,2020,1957
2017,2007,2012,1966,1857,1985,2037,1955
2022,2016,2034,2009,1942,1971,2040,1967
2018,2025,2048,2026,1997,1986,2031,1961
2022,2018,2050,2046,2040,2021,2034,1968
2020,2019,2049,2052,2079,2053,2018,1987
2029,2018,2052,2062,2101,2081,2036,2004
2033,2025,2051,2069,2101,2083,2048,2018
2034,2026,2044,2061,2082,2071,2060,2034
2037,2035,2042,2057,2074,2066,2056,2047
2037,2035,2045,2061,2064,2060,2059,2060
2041,2036,2045,2066,2075,2057,2052,2068
2042,2040,2045,2061,2066,2054,2046,2068
2036,2042,2051,2051,2058,2049,2039,2076
2037,2051,2060,2042,2058,2045,2046,2085
2039,2045,2051,2033,2058,2043,2055,2098
2043,2048,2051,2027,2049,2045,2049,2104
2042,2037,2040,2016,2044,2047,2036,2107
2043,2042,2040,2013,2052,2058,2058,2109
2054,2052,2041,2022,2051,2053,2059,2107
2051,2053,2042,2023,2046,2052,2052,2104
2047,2051,2044,2032,2058,2052,2027,2100
2047,2051,2039,2046,2057,2063,2043,2098
2050,2048,2036,2055,2058,2066,2045,2086
2049,2041,2041,2052,2058,2070,2059,2079
2046,2044,2047,2042,2062,2065,2045,2070
2049,2044,2044,2036,2056,2064,2066,2057
2047,2043,2045,2034,2057,2060,2058,2041
2049,2042,2046,2043,2047,2058,2054,2026
2050,2042,2050,2047,2053,2058,2050,2022
2052,2038,2041,2046,2040,2057,2058,2013
2050,2042,2043,2042,2039,2061,2064,1993
2053,2035,2042,2033,2022,2033,2060,1982
2040,2027,2038,2025,2004,2017,2042,1977
2038,2028,2042,2023,2003,2030,2055,1979
2052,2049,2053,2035,1994,2040,2049,1979
2049,2046,2059,2034,1981,2064,2056,1991
2052,2051,2064,2035,1981,2069,2069,1999
2051,2047,2065,2033,1968,2071,2065,2007
2051,2046,2054,2031,1984,2058,2064,2021
2052,2046,2054,2039,2058,2045,2071,2041
2049,2041,2049,2058,2151,2031,2069,2050
2050,2044,2053,2071,2221,2048,2069,2057
2056,2042,2052,2080,2238,2069,2063,2077
2055,2043,2054,2084,2235,2075,2052,2075
2051,2040,2053,2080,2229,2075,2048,2082
2052,2040,2056,2080,2219,2072,2034,2099
2050,2042,2055,2090,2205,2077,2047,2098
2051,2040,2054,2105,2167,2074,2036,2102
2045,2039,2049,2083,2109,2064,2056,2108
2047,2036,2057,2070,2025,2053,2071,2111
2048,2043,2054,2035,1818,2030,2070,2104
2048,2040,2052,2024,1770,2031,2072,2105
2049,2042,2056,2034,1841,2032,2079,2107
2052,2049,2059,2051,1929,2042,2072,2103
2054,2055,2068,2061,1985,2048,2068,2107
2052,2053,2056,2055,1971,2065,2080,2087
2048,2040,2040,2032,1941,2067,2060,2070
2044,2022,2024,2007,1919,2063,2066,2049
2039,2024,2023,2009,1944,2067,2056,2033
2039,2023,2018,2034,2016,2049,2054,2022
2038,2023,2023,2060,2064,2010,2035,2015
2041,2030,2029,2075,2084,2001,2042,2003
2045,2039,2039,2082,2124,2038,2056,1997
2053,2047,2041,2107,2170,2066,2057,1982
2049,2031,2032,2085,2110,2067,2044,1973
2037,2022,2037,2064,2042,2054,2057,1975
2045,2038,2050,2056,2006,2059,2052,1983
2050,2043,2067,2062,1984,2066,2058,1996
2058,2057,2071,2044,1939,2050,2041,2003
2056,2057,2079,2048,1929,2078,2041,2020
2058,2060,2089,2057,1960,2121,2048,2030
2059,2056,2093,2059,1957,2136,2069,2048
2065,2061,2094,2093,2144,2159,2080,2065
2075,2060,2089,2115,2284,2167,2088,2077
2076,2064,2082,2125,2319,2133,2076,2081
2074,2063,2080,2119,2293,2062,2086,2100
2072,2065,2074,2119,2272,2047,2104,2104
2067,2054,2071,2100,2151,2058,2091,2091
2048,2031,2043,2024,1900,2045,2073,2080
2032,2020,2034,2000,1918,1991,2049,2069
2025,2002,2012,1975,1954,1896,1991,2082
2020,2002,2012,1987,1979,1884,1987,2085
2022,2014,2023,2043,2097,1939,2010,2086
2034,2016,2032,2028,1988,1963,2000,2074
2030,2011,2015,1977,1879,1984,1998,2069
2024,2011,2024,2019,2035,2020,2051,2066
2033,2020,2038,2056,2068,2060,2067,2070
2036,2025,2043,2060,2069,2103,2072,2063
2034,2030,2034,2044,2064,2127,2065,2052
2032,2025,2024,2040,2045,2134,2074,2044
2039,2022,2027,2050,2032,2130,2088,2030
2036,2031,2031,2059,2029,2097,2093,2028
2036,2028,2033,2066,2040,2077,2087,2016
2042,2032,2030,2072,2018,2035,2084,2010
2042,2033,2032,2072,2027,2059,2089,2006
2038,2025,2023,2053,1981,2074,2086,1994
2033,2009,2005,2036,1890,2044,2082,1985
2038,2018,2004,2030,1759,2035,2077,1990
2052,2039,2020,2053,1787,2050,2070,2003
2057,2047,2038,2093,1862,2081,2073,2008
2053,2058,2052,2133,1948,2131,2102,2024
2065,2064,2070,2156,2020,2153,2100,2043
2068,2057,2055,2136,2062,2139,2105,2048
2069,2039,2048,2140,2220,2140,2097,2062
2070,2046,2062,2184,2461,2168,2099,2075
2071,2050,2088,2198,2544,2158,2085,2075
2061,2051,2097,2151,2421,2080,2079,2068
2051,2040,2070,2057,2225,1993,2054,2066
2043,2024,2046,1993,2105,1956,2022,2061
2032,2012,2034,2011,2100,1924,2031,2053
2031,2009,2031,2037,2093,1911,2019,2045
2027,2013,2034,2055,2071,1906,2014,2047
2024,2009,2024,2050,2167,1906,2014,2052
2022,2019,2030,2031,2138,1928,2024,2069
2036,2039,2036,2022,2115,1971,2048,2070
2045,2039,2030,2011,2049,1991,2042,2081
2046,2038,2038,1998,1982,2003,2051,2074
2039,2037,2045,1991,1971,2006,2046,2077
2033,2026,2046,1972,1982,2008,2052,2079
2032,2028,2052,1980,2006,2028,2060,2081
2039,2032,2060,1995,1997,2033,2065,2083
2043,2038,2066,2012,1999,2061,2066,2072
2056,2047,2063,2017,1952,2081,2081,2052
2063,2058,2067,2013,1952,2095,2086,2044
2076,2054,2069,2033,1992,2110,2091,2026
2066,2053,2070,2035,2007,2101,2083,2004
2045,2039,2076,2051,2002,2104,2088,1999
2056,2044,2084,2055,2005,2096,2076,1982
2050,2043,2087,2056,2007,2085,2059,1972
2044,2040,2071,2063,1984,2039,2041,1969
2053,2039,2076,2078,2024,2000,2051,1964
2048,2037,2076,2088,2083,2002,2030,1973
2040,2036,2078,2113,2137,2026,2068,1984
2048,2037,2079,2130,2132,2036,2076,1997
2050,2033,2073,2125,2071,2013,2063,2007
2044,2030,2076,2101,2018,2004,2064,2014
2042,2031,2077,2086,1979,2008,2052,2027
2053,2036,2082,2099,2034,2037,2057,2043
2061,2046,2083,2122,2109,2046,2063,2051
2055,2043,2068,2116,2063,2055,2068,2067
2059,2040,2051,2114,2022,2070,2075,2090
2065,2048,2046,2123,2063,2108,2091,2105
2072,2055,2049,2135,2138,2146,2096,2115
2074,2059,2044,2126,2189,2169,2088,2118
2070,2052,2030,2090,2177,2159,2095,2110
2058,2053,2036,2034,2049,2119,2079,2106
2057,2059,2035,1969,1866,2078,2068,2102
2047,2063,2038,1934,1788,2062,2067,2096
2044,2053,2025,1933,1924,2057,2049,2092
2038,2039,2014,1928,1978,2016,2058,2077
2037,2038,2016,1937,2055,1965,2045,2074
2049,2050,2026,1956,2101,1928,2048,2064
2055,2052,2035,1980,2067,1900,2028,2044
2055,2053,2047,1978,2051,1926,2037,2032
2051,2058,2059,1991,2038,1999,2035,2023
2052,2050,2060,2006,2057,2032,2046,2010
2050,2043,2049,2017,2062,2030,2060,1986
2052,2037,2045,2029,2062,2017,2044,1974
2034,2034,2037,2030,2078,2010,2045,1963
2034,2034,2040,2033,2098,2019,2038,1961
2032,2038,2054,2040,2145,2026,2047,1964
2037,2054,2055,2043,2140,2033,2051,1970
2047,2067,2064,2049,2137,2052,2033,1977
2059,2074,2071,2062,2160,2065,2047,1995
2065,2078,2069,2067,2172,2069,2066,2004
2068,2074,2067,2076,2124,2065,2054,2016
2073,2071,2064,2069,2048,2057,2057,2029
2073,2075,2073,2068,2029,2066,2055,2047
2079,2079,2077,2067,2011,2096,2059,2061
2080,2079,2076,2082,2079,2129,2060,2076
2080,2085,2083,2096,2128,2131,2074,2078
2084,2078,2082,2082,2104,2128,2057,2080
2076,2074,2081,2067,2070,2110,2050,2092
2077,2079,2086,2056,1949,2087,2041,2098
2071,2079,2089,2056,1897,2080,2047,2113
2074,2073,2088,2048,1855,2066,2047,2109
2065,2064,2073,2039,1823,2053,2038,2099
2054,2045,2047,2015,1725,2004,2029,2082
2038,2041,2035,1999,1748,2007,2038,2061
2026,2029,2021,1999,1830,2006,2022,2055
2024,2028,2015,2017,1917,1996,2020,2050
2032,2041,2016,2039,1901,1994,2028,2048
2044,2044,2029,2063,2009,2010,2019,2060
2051,2049,2043,2092,2151,2006,2043,2064
2066,2052,2045,2081,2130,2004,2061,2056
2060,2051,2030,2019,2028,1983,2055,2026
2036,2029,2005,1961,1876,1968,2035,2009
2025,2020,1995,1996,2049,2013,2018,1998
2034,2020,2003,2045,2220,2057,2038,1982
2025,2028,2012,2066,2270,2079,2046,1970
2034,2033,2028,2082,2250,2080,2044,1971
2041,2044,2038,2068,2194,2070,2038,1960
2043,2032,2024,2047,2164,2056,2040,1954
2034,2028,2018,2038,2136,2056,2014,1957
2035,2038,2028,2033,2114,2055,2040,1958
2044,2051,2047,2028,2088,2050,2050,1967
2053,2062,2074,2032,2039,2039,2050,1973
2047,2065,2082,2032,2013,2033,2062,1987
2044,2065,2076,2026,2003,2021,2054,1989
2045,2061,2069,2030,2012,2014,2054,2002
2039,2056,2063,2034,2032,2028,2054,2016
2041,2056,2055,2049,2061,2047,2067,2029
2049,2051,2056,2056,2072,2057,2062,2039
2053,2054,2048,2046,2064,2050,2051,2047
2041,2049,2039,2042,2049,2041,2047,2052
2033,2043,2037,2032,2048,2035,2045,2058
2031,2041,2037,2029,2041,2033,2047,2061
2043,2042,2044,2039,2053,2039,2050,2075
2034,2043,2043,2041,2050,2035,2050,2068
2030,2039,2044,2043,2055,2041,2045,2078
2040,2051,2046,2049,2057,2049,2053,2092
2042,2056,2048,2052,2064,2051,2055,2082
2054,2059,2055,2055,2070,2053,2064,2090
2050,2056,2049,2058,2067,2057,2052,2080
2052,2051,2041,2048,2065,2058,2051,2073
2049,2042,2038,2047,2070,2066,2052,2052
2038,2035,2039,2042,2058,2061,2040,2045
2040,2041,2033,2038,2056,2066,2060,2030
2038,2040,2031,2036,2060,2062,2062,2018
2040,2041,2026,2041,2066,2067,2070,2013
2048,2044,2024,2045,2069,2065,2061,1996
2044,2040,2020,2047,2070,2063,2054,1979
2039,2042,2019,2041,2064,2057,2056,1972
2038,2039,2009,2043,2066,2054,2057,1965
2045,2035,2003,2035,2060,2047,2049,1957
2036,2026,1995,2031,2054,2046,2045,1956
2035,2029,2004,2030,2046,2037,2052,1964
2036,2026,2003,2032,2030,2025,2043,1959
2026,2025,2006,2035,2010,2014,2044,1969
2026,2022,2013,2034,2008,2014,2044,1979
2031,2026,2016,2030,2001,2022,2038,1984
2028,2018,2014,2023,2020,2048,2036,1999
2031,2025,2018,2043,2065,2068,2049,2024
2042,2037,2027,2058,2091,2073,2048,2030
2045,2054,2048,2063,2080,2074,2057,2041
2044,2062,2071,2065,2082,2073,2050,2043
2055,2073,2089,2066,2062,2077,2063,2056
2056,2068,2101,2074,2107,2075,2057,2064
2057,2070,2104,2077,2134,2071,2057,2074
2056,2064,2100,2075,2133,2068,2052,2074
2047,2056,2077,2069,2127,2060,2049,2065
2039,2045,2064,2062,2090,2050,2037,2072
2042,2049,2062,2063,2072,2046,2035,2084
2049,2055,2065,2057,2056,2047,2053,2081
2044,2051,2055,2041,2031,2037,2040,2076
2046,2050,2055,2026,1960,2033,2029,2072
2032,2047,2059,2038,1983,2043,2045,2072
2044,2048,2061,2044,2015,2057,2053,2064
2048,2055,2057,2046,2041,2057,2058,2053
2047,2055,2062,2050,2047,2056,2054,2044
2049,2060,2064,2053,2057,2056,2049,2034
2054,2057,2065,2057,2060,2058,2054,2019
2053,2058,2065,2051,2058,2050,2038,2006
2051,2060,2063,2054,2061,2047,2047,1994
2049,2058,2060,2049,2059,2050,2056,1976
2046,2049,2057,2052,2056,2051,2052,1974
2051,2049,2053,2047,2055,2052,2043,1962
2049,2041,2038,2042,2048,2043,2044,1960
2051,2049,2040,2045,2051,2050,2052,1963
2054,2053,2022,2041,2054,2052,2055,1966
2053,2042,2022,2039,2057,2058,2070,1972
2052,2048,2022,2045,2058,2061,2062,1973
2055,2047,2016,2044,2052,2056,2056,1992
2055,2048,2014,2036,2040,2043,2050,1996
2051,2044,2019,2042,2038,2035,2046,2011
2052,2044,2021,2040,2043,2042,2051,2025
2049,2040,2019,2045,2045,2040,2047,2032
2042,2040,2019,2040,2052,2050,2017,2041
2049,2037,2014,2048,2063,2056,2039,2047
2050,2038,2009,2048,2066,2067,2046,2055
2054,2038,2014,2051,2052,2065,2054,2076
2054,2046,2043,2067,2052,2079,2051,2090
2046,2055,2071,2080,2071,2078,2043,2082
2040,2048,2081,2087,2082,2074,2031,2088
2036,2042,2088,2100,2090,2085,2060,2097
2046,2055,2086,2092,2060,2089,2076,2100
2046,2047,2074,2074,2036,2066,2062,2089
2057,2056,2083,2078,2021,2057,2063,2087
2054,2070,2102,2077,2016,2041,2063,2078
2051,2072,2114,2060,1989,2029,2060,2062
2064,2074,2119,2035,2014,2040,2055,2061
2061,2080,2108,2013,1965,2041,2054,2046
2054,2070,2093,2001,1957,2044,2057,2035
2056,2066,2083,2012,2038,2055,2064,2024
2050,2064,2078,2034,2134,2066,2059,2012
2044,2050,2075,2055,2204,2089,2064,1999
2049,2055,2086,2095,2252,2125,2071,1993
2056,2064,2098,2107,2282,2165,2083,1989
2062,2077,2095,2106,2310,2178,2072,1984
2054,2060,2074,2095,2289,2169,2063,1978
2051,2058,2071,2087,2247,2103,2073,1977
2065,2068,2070,2068,2171,2039,2052,1981
2055,2055,2051,2011,1983,1989,2044,1971
2048,2040,2043,1957,1703,1962,2017,1963
2030,2039,2038,1956,1719,1969,2025,1972
2035,2039,2050,2009,1866,1997,2032,1993
2040,2055,2056,2044,1948,2003,2033,2007
2049,2059,2059,2041,1992,2004,2034,2025
2051,2061,2058,2036,2006,2001,2028,2025
2053,2052,2043,2028,2010,1998,2029,2026
2050,2052,2047,2038,2031,2000,2036,2040
2049,2049,2055,2040,2024,1991,2027,2045
2041,2050,2052,2045,2050,2011,2038,2055
2047,2061,2061,2058,2083,2038,2037,2073
2047,2063,2060,2064,2054,2031,2045,2081
2049,2051,2050,2047,2032,2023,2042,2087
2049,2046,2043,2039,2020,2036,2040,2084
2051,2048,2045,2039,2019,2044,2044,2071
2033,2044,2044,2046,2049,2050,2029,2062
2035,2043,2044,2056,2052,2053,2048,2067
2033,2051,2051,2053,2050,2052,2052,2062
2041,2045,2049,2055,2050,2058,2064,2059
2045,2046,2049,2055,2058,2065,2068,2054
2041,2048,2049,2055,2062,2072,2051,2051
2039,2045,2051,2055,2063,2077,2053,2042
2038,2045,2044,2046,2064,2072,2054,2025
2033,2038,2037,2042,2062,2059,2049,2006
2034,2036,2032,2045,2066,2058,2035,1995
2037,2039,2041,2049,2074,2054,2043,1980
2044,2045,2045,2054,2069,2046,2040,1978
2042,2056,2043,2054,2066,2045,2055,1967
2045,2042,2039,2049,2057,2042,2043,1966
2043,2041,2037,2050,2061,2040,2050,1969
2054,2057,2041,2052,2050,2027,2046,1970
2056,2060,2044,2054,2055,2015,2033,1973
2056,2047,2037,2052,2048,2020,2033,1981
2049,2033,2030,2057,2048,2021,2036,1984
2045,2032,2040,2066,2044,2019,2027,1987
2040,2024,2044,2067,2044,2026,2011,1997
2031,2025,2043,2073,2050,2040,2023,2002
2039,2039,2050,2080,2056,2074,2032,2024
2043,2045,2053,2079,2043,2102,2049,2036
2042,2044,2041,2070,2043,2120,2047,2043
2044,2040,2037,2069,2038,2112,2044,2045
2040,2027,2036,2080,2033,2089,2048,2048
2038,2028,2033,2089,2038,2021,2034,2065
2042,2042,2043,2086,2039,1997,2028,2076
2038,2026,2041,2078,2035,2014,2036,2078
2037,2020,2032,2064,2027,2029,2039,2076
2041,2034,2044,2060,2025,2045,2038,2083
2040,2037,2047,2055,2015,2071,2050,2080
2042,2039,2053,2045,2015,2094,2049,2079
2044,2048,2054,2036,2027,2095,2052,2070
2047,2053,2047,2032,2033,2077,2025,2070
2049,2057,2042,2031,2028,2057,2044,2062
2037,2058,2035,2033,2051,2050,2058,2061
2044,2060,2036,2040,2078,2074,2048,2060
2048,2056,2034,2034,2078,2097,2057,2048
2058,2056,2033,2038,2114,2117,2079,2033
2061,2056,2042,2037,2129,2116,2066,2016
2059,2054,2032,2025,2106,2093,2063,2006
2048,2048,2028,1988,1975,2072,2068,1992
2052,2063,2046,1995,1961,2068,2065,1978
2049,2056,2056,2005,1996,2059,2054,1974
2046,2057,2065,2032,2063,2057,2044,1976
2060,2067,2076,2041,2083,2039,2033,1979
2051,2062,2071,2039,2076,2006,2054,1969
2042,2054,2053,2020,2029,1965,2049,1971
2040,2052,2051,2042,2022,1980,2053,1984
2044,2055,2053,2061,2034,1992,2057,2002
2047,2055,2051,2059,2046,2002,2047,2006
2040,2046,2042,2039,2039,2003,2045,2025
2051,2054,2044,2043,2037,2036,2044,2041
2051,2055,2050,2052,2051,2058,2043,2049
2050,2057,2056,2050,2060,2056,2039,2053
2046,2059,2054,2050,2063,2054,2027,2063
2051,2054,2044,2050,2060,2050,2024,2072
2046,2058,2048,2051,2062,2046,2056,2081
2051,2053,2054,2056,2041,2041,2047,2073
2044,2033,2040,2046,2014,2027,2034,2072
2037,2028,2031,2041,2018,2026,2044,2076
2038,2041,2034,2052,2020,2032,2046,2073
2040,2044,2036,2053,2027,2033,2037,2069
2043,2046,2043,2058,2001,2021,2037,2073
2045,2040,2048,2060,1993,2023,2048,2064
2039,2041,2040,2056,1999,2024,2055,2058
2036,2032,2026,2050,1999,2023,2045,2060
2036,2037,2027,2061,2040,2039,2051,2055
2047,2046,2025,2081,2096,2051,2060,2040
2050,2045,2003,2078,2140,2065,2071,2036
2046,2034,1973,2054,2137,2069,2040,2023
2035,2024,1958,2040,2090,2051,2038,2002
2032,2017,1954,2023,2071,2033,2032,1992
2046,2029,1971,2013,2074,2032,2039,1985
2043,2035,1975,2010,2064,2027,2041,1979
2035,2036,1986,2006,2064,2022,2031,1968
2037,2029,1992,2015,2061,2015,2033,1965
2041,2041,2006,2026,2068,2016,2041,1973
2036,2048,2017,2024,2068,2024,2051,1978
2037,2044,2023,2028,2063,2025,2054,1991
2034,2045,2020,2029,2054,2031,2044,1995
2043,2045,2029,2032,2040,2041,2025,2008
2040,2051,2041,2038,2030,2037,2016,2030
2045,2054,2051,2046,2026,2020,2024,2033
2043,2051,2053,2042,2009,2033,2025,2042
2046,2056,2064,2053,2023,2062,2035,2051
2048,2055,2070,2056,2026,2108,2040,2059
2052,2061,2070,2065,2024,2103,2049,2069
2048,2058,2080,2071,2014,2081,2038,2080
2053,2061,2081,2080,2021,2062,2054,2086
2055,2063,2086,2088,2029,2029,2024,2088
2054,2055,2087,2090,2030,2020,2026,2093
2051,2047,2072,2089,2069,2059,2047,2096
2055,2047,2065,2091,2101,2085,2057,2093
2050,2046,2060,2090,2097,2086,2051,2087
2053,2047,2076,2087,2112,2093,2033,2086
2050,2045,2078,2087,2134,2101,2042,2079
2046,2044,2064,2079,2130,2099,2027,2077
2045,2041,2047,2074,2114,2096,2042,2068
2042,2042,2039,2057,2091,2082,2046,2049
2041,2043,2041,2050,2079,2081,2043,2036
2045,2047,2039,2047,2081,2079,2025,2024
2032,2047,2042,2044,2051,2074,2027,2020
2031,2049,2048,2035,2003,2041,2038,2004
2033,2044,2047,2018,1978,2022,2041,1995
2033,2038,2042,2026,1979,2038,2058,1982
2039,2037,2026,2033,1999,2053,2061,1975
2031,2019,2019,2037,2032,2069,2060,1977
2034,2035,2044,2053,2063,2076,2068,1974
2040,2056,2073,2060,2093,2078,2076,1976
2040,2055,2068,2053,2104,2064,2062,1976
2039,2054,2054,2042,2069,2036,2044,1987
2038,2045,2066,2046,2095,2019,2041,1998
2039,2046,2060,2060,2125,2024,2049,2012
2043,2057,2072,2069,2115,2038,2036,2030
2046,2064,2077,2066,2093,2048,2022,2032
2045,2057,2061,2056,2078,2045,2049,2051
2048,2053,2057,2060,2107,2049,2053,2065
2043,2045,2054,2062,2110,2044,2041,2067
2035,2038,2043,2061,2078,2045,2057,2075
2027,2032,2039,2048,1996,2034,2044,2079
2025,2024,2034,2020,1890,2024,2016,2081
2026,2023,2035,2013,1909,2019,2038,2081
2025,2025,2046,2007,1956,2019,2045,2088
2030,2028,2057,2017,1997,2030,2063,2098
2041,2048,2066,2040,2053,2050,2058,2100
2039,2048,2061,2048,2056,2060,2048,2096
2041,2049,2057,2048,2006,2065,2054,2089
2046,2051,2059,2043,1971,2070,2058,2085
2052,2056,2055,2035,1956,2074,2059,2076
2048,2051,2056,2036,1947,2064,2050,2066
2050,2058,2073,2045,1952,2030,2051,2063
2054,2066,2093,2072,2001,2012,2056,2061
2052,2068,2109,2100,2051,2003,2029,2058
2054,2070,2109,2111,2075,2027,2064,2039
2054,2066,2102,2108,2076,2041,2055,2017
2056,2069,2091,2104,2062,2053,2060,2004
2055,2064,2081,2103,2065,2061,2060,1986
2052,2059,2087,2103,2068,2057,2057,1978
2044,2053,2083,2104,2080,2058,2054,1973
2048,2051,2089,2104,2076,2055,2052,1969
2047,2047,2081,2083,2041,2052,2045,1974
2040,2043,2064,2063,2031,2040,2046,1983
2047,2054,2061,2059,2036,2041,2053,1989
2042,2056,2061,2057,2036,2035,2051,2005
2043,2059,2055,2050,2042,2040,2041,2018
2043,2050,2046,2039,2052,2050,2037,2035
2040,2055,2053,2035,2060,2052,2051,2046
2046,2056,2061,2035,2053,2057,2035,2056
2041,2046,2044,2031,2044,2050,2040,2059
2038,2040,2041,2028,2033,2046,2034,2060
2042,2046,2045,2025,2036,2043,2046,2073
2038,2048,2048,2028,2028,2039,2030,2077
2040,2047,2041,2011,2030,2041,2027,2086
2037,2036,2030,2010,2020,2039,2044,2086
2038,2029,2027,2015,2039,2041,2039,2091
2041,2040,2033,2032,2045,2049,2040,2096
2055,2052,2042,2044,2064,2056,2050,2099
2045,2054,2049,2058,2067,2068,2049,2100
2051,2053,2045,2071,2072,2079,2053,2099
2038,2047,2037,2078,2084,2090,2063,2098
2049,2041,2032,2077,2069,2086,2062,2093
2045,2043,2037,2084,2066,2080,2062,2082
2046,2045,2032,2064,2029,2060,2047,2064
2050,2038,2016,2027,1941,2048,2051,2043
2043,2033,2019,2017,1936,2033,2049,2043
2050,2039,2022,2008,1957,2040,2017,2023
2044,2032,2007,2000,1994,2071,2009,2002
2046,2027,2005,2007,2075,2095,2016,1987
2035,2022,2004,2016,2098,2096,2037,1963
2036,2019,2000,2016,2052,2083,2019,1956
2036,2015,2009,2032,2058,2032,2024,1970
2048,2034,2046,2065,2080,1961,2042,1990
2056,2048,2059,2075,2089,1982,2040,1994
2060,2052,2069,2064,2064,2015,2040,2000
2054,2059,2071,2050,2042,2026,2036,2005
2062,2064,2082,2042,1976,2022,2039,2014
2066,2064,2071,2046,1983,2033,2046,2027
2064,2046,2059,2048,1998,2037,2046,2038
2049,2043,2059,2048,2019,2035,2026,2044
2050,2042,2060,2055,2017,2029,2037,2053
2057,2051,2072,2056,2032,2038,2036,2068
2055,2054,2086,2064,2065,2047,2068,2077
2049,2045,2084,2059,2064,2047,2040,2083
2048,2051,2090,2054,2024,2051,2057,2098
2051,2053,2100,2040,1971,2054,2039,2096
2055,2049,2084,2033,1935,2046,2025,2094
2042,2044,2063,2018,1911,2028,2022,2094
2040,2042,2065,2022,1911,2004,2022,2105
2046,2036,2065,2041,1954,1997,2054,2114
2050,2042,2067,2058,1992,2005,2077,2113
2060,2042,2066,2066,2009,2014,2064,2109
2051,2044,2052,2053,2019,2017,2061,2098
2050,2042,2045,2034,2016,2019,2052,2084
2052,2049,2034,2034,2049,2024,2060,2087
2057,2054,2033,2038,2118,2039,2064,2082
2059,2054,2042,2054,2157,2089,2062,2067
2060,2054,2051,2064,2142,2138,2084,2054
2055,2058,2051,2061,2120,2142,2082,2032
2055,2053,2052,2042,2011,2119,2085,2020
2057,2054,2050,2018,1899,2094,2086,2004
2060,2055,2053,2037,1974,2065,2082,1997
2055,2050,2053,2057,2084,2048,2073,1987
2053,2039,2053,2057,2139,2061,2068,1982
2059,2044,2062,2071,2189,2065,2051,1986
2053,2038,2045,2042,2129,2032,2030,1986
2049,2034,2037,2032,2076,2015,2050,1996
2059,2047,2046,2048,2067,2016,2053,2004
2059,2056,2062,2044,2034,2018,2034,2005
2055,2046,2060,2049,2038,2023,2054,2018
2059,2051,2068,2072,2074,2019,2062,2032
2067,2051,2056,2073,2020,1996,2048,2045
2064,2048,2048,2069,2008,1995,2046,2054
2069,2048,2050,2076,2048,2013,2051,2063
2071,2048,2052,2081,2065,2012,2055,2066
2063,2053,2050,2079,2050,2021,2038,2074
2071,2058,2056,2065,2028,2035,2029,2080
2064,2047,2046,2064,2067,2045,2035,2074
2051,2036,2036,2068,2106,2034,2034,2074
2047,2029,2043,2057,2088,2016,2037,2091
2056,2050,2057,2056,2068,2013,2035,2099
2051,2057,2059,2050,2079,2009,2044,2091
2048,2051,2053,2045,2084,2015,2042,2084
2042,2051,2042,2041,2068,2028,2053,2077
2036,2056,2054,2045,2070,2039,2050,2082
2037,2056,2055,2032,2072,2045,2038,2087
2047,2057,2060,2032,2074,2049,2055,2084
2050,2060,2073,2036,2048,2054,2066,2080
2056,2061,2067,2033,2061,2055,2075,2068
2051,2062,2064,2037,2064,2058,2075,2053
2051,2060,2059,2030,2079,2076,2074,2035
2049,2057,2059,2036,2109,2080,2087,2022
2042,2053,2058,2050,2173,2084,2075,2009
2044,2054,2056,2054,2223,2091,2072,2004
2046,2054,2057,2067,2255,2093,2061,1993
2040,2045,2050,2056,2232,2071,2057,1983
2031,2044,2043,2048,2170,2045,2038,1983
2036,2047,2049,2041,2074,2052,2046,1987
2040,2050,2042,2064,2079,2071,2066,1986
2030,2041,2039,2065,1987,2048,2049,1987
2036,2035,2038,2046,1878,2037,2040,1991
2030,2028,2036,2028,1876,2037,2037,2000
2034,2026,2032,2017,1911,2032,2044,2022
2033,2026,2035,2022,1928,2032,2046,2038
2034,2031,2041,2036,1983,2035,2048,2053
2041,2038,2047,2046,2019,2038,2038,2058
2039,2037,2044,2038,2021,2030,2024,2062
2042,2031,2033,2041,2026,2038,2032,2066
2042,2027,2032,2041,2018,2036,2038,2068
2040,2033,2033,2042,2009,2035,2031,2080
2051,2051,2047,2044,2015,2033,2038,2074
2043,2045,2050,2037,2010,2033,2044,2085
2041,2043,2052,2033,1972,2052,2046,2085
2046,2053,2063,2051,2000,2077,2050,2092
2045,2048,2053,2051,2030,2075,2041,2088
2040,2037,2035,2043,2005,2071,2045,2089
2045,2035,2030,2033,2000,2062,2054,2090
2044,2035,2022,2037,2010,2074,2065,2082
2052,2038,2028,2045,2020,2076,2055,2073
2047,2042,2028,2046,2019,2073,2061,2063
2046,2040,2036,2044,2034,2067,2066,2055
2052,2047,2042,2046,2050,2046,2072,2037
2045,2046,2035,2045,2064,2025,2061,2022
2044,2038,2031,2042,2047,2003,2063,2008
2035,2041,2030,2042,2042,1990,2061,1992
2036,2040,2041,2047,2080,1993,2044,1984
2045,2051,2055,2060,2122,2008,2050,1983
2048,2051,2057,2056,2116,2010,2020,1976
2045,2050,2050,2057,2101,2023,2009,1971
2055,2056,2056,2062,2095,2031,2016,1968
2040,2046,2049,2040,2021,2034,2027,1968
2040,2042,2058,2043,2021,2037,2030,1983
2038,2049,2062,2037,2009,2031,2029,2004
2038,2038,2055,2023,1992,2021,2031,2014
2038,2047,2062,2024,1983,2010,2037,2028
2038,2052,2068,2015,1986,2023,2034,2030
2043,2053,2068,2021,1974,2032,2043,2056
2049,2063,2070,2025,1953,2037,2056,2071
2052,2066,2076,2025,1966,2017,2034,2083
2060,2065,2082,2029,1975,1990,2044,2081
2059,2064,2082,2024,1960,1993,2037,2090
2053,2052,2072,2030,1998,2016,2049,2085
2047,2047,2068,2043,2053,2021,2054,2089
2045,2043,2062,2058,2079,2026,2046,2096
2041,2035,2053,2063,2048,2023,2048,2097
2048,2046,2056,2059,2019,2012,2053,2093
2050,2051,2057,2049,2019,2007,2049,2101
2053,2052,2056,2055,2040,2035,2048,2102
2050,2050,2054,2048,2027,2060,2064,2104
2058,2055,2055,2043,2017,2094,2066,2094
2062,2060,2062,2048,2014,2120,2074,2092
2061,2065,2062,2050,2028,2114,2072,2080
2056,2059,2058,2044,2051,2107,2068,2066
2056,2044,2054,2024,2031,2083,2069,2054
2056,2046,2058,2025,1987,2056,2037,2036
2055,2048,2052,2029,1987,2025,2025,2022
2055,2051,2052,2038,2023,1996,2025,2028
2068,2064,2061,2045,2056,2005,2041,2024
2069,2059,2057,2049,2078,2024,2040,2000
2051,2036,2038,2034,2102,2033,2045,1982
2042,2038,2041,2039,2090,2040,2050,1978
2041,2045,2063,2061,2066,2041,2050,1987
2045,2043,2072,2078,2074,2042,2043,1997
2045,2049,2085,2107,2096,2037,2049,2005
2046,2048,2092,2130,2106,2029,2040,2012
2053,2053,2102,2135,2109,2030,2053,2026
2050,2047,2088,2119,2088,2026,2052,2036
2048,2039,2068,2113,2065,2015,2038,2046
2048,2034,2060,2109,2055,2017,2052,2046
2047,2022,2040,2104,2061,2021,2021,2061
2052,2030,2030,2103,2045,2032,2015,2064
2048,2039,2038,2108,2030,2041,2016,2072
2054,2038,2042,2100,2028,2044,2041,2079
2055,2037,2026,2079,2017,2058,2033,2092
2056,2038,2014,2057,1997,2056,2037,2090
2045,2021,1976,2029,1959,2053,2034,2090
2038,2012,1950,1989,1941,2045,2024,2088
2032,2010,1925,1943,1931,2026,2024,2076
2027,2000,1916,1909,1905,1977,2020,2077
2028,2007,1938,1930,1960,1971,2037,2089
2044,2024,1984,1972,2041,2031,2039,2093
2054,2021,2005,1987,2064,2062,2036,2077
2037,2018,2016,1996,2074,2065,2037,2066
2039,2028,2039,1995,2056,2036,2031,2060
2041,2047,2086,2021,2064,1996,2039,2053
2042,2060,2121,2047,2094,2016,2045,2045
2047,2074,2128,2076,2154,2059,2058,2039
2057,2081,2125,2089,2197,2091,2048,2025
2058,2077,2112,2086,2220,2105,2070,2015
2053,2079,2099,2080,2181,2098,2067,2003
2049,2063,2086,2038,2011,2055,2047,1983
2035,2052,2096,2031,1956,2037,2042,1982
2050,2064,2097,2038,2001,2051,2057,2000
2055,2063,2088,2036,2029,2051,2053,2006
2063,2072,2075,2036,2033,2048,2050,2010
2056,2064,2071,2031,2034,2047,2057,2018
2056,2060,2057,2019,2016,2038,2046,2025
2051,2053,2061,2028,2014,2036,2062,2040
2054,2059,2066,2039,2042,2056,2058,2056
2057,2055,2069,2045,2072,2076,2076,2068
2056,2058,2065,2049,2071,2095,2070,2082
2053,2053,2063,2043,2061,2097,2056,2085
2051,2052,2058,2031,2022,2087,2057,2089
2051,2054,2069,2031,2016,2061,2065,2105
2063,2061,2074,2034,2039,2027,2058,2120
2064,2053,2056,2031,2044,2020,2044,2116
2055,2042,2041,2016,2015,2001,2032,2106
2040,2028,2037,2010,2008,1999,2036,2105
2044,2043,2043,2038,2060,2024,2050,2112
2053,2053,2053,2059,2097,2038,2055,2109
2046,2043,2043,2053,2096,2053,2046,2107
2044,2038,2038,2051,2055,2048,2045,2101
2041,2032,2041,2047,2013,2038,2046,2101
2050,2038,2048,2047,1980,2037,2048,2090
2054,2048,2058,2037,1965,2022,2042,2086
2057,2049,2059,2035,1993,2001,2040,2072
2056,2050,2062,2050,2035,2007,2051,2069
2064,2065,2065,2065,2047,2024,2050,2049
2060,2061,2069,2066,2055,2041,2051,2027
2058,2057,2062,2059,2054,2051,2043,2015
2050,2047,2056,2058,2052,2056,2053,1999
2048,2039,2041,2057,2058,2046,2035,1983
2034,2027,2035,2051,2031,2030,2040,1976
2038,2035,2049,2050,2030,2029,2036,1977
2053,2057,2064,2048,2056,2035,2039,1981
2058,2067,2068,2056,2094,2039,2044,1991
2064,2073,2080,2060,2118,2042,2046,2001
2052,2062,2069,2072,2133,2049,2038,2012
2053,2045,2044,2058,2133,2050,2049,2017
2050,2043,2037,2058,2168,2058,2036,2032
2042,2044,2043,2069,2168,2061,2031,2043
2035,2051,2056,2075,2117,2063,2047,2062
2046,2061,2071,2069,1982,2050,2054,2074
2064,2062,2076,2054,1902,2047,2036,2082
2069,2063,2079,2047,1913,2039,2055,2094
2068,2071,2080,2049,1981,2040,2043,2101
2065,2066,2069,2038,2005,2034,2033,2106
2061,2060,2060,2035,1970,2033,2015,2114
2049,2052,2057,2032,1983,2032,2009,2108
2045,2048,2077,2034,1997,2043,2037,2121
2052,2067,2089,2041,2024,2052,2050,2124
2055,2062,2086,2040,2045,2065,2047,2115
2053,2056,2072,2040,2053,2071,2063,2110
2055,2056,2067,2039,2038,2071,2065,2100
2049,2051,2052,2024,2005,2065,2046,2098
2051,2047,2055,2014,1929,2005,2037,2091
2056,2052,2060,2012,1921,1994,2040,2087
2059,2059,2062,2021,1956,2016,2042,2079
2063,2053,2056,2027,1974,2059,2027,2059
2049,2034,2044,2024,1969,2093,2036,2035
2037,2032,2034,2015,1952,2094,2049,2020
2034,2031,2037,2003,1939,2074,2050,2001
2041,2035,2034,2004,1939,2019,2040,1999
2049,2044,2040,2024,1999,1981,2047,1998
2034,2037,2037,2032,2063,2008,2036,1970
2039,2029,2036,2057,2157,2063,2042,1978
2056,2053,2059,2102,2248,2100,2062,1986
2059,2061,2067,2095,2194,2083,2046,1996
2057,2054,2062,2071,2139,2067,2047,2001
2060,2055,2060,2070,2118,2073,2058,2007
2063,2057,2066,2073,2109,2080,2061,2022
2056,2062,2060,2060,2079,2083,2066,2031
2057,2059,2059,2052,2051,2066,2056,2044
2053,2052,2045,2047,2026,2056,2058,2058
2050,2043,2042,2030,1952,2033,2047,2063
2049,2040,2035,2014,1922,2026,2038,2068
2052,2036,2034,2015,1934,2032,2046,2075
2054,2048,2038,2035,1999,2047,2047,2089
2062,2050,2046,2057,2073,2041,2046,2093
2058,2051,2039,2069,2099,2034,2053,2102
2059,2047,2035,2063,2061,2027,2033,2107
2054,2040,2037,2051,2040,2025,2037,2107
2061,2045,2036,2047,2013,2029,2031,2102
2059,2043,2032,2036,1968,2022,2028,2100
2052,2044,2030,2025,2011,2025,2017,2090
2042,2034,2032,2030,2064,2040,2029,2087
2044,2033,2030,2039,2079,2050,2035,2083
2047,2041,2034,2052,2068,2064,2027,2079
2048,2044,2034,2052,2044,2057,2046,2079
2048,2053,2043,2055,2006,2051,2048,2073
2055,2053,2047,2049,1994,2038,2042,2060
2053,2049,2045,2059,2000,2030,2052,2045
2051,2046,2040,2047,1991,2021,2048,2032
2055,2052,2041,2039,2001,2028,2050,2018
2059,2050,2038,2032,2030,2029,2056,2000
2053,2045,2026,2023,2071,2027,2046,1987
2048,2040,2030,2041,2094,2050,2029,1992
2055,2043,2036,2062,2106,2066,2051,1990
2059,2060,2050,2068,2140,2070,2064,2002
2057,2059,2041,2064,2156,2068,2058,1995
2046,2046,2029,2057,2143,2049,2035,1986
2041,2045,2030,2057,2084,2033,2032,1995
2041,2044,2032,2051,2063,2036,2024,2004
2043,2043,2030,2053,2090,2050,2018,2027
2056,2040,2034,2066,2134,2072,2041,2042
2056,2046,2033,2069,2126,2076,2033,2053
2065,2049,2039,2061,2097,2050,2053,2061
2062,2052,2048,2054,2076,2043,2054,2071
2062,2048,2048,2045,2034,2042,2032,2076
2060,2043,2039,2032,2007,2043,2042,2084
2056,2047,2044,2023,1971,2036,2066,2089
2059,2047,2040,1989,1856,2012,2047,2089
2058,2039,2034,1988,1862,2025,2047,2096
2052,2044,2035,2012,1948,2054,2059,2102
2049,2044,2038,2028,1982,2071,2058,2095
2042,2031,2031,2026,2003,2070,2053,2085
2044,2031,2032,2028,2018,2060,2060,2083
2044,2034,2032,2039,2056,2050,2031,2082
2037,2035,2027,2050,2081,2007,2028,2083
2038,2030,2026,2052,2120,1993,2022,2077
2039,2038,2037,2060,2111,2012,2022,2073
2048,2040,2050,2068,2110,2019,2041,2066
2039,2052,2087,2097,2108,2007,2054,2050
2035,2037,2098,2103,2077,2007,2054,2029
2035,2031,2100,2107,2062,1996,2045,2004
2028,2031,2097,2097,2022,1997,2034,1993
2016,2029,2092,2100,2041,2018,2046,1985
2026,2036,2084,2100,2068,2033,2028,1985
2038,2033,2059,2080,2058,2038,2031,1995
2038,2032,2037,2068,2029,2054,2052,1994
2047,2047,2026,2078,2035,2061,2042,2002
2044,2041,2020,2072,2033,2050,2041,1994
2038,2030,2020,2064,2023,2040,2023,1996
2039,2039,2028,2057,2031,2049,2023,2004
2040,2042,2025,2062,2047,2066,2049,2020
2052,2049,2036,2068,2060,2064,2050,2035
2043,2048,2036,2048,2060,2044,2042,2037
2041,2045,2022,2031,2053,2044,2047,2056
2048,2042,2018,2027,2059,2047,2054,2067
2056,2043,2012,2025,2066,2044,2051,2081
2057,2046,2018,2020,2064,2050,2051,2085
2048,2040,2029,2028,2060,2055,2042,2084
2044,2036,2043,2037,2053,2066,2050,2085
2046,2031,2033,2033,2034,2074,2054,2093
2034,2021,2037,2026,1988,2074,2047,2093
2035,2019,2034,2013,1983,2093,2053,2090
2033,2022,2033,2007,1985,2106,2016,2090
2038,2040,2040,2005,1983,2110,2042,2095
2052,2050,2050,2009,1983,2103,2037,2092
2050,2044,2035,2005,1989,2046,2038,2100
2043,2038,2037,2013,2018,1995,2042,2113
2062,2045,2044,2023,2062,1989,2045,2098
2066,2045,2049,2038,2090,2009,2039,2087
2062,2044,2040,2033,2096,2012,2044,2075
2054,2040,2038,2033,2092,2013,2039,2064
2047,2047,2040,2036,2110,2013,2068,2055
2051,2052,2038,2040,2126,2022,2071,2034
2054,2050,2039,2038,2124,2028,2063,2026
2058,2051,2031,2034,2126,2039,2060,2012
2064,2046,2028,2024,2126,2042,2055,2007
2062,2040,2022,2018,2109,2032,2047,1991
2047,2025,2009,2013,2093,2031,2043,1969
2037,2018,2003,2015,2067,2034,2044,1976
2048,2029,2012,2025,2026,2037,2051,1985
2051,2029,2020,2019,1911,2029,2047,1990
2042,2025,2022,2028,1924,2031,2052,1998
2034,2026,2029,2047,2005,2050,2050,2010
2044,2034,2034,2051,2036,2057,2050,2026
2048,2036,2041,2045,2033,2049,2046,2038
2052,2035,2039,2047,2043,2041,2043,2047
2055,2037,2038,2048,2073,2041,2049,2061
2051,2037,2047,2059,2069,2036,2061,2066
2059,2041,2057,2063,2024,2015,2055,2073
2066,2048,2058,2064,1988,2003,2054,2084
2064,2049,2065,2076,1994,1996,2072,2086
2065,2050,2062,2073,2026,2002,2031,2091
2054,2045,2057,2057,2019,1996,2029,2100
2048,2037,2041,2041,2009,1989,2041,2107
2047,2045,2054,2047,2013,1998,2043,2116
2057,2058,2060,2039,2020,2004,2047,2107
2060,2046,2052,2038,2035,2026,2025,2108
2052,2041,2053,2041,2051,2056,2024,2100
2045,2042,2061,2055,2045,2075,2022,2099
2054,2039,2065,2063,2063,2081,2045,2094
2052,2047,2080,2075,2069,2075,2053,2080
2050,2057,2089,2070,2043,2071,2044,2073
2051,2056,2087,2074,2028,2069,2051,2070
2051,2055,2072,2073,2046,2056,2034,2058
2057,2056,2073,2067,2060,2054,2024,2043
2063,2049,2064,2063,2039,2011,2019,2021
2064,2046,2051,2043,2021,1998,2047,2010
2051,2045,2038,2047,2067,2046,2053,2003
2051,2037,2033,2049,2094,2075,2060,2000
2049,2025,2022,2035,2090,2089,2056,1989
2051,2026,2021,2037,2108,2096,2053,1982
2058,2051,2053,2058,2118,2109,2067,1995
2060,2068,2060,2044,2058,2104,2058,1993
2061,2057,2046,2029,1985,2092,2052,1997
2061,2055,2056,2031,1948,2070,2044,2005
2061,2056,2047,2028,1946,2060,2036,2006
2052,2045,2040,2018,1973,2031,2040,2021
2054,2046,2035,2028,2005,1991,2036,2031
2057,2040,2035,2024,2043,1982,2037,2046
2049,2038,2034,2038,2073,2013,2039,2056
2057,2037,2027,2045,2115,2047,2035,2064
2048,2030,2029,2044,2116,2054,2041,2071
2043,2029,2025,2043,2100,2062,2056,2084
2045,2031,2019,2041,2074,2057,2038,2091
2046,2026,2015,2038,2052,2052,2032,2092
2044,2020,2009,2038,2036,2040,2020,2086
2024,2004,2000,2029,2012,2039,2024,2084
2030,2007,2000,2039,2003,2051,2043,2096
2044,2015,2017,2050,1998,2056,2046,2090
2043,2018,2018,2050,1996,2058,2026,2088
2040,2018,2019,2044,1988,2055,2030,2082
2042,2021,2032,2048,1984,2054,2025,2080
2041,2022,2039,2049,1995,2045,2047,2081
2043,2037,2046,2065,2037,2058,2066,2075
2051,2038,2039,2077,2092,2064,2051,2067
2045,2032,2027,2069,2133,2069,2053,2051
2043,2027,2016,2058,2164,2056,2055,2043
2047,2023,2012,2044,2130,2045,2057,2028
2053,2033,2022,2056,2142,2065,2059,2016
2054,2042,2034,2073,2173,2073,2057,2009
2057,2054,2042,2073,2173,2069,2061,2000
2056,2063,2046,2067,2165,2045,2041,1986
2046,2044,2025,2056,2138,2041,2020,1981
2046,2044,2026,2050,2111,2043,2040,1978
2056,2054,2033,2046,2090,2033,2048,1993
2057,2053,2041,2027,2044,2004,2034,1988
2054,2048,2033,2004,1952,1990,2034,1998
2054,2042,2029,2005,1925,1985,2047,2005
2049,2041,2028,2003,1923,1985,2048,2024
2054,2043,2033,2016,1929,1990,2043,2044
2060,2047,2053,2026,1933,2003,2042,2060
2063,2046,2070,2036,1959,2017,2047,2064
2056,2052,2093,2043,1999,2042,2049,2075
2064,2052,2110,2061,2059,2075,2063,2077
2058,2055,2111,2063,2092,2089,2056,2086
2061,2055,2110,2061,2091,2081,2065,2097
2057,2051,2091,2058,2101,2080,2060,2101
2053,2040,2071,2055,2097,2071,2049,2108
2048,2030,2052,2044,2091,2063,2038,2111
2044,2024,2040,2042,2089,2051,2057,2120
2045,2031,2050,2052,2109,2063,2059,2118
2047,2026,2043,2053,2116,2064,2048,2115
2048,2027,2039,2052,2100,2068,2047,2114
2053,2027,2044,2053,2080,2070,2052,2114
2049,2031,2049,2052,2051,2062,2057,2105
2048,2037,2038,2040,2019,2061,2042,2103
2044,2036,2047,2037,2024,2060,2053,2089
2044,2035,2048,2050,2053,2067,2047,2084
2047,2035,2055,2049,2061,2069,2053,2074
2052,2039,2056,2047,2061,2071,2059,2064
2054,2038,2062,2044,2059,2067,2054,2047
2052,2033,2062,2044,2057,2063,2060,2032
2049,2039,2064,2040,2064,2060,2044,2012
2044,2039,2059,2060,2088,2068,2044,2012
2048,2037,2061,2067,2093,2057,2046,1998
2037,2022,2057,2061,2087,2057,2040,1990
2034,2021,2068,2068,2080,2052,2042,1995
2048,2040,2078,2072,2068,2054,2044,2006
2045,2041,2080,2070,2069,2058,2050,2012
2048,2046,2084,2080,2085,2059,2039,2021
2050,2044,2095,2096,2104,2056,2064,2032
2054,2049,2111,2100,2107,2049,2054,2039
2058,2052,2119,2098,2088,2031,2065,2058
2058,2052,2107,2101,2084,2026,2057,2068
2055,2049,2092,2097,2082,2025,2054,2068
2052,2041,2081,2095,2099,2039,2034,2069
2043,2041,2076,2094,2110,2049,2029,2076
2040,2036,2075,2094,2110,2056,2034,2093
2048,2041,2069,2087,2053,2048,2040,2103
2058,2042,2063,2056,1951,2048,2047,2105
2043,2042,2049,2048,1968,2056,2045,2104
2049,2037,2043,2031,2000,2047,2039,2104
2048,2030,2033,2021,2024,2032,2027,2107
2042,2033,2028,2018,2038,2033,2022,2109
2047,2032,2025,2005,2048,2028,2022,2108
2049,2034,2028,2012,2066,2026,2030,2110
2050,2038,2035,2016,2073,2031,2039,2112
2057,2039,2032,2020,2088,2043,2033,2113
2054,2039,2041,2031,2097,2063,2037,2100
2056,2040,2046,2046,2093,2073,2058,2098
2061,2041,2054,2058,2088,2080,2062,2089
2053,2040,2053,2057,2076,2079,2046,2066
2055,2041,2062,2057,2061,2079,2052,2054
2055,2049,2065,2058,2047,2074,2056,2030
2057,2052,2070,2052,2035,2077,2042,2023
2060,2054,2072,2053,2041,2069,2049,2006
2057,2049,2064,2043,2023,2053,2046,1992
2048,2038,2052,2036,2033,2038,2011,1976
2030,2022,2033,2026,2033,2045,2019,1974
2027,2019,2038,2032,2039,2046,2048,1978
2037,2029,2053,2043,2049,2053,2047,1988
2045,2026,2050,2047,2061,2059,2054,1995
2051,2022,2045,2061,2084,2060,2058,1997
2044,2029,2042,2071,2108,2072,2064,2012
2049,2021,2037,2070,2100,2065,2038,2018
2048,2027,2029,2072,2087,2059,2036,2028
2044,2018,2029,2067,2079,2054,2049,2031
2043,2016,2027,2072,2080,2053,2044,2044
2045,2017,2022,2058,2046,2053,2066,2046
2042,2017,2019,2052,2013,2053,2044,2061
2044,2017,2015,2046,2054,2056,2040,2072
2045,2015,2009,2043,2117,2053,2025,2076
2036,2007,2009,2051,2128,2044,2027,2082
2036,2006,2005,2049,2110,2045,2049,2078
2034,2003,2000,2032,2099,2025,2038,2080
2028,1998,1990,2021,2078,2021,2027,2082
2032,2003,2009,2030,2091,2043,2020,2097
2054,2034,2031,2051,2106,2052,2045,2100
2052,2031,2034,2055,2105,2077,2050,2101
2055,2028,2034,2054,2006,2095,2076,2098
2050,2038,2052,2047,1948,2101,2067,2097
2053,2036,2062,2038,1979,2082,2059,2105
2063,2051,2077,2048,2003,2049,2057,2100
2069,2057,2097,2053,2001,2041,2039,2081
2064,2055,2092,2038,1964,2062,2056,2069
2056,2049,2083,2029,1947,2054,2048,2049
2056,2049,2070,2019,1975,2051,2039,2031
2049,2036,2061,2025,2000,2035,2046,2020
2056,2048,2083,2040,2021,2006,2047,2008
2061,2056,2085,2047,2044,2002,2056,2015
2062,2052,2084,2061,2069,2024,2065,1999
2057,2046,2069,2063,2095,2035,2057,1982
2054,2032,2060,2053,2080,2031,2047,1982
2053,2042,2056,2041,2021,2023,2039,1984
2051,2037,2056,2033,2042,2013,2041,1983
2046,2039,2054,2043,2098,2025,2048,1990
2057,2038,2051,2058,2145,2041,2042,1998
2050,2037,2055,2068,2150,2051,2044,2008
2048,2037,2051,2078,2155,2048,2032,2016
2044,2039,2056,2083,2115,2024,2037,2037
2052,2036,2057,2060,2044,2010,2046,2050
2057,2034,2050,2052,2026,2023,2058,2055
2047,2028,2049,2046,1990,2035,2057,2063
2048,2030,2055,2041,1972,2044,2047,2065
2049,2033,2045,2045,2019,2050,2054,2077
2050,2030,2053,2052,2060,2049,2061,2086
2058,2038,2057,2059,2071,2045,2050,2098
2060,2040,2055,2060,2057,2040,2058,2098
2056,2029,2042,2056,2050,2036,2050,2095
2044,2029,2042,2053,2056,2035,2061,2103
2045,2037,2048,2063,2066,2041,2059,2094
2051,2036,2041,2057,2075,2032,2044,2098
2050,2026,2025,2054,2085,2036,2035,2097
2050,2032,2026,2068,2115,2058,2065,2097
2045,2026,2022,2053,2111,2057,2065,2086
2039,2028,2024,2048,2089,2055,2071,2080
2050,2031,2023,2042,2068,2052,2062,2068
2050,2029,2030,2022,2053,2045,2060,2054
2050,2029,2021,2010,2031,2046,2056,2042
2041,2028,2033,2012,2040,2049,2038,2030
2039,2030,2046,2027,2053,2052,2066,2014
2040,2035,2046,2036,2061,2056,2051,2008
2035,2037,2050,2043,2056,2058,2048,1991
2041,2039,2044,2043,2060,2059,2053,1980
2042,2040,2045,2039,2063,2065,2045,1972
2030,2034,2038,2031,2064,2080,2056,1970
2033,2037,2041,2039,2065,2095,2046,1972
2044,2041,2042,2037,2062,2094,2052,1979
2046,2039,2048,2036,2066,2080,2058,1980
2042,2034,2048,2036,2066,2040,2041,1994
2049,2038,2056,2042,2085,2031,2042,2010
2047,2040,2059,2047,2084,2062,2051,2019
2045,2038,2048,2049,2070,2086,2051,2035
2052,2036,2044,2048,2065,2088,2050,2044
2056,2032,2047,2049,2044,2080,2047,2051
2054,2034,2048,2049,2026,2078,2049,2055
2051,2038,2056,2049,2018,2080,2056,2068
2048,2037,2065,2053,2020,2072,2039,2083
2049,2037,2066,2060,2019,2076,2046,2090
2052,2038,2071,2069,2032,2072,2041,2095
2053,2044,2075,2073,2054,2066,2050,2096
2042,2034,2064,2065,2042,2043,2046,2101
2041,2039,2054,2062,2062,2023,2046,2102
2045,2040,2051,2070,2094,2024,2060,2107
2047,2039,2048,2067,2067,2013,2056,2102
2055,2038,2040,2052,2073,2027,2045,2090
2054,2033,2034,2047,2108,2041,2049,2090
2051,2035,2029,2038,2107,2050,2047,2080
2043,2027,2019,2023,2062,2038,2042,2071
2042,2023,2022,2010,2033,2024,2032,2068
2050,2032,2028,2003,1968,2024,2045,2063
2052,2039,2038,2014,1983,2040,2051,2055
2065,2045,2040,2027,2023,2058,2056,2050
2061,2048,2045,2039,2072,2068,2063,2032
2062,2049,2055,2057,2097,2058,2038,2024
2070,2049,2055,2061,2101,2048,2061,2011
2072,2057,2065,2064,2080,2048,2061,2000
2070,2061,2064,2057,2068,2050,2048,1991
2056,2054,2062,2050,2039,2045,2044,1977
2060,2055,2069,2048,2026,2052,2056,1977
2060,2058,2074,2039,2029,2042,2039,1973
2056,2049,2069,2039,2039,2044,2028,1975
2052,2044,2066,2046,2044,2042,2029,1983
2046,2049,2063,2047,2046,2045,2046,1994
2054,2059,2078,2045,2045,2045,2036,2010
2063,2061,2084,2047,2041,2038,2042,2027
2060,2064,2080,2053,2033,2032,2032,2036
2067,2060,2072,2056,2036,2026,2037,2046
2063,2057,2070,2053,2035,2032,2021,2062
2059,2053,2056,2051,2045,2040,2048,2065
2055,2045,2053,2047,2064,2050,2050,2068
2052,2041,2048,2052,2091,2054,2044,2067
2051,2038,2042,2046,2088,2056,2049,2071
2049,2040,2047,2054,2095,2055,2044,2075
2046,2040,2048,2060,2094,2051,2044,2078
2040,2036,2041,2052,2090,2047,2037,2078
2036,2026,2044,2060,2095,2057,2057,2087
2049,2037,2048,2056,2084,2058,2049,2087
2046,2031,2045,2048,2050,2072,2038,2083
2044,2038,2061,2037,1928,2062,2042,2087
2043,2036,2069,2042,1921,2064,2043,2089
2046,2037,2078,2062,1972,2071,2025,2091
2053,2039,2073,2070,2011,2040,2037,2093
2049,2038,2061,2072,2032,2022,2036,2082
2048,2037,2053,2072,2058,2041,2035,2069
2049,2041,2042,2069,2062,2060,2051,2050
2045,2041,2045,2075,2069,2062,2038,2031
2048,2038,2050,2085,2062,2055,2059,2011
2040,2035,2047,2080,2054,2043,2039,1997
2044,2037,2048,2076,2054,2045,2048,1993
2042,2038,2046,2073,2046,2045,2044,1982
2042,2031,2041,2059,2029,2037,2051,1974
2041,2023,2032,2053,2019,2037,2033,1964
2040,2025,2035,2046,2021,2039,2042,1972
2046,2036,2035,2038,2022,2036,2045,1978
2042,2035,2030,2033,2022,2042,2041,1979
2047,2039,2027,2030,2023,2045,2025,1987
2040,2034,2033,2031,2031,2046,2020,1998
2042,2030,2037,2049,2045,2044,2038,2015
2039,2027,2050,2052,2045,2043,2039,2032
2048,2029,2059,2052,2032,2036,2061,2045
2054,2037,2064,2047,2028,2034,2032,2053
2061,2036,2063,2042,2038,2036,2032,2060
2053,2026,2050,2028,2036,2038,2030,2072
2051,2031,2050,2031,2045,2058,2032,2084
2060,2039,2056,2050,2082,2069,2054,2097
2054,2035,2038,2049,2071,2066,2052,2098
2051,2033,2031,2043,2071,2061,2063,2097
2052,2025,2019,2036,2061,2055,2052,2095
2049,2029,2011,2034,2056,2048,2028,2111
2063,2047,2029,2047,2092,2061,2061,2115
2071,2055,2030,2052,2119,2064,2060,2106
2072,2047,2032,2047,2151,2047,2057,2106
2071,2049,2024,2046,2171,2051,2047,2098
2064,2038,2008,2042,2190,2053,2064,2093
2056,2027,1988,2039,2208,2066,2059,2080
2057,2017,1978,2038,2186,2063,2064,2075
2054,2021,1987,2037,2151,2056,2062,2070
2058,2026,1999,2045,2096,2048,2073,2065
2059,2047,2024,2050,2000,2037,2071,2054
2059,2056,2039,2041,1822,2018,2062,2039
2056,2060,2044,2041,1845,2015,2050,2020
2054,2059,2049,2044,1915,2022,2040,2005
2050,2053,2047,2046,1941,2021,2037,1993
2047,2042,2035,2036,1957,2025,2044,1985
2047,2037,2041,2022,1952,2040,2038,1972
2042,2041,2049,2025,1981,2062,2057,1977
2054,2053,2070,2040,2040,2067,2056,1982
2053,2058,2075,2038,2029,2065,2052,1993
2054,2055,2074,2045,2031,2060,2058,2002
2055,2050,2078,2045,2030,2061,2054,2007
2053,2047,2067,2043,2012,2062,2051,2011
2052,2044,2064,2033,1979,2062,2050,2025
2053,2047,2062,2030,1959,2060,2053,2038
2060,2051,2063,2039,1959,2054,2042,2047
2054,2049,2062,2044,1966,2025,2043,2057
2056,2051,2065,2056,2009,2000,2061,2079
2063,2059,2068,2070,2080,2005,2064,2090
2070,2058,2072,2078,2098,2018,2063,2099
2073,2061,2077,2076,2079,2033,2062,2109
2071,2064,2078,2070,2048,2038,2064,2108
2070,2057,2074,2070,2041,2031,2046,2099
2059,2048,2077,2069,2056,2031,2047,2099
2059,2044,2080,2076,2080,2053,2062,2111
2066,2052,2070,2070,2107,2073,2055,2110
2061,2049,2069,2075,2109,2110,2059,2109
2062,2046,2061,2064,2106,2096,2056,2108
2068,2047,2049,2068,2100,2083,2044,2101
2054,2047,2043,2061,2113,2075,2052,2095
2056,2045,2038,2060,2130,2071,2052,2083
2055,2037,2034,2057,2124,2070,2043,2066
2049,2039,2040,2049,2051,2071,2074,2054
2036,2045,2038,2044,2045,2077,2064,2045
2043,2041,2035,2054,2104,2083,2069,2035
2050,2048,2041,2068,2127,2080,2055,2018
2054,2040,2037,2077,2123,2071,2056,2005
2053,2042,2035,2083,2110,2072,2062,1992
2043,2035,2018,2084,2093,2062,2061,1980
2041,2028,2011,2065,2054,2056,2049,1970
2042,2020,2018,2069,2052,2056,2053,1977
2047,2045,2040,2084,2030,2051,2037,1981
2052,2042,2046,2076,2001,2019,2027,1983
2050,2039,2039,2066,1936,1992,2015,1988
2050,2034,2031,2059,1914,1983,2014,1995
2046,2038,2036,2061,1932,1991,2030,1996
2049,2041,2047,2080,1983,2005,2027,2024
2051,2050,2058,2100,2049,2012,2019,2044
2054,2048,2050,2102,2068,2000,2032,2054
2046,2043,2040,2084,2074,2011,2029,2060
2051,2038,2047,2065,2058,2032,2047,2056
2048,2043,2050,2053,2004,2024,2037,2061
2041,2048,2055,2038,1972,2023,2038,2075
2046,2040,2049,2026,2042,2038,2053,2071
2046,2041,2044,2035,2100,2049,2055,2082
2046,2042,2064,2047,2087,2062,2049,2090
2046,2038,2055,2049,2068,2072,2047,2092
2039,2032,2040,2032,2031,2076,2056,2100
2045,2043,2046,2034,2022,2078,2059,2096
2053,2046,2063,2036,2019,2068,2036,2098
2051,2058,2061,2030,2002,2049,2035,2097
2049,2062,2057,2010,1945,2037,2053,2094
2050,2054,2050,2024,2009,2072,2059,2084
2043,2042,2035,2027,2037,2090,2068,2070
2034,2040,2026,2025,1998,2077,2050,2059
2038,2039,2027,2028,1965,2067,2048,2054
2041,2041,2028,2035,1958,2062,2061,2039
2039,2037,2030,2045,1983,2039,2059,2036
2043,2048,2033,2055,2068,2017,2078,2030
2054,2053,2039,2066,2139,2032,2080,2016
2044,2044,2037,2064,2168,2055,2071,2002
2043,2042,2035,2057,2157,2065,2079,1995
2037,2046,2036,2051,2138,2052,2055,1980
2032,2042,2033,2051,2101,2049,2058,1973
2028,2046,2037,2047,2066,2040,2044,1977
2039,2052,2039,2044,2033,2031,2050,1977
2039,2050,2035,2051,2050,2043,2047,1991
2045,2045,2040,2055,2066,2063,2046,2001
2051,2046,2038,2055,2079,2072,2050,2010
2050,2047,2035,2053,2075,2075,2054,2014
2045,2051,2044,2068,2082,2080,2056,2029
2047,2056,2049,2075,2086,2090,2060,2042
2046,2058,2062,2076,2092,2099,2065,2062
2051,2059,2064,2072,2088,2097,2042,2068
2053,2067,2065,2066,2070,2095,2060,2074
2061,2066,2053,2057,2053,2080,2061,2080
2059,2059,2049,2054,2056,2052,2059,2088
2051,2050,2041,2062,2065,2015,2048,2094
2047,2050,2045,2064,2056,2003,2049,2104
2052,2045,2041,2057,2031,1994,2038,2106
2054,2050,2038,2052,2018,1997,2037,2118
2062,2059,2044,2047,2019,2007,2039,2123
2062,2052,2033,2043,2027,2015,2044,2112
2056,2051,2031,2052,2045,2032,2042,2112
2061,2068,2041,2060,2064,2053,2044,2091
2045,2069,2040,2057,2065,2081,2047,2079
2040,2055,2033,2059,2072,2088,2058,2066
2036,2042,2033,2065,2059,2085,2066,2063
2041,2037,2029,2069,2049,2068,2051,2060
2037,2036,2029,2081,2054,2018,2053,2057
2042,2048,2035,2096,2099,2008,2034,2044
2041,2044,2033,2100,2120,2030,2055,2029
2041,2033,2019,2097,2118,2045,2061,2012
2038,2032,2005,2099,2113,2053,2057,2006
2036,2029,2022,2097,2099,2047,2051,1989
2037,2023,2023,2101,2093,2042,2058,1977
2025,2014,2014,2092,2082,2025,2045,1976
2032,2012,2011,2076,2070,2029,2046,1971
2046,2029,2015,2076,2064,2034,2049,1982
2048,2044,2020,2074,2028,2045,2058,1987
2049,2049,2022,2050,1927,2034,2053,1990
2052,2049,2012,2037,1956,2039,2060,1993
2047,2047,2007,2030,2011,2045,2051,2004
2046,2041,2003,2011,2025,2042,2056,2018
2042,2038,2013,2002,2018,2042,2034,2027
2049,2047,2038,2005,2040,2040,2045,2037
2054,2061,2078,2011,2070,2044,2055,2057
2065,2077,2116,2034,2113,2052,2055,2062
2068,2085,2130,2042,2127,2050,2040,2072
2073,2097,2133,2041,2134,2050,2028,2070
2075,2094,2115,2046,2152,2057,2046,2081
2064,2086,2107,2054,2170,2067,2056,2100
2068,2091,2094,2060,2180,2065,2053,2102
2060,2073,2078,2058,2170,2056,2050,2098
2054,2069,2069,2048,2116,2032,2062,2100
2065,2079,2074,2050,2052,2015,2056,2097
2052,2071,2073,2040,1932,2003,2038,2081
2045,2066,2065,2027,1852,1998,2030,2086
2038,2064,2065,2027,1892,2008,2037,2073
2036,2055,2060,2029,1936,2016,2050,2074
2042,2059,2056,2029,1963,2032,2052,2072
2042,2058,2057,2034,1974,2051,2038,2064
2041,2056,2053,2022,1986,2093,2056,2055
2046,2062,2064,2041,2045,2118,2069,2057
2056,2070,2076,2067,2071,2106,2053,2047
2060,2070,2076,2069,2067,2075,2062,2032
2057,2068,2073,2063,2072,2086,2065,2015
2055,2067,2074,2063,2062,2091,2054,2000
2055,2065,2069,2057,2030,2070,2062,1985
2048,2057,2056,2049,2014,2060,2047,1972
2044,2050,2055,2040,2007,2048,2034,1960
2037,2049,2052,2043,2019,2041,2049,1967
2042,2056,2050,2049,2023,2023,2028,1983
2046,2065,2055,2046,2017,2006,2039,1994
2052,2061,2053,2056,2024,2000,2038,2004
2059,2062,2054,2057,2024,1992,2042,2013
2059,2062,2055,2055,2024,1989,2041,2028
2056,2056,2056,2049,2029,2003,2034,2039
2051,2060,2049,2054,2044,2008,2026,2049
2047,2058,2058,2063,2064,2017,2037,2048
2049,2055,2063,2070,2063,2031,2031,2056
2049,2055,2058,2062,2049,2039,2027,2063
2049,2043,2054,2056,2041,2039,2043,2073
2046,2049,2056,2062,2043,2050,2053,2079
2053,2049,2059,2065,2041,2047,2058,2083
2042,2038,2043,2055,2036,2036,2042,2083
2027,2029,2034,2051,2034,2026,2038,2082
2032,2028,2031,2052,2036,2028,2039,2091
2042,2043,2039,2058,2047,2034,2055,2096
2045,2043,2029,2063,2052,2030,2056,2095
2035,2043,2027,2064,2058,2031,2067,2097
2043,2052,2024,2065,2059,2027,2064,2099
2056,2056,2015,2053,2051,2027,2058,2102
2059,2042,1996,2026,2047,2022,2058,2088
2049,2039,1980,2019,2031,2028,2057,2076
2047,2042,1987,2016,2040,2036,2040,2075
2052,2051,1994,2015,2038,2034,2026,2048
2057,2051,1994,2015,2036,2030,2042,2039
2049,2046,1997,2010,2027,2024,2034,2022
2050,2047,1999,2018,2038,2021,2021,2000
2043,2039,2013,2035,2058,2024,2033,1996
2042,2047,2023,2048,2065,2031,2017,1991
2045,2055,2028,2054,2058,2023,2023,1984
2046,2050,2026,2052,2072,2023,2031,1978
2041,2052,2030,2064,2079,2033,2049,1982
2053,2064,2055,2081,2094,2034,2057,1983
2056,2061,2056,2080,2104,2021,2043,1992
2058,2056,2056,2066,2074,2032,2053,2002
2049,2054,2069,2067,2051,2034,2045,2002
2048,2051,2066,2057,1988,2013,2029,2006
2042,2051,2060,2039,1905,1995,2041,2023
2036,2050,2048,2046,1951,1981,2036,2033
2035,2046,2046,2054,2019,1987,2043,2041
2041,2037,2044,2036,2006,2022,2044,2048
2036,2040,2048,2031,1968,2084,2053,2057
2046,2051,2056,2043,1996,2115,2061,2067
2052,2052,2050,2054,2046,2126,2075,2080
2053,2053,2052,2065,2106,2113,2059,2098
2057,2053,2060,2078,2113,2055,2058,2110
2053,2045,2057,2071,2060,2019,2042,2116
2056,2047,2063,2069,2041,2008,2048,2122
2064,2060,2080,2072,2040,2023,2038,2113
2058,2059,2070,2052,2040,2024,2040,2102
2048,2055,2061,2052,2052,2041,2037,2107
2050,2056,2061,2063,2080,2063,2030,2103
2047,2051,2058,2072,2076,2062,2041,2101
2049,2050,2056,2066,2053,2060,2033,2096
2046,2047,2054,2061,2046,2058,2032,2087
2044,2046,2054,2059,2032,2064,2033,2076
2048,2043,2060,2054,2039,2067,2045,2058
2046,2043,2061,2060,2047,2072,2042,2051
2040,2030,2054,2054,2055,2082,2048,2028
2047,2036,2045,2056,2057,2102,2055,2023
2050,2039,2040,2060,2066,2102,2061,2008
2050,2039,2044,2077,2085,2102,2058,1998
2040,2036,2051,2092,2125,2109,2058,1989
2043,2028,2043,2101,2151,2094,2030,1987
2040,2028,2047,2109,2137,2084,2048,1981
2049,2041,2054,2098,2130,2064,2056,1981
2044,2041,2036,2074,2114,2022,2029,1977
2035,2030,2019,2064,2077,1994,2026,1976
2034,2024,2011,2060,2040,1997,2039,1984
2030,2026,2006,2065,2015,2017,2033,1996
2036,2037,2007,2074,2013,2017,2038,2016
2026,2027,1999,2081,2049,2029,2032,2032
2037,2033,2010,2086,2090,2042,2029,2044
2040,2042,2014,2078,2110,2044,2013,2056
2036,2031,1995,2047,2079,2033,2021,2054
2030,2027,1997,2012,2042,2038,2019,2058
2029,2029,2018,2000,2038,2060,2025,2076
2038,2053,2060,2008,2030,2056,2034,2081
2055,2064,2086,2007,2046,2030,2027,2091
2058,2069,2105,2021,2075,2004,2030,2100
2050,2067,2116,2042,2049,1974,2047,2113
2068,2073,2132,2066,2012,1980,2065,2129
2078,2076,2128,2072,2029,2020,2071,2119
2073,2067,2107,2056,2020,2041,2054,2111
2062,2066,2092,2044,2028,2054,2049,2106
2055,2062,2078,2027,1994,2062,2066,2106
2050,2060,2077,2032,2015,2056,2068,2105
2058,2065,2067,2033,2046,2055,2064,2083
2049,2047,2060,2033,2072,2056,2042,2069
2033,2044,2052,2041,2098,2053,2052,2052
2034,2039,2050,2053,2116,2044,2046,2042
2019,2038,2055,2038,2099,2028,2044,2034
2037,2037,2054,2032,2088,2010,2046,2022
2042,2038,2055,2037,2092,2019,2037,2019
2040,2032,2049,2033,2105,2033,2040,1992
2034,2028,2044,2041,2127,2054,2056,1984
2031,2035,2047,2049,2144,2065,2052,1975
2028,2020,2049,2047,2130,2064,2061,1970
2022,2027,2057,2065,2096,2064,2058,1971
2027,2030,2070,2064,1978,2054,2060,1986
2026,2034,2075,2060,1935,2041,2059,1991
2032,2039,2073,2062,1969,2040,2054,1999
2040,2035,2078,2066,1996,2043,2049,2005
2045,2042,2071,2066,2012,2041,2041,2025
2046,2037,2062,2067,2024,2045,2033,2040
2043,2032,2052,2060,2034,2047,2031,2050
2052,2035,2052,2059,2038,2047,2037,2061
2055,2032,2048,2060,2040,2046,2046,2072
2051,2037,2052,2065,2040,2045,2050,2077
2053,2042,2055,2063,2054,2049,2052,2083
2054,2049,2054,2066,2054,2043,2055,2093
2056,2052,2049,2058,2041,2036,2047,2098
2057,2048,2045,2042,2039,2049,2033,2094
2054,2039,2027,2023,2028,2052,2037,2094
2047,2031,2009,2015,2015,2048,2042,2100
2040,2037,2004,2013,2018,2039,2043,2103
2039,2037,2002,2010,2018,2018,2041,2106
2041,2037,2007,2022,2035,1994,2039,2098
2046,2044,2024,2035,2053,1998,2046,2090
2045,2044,2045,2057,2056,2016,2050,2082
2040,2050,2058,2057,2029,2036,2053,2072
2042,2053,2066,2063,2003,2045,2052,2063
2040,2042,2056,2054,1986,2047,2048,2053
2039,2033,2046,2054,1984,2049,2047,2044
2038,2035,2052,2058,2000,2025,2065,2037
2046,2041,2055,2072,2050,2012,2070,2019
2047,2032,2045,2074,2103,2036,2057,2009
2043,2026,2030,2066,2123,2058,2064,1997
2035,2022,2023,2057,2116,2068,2068,1987
2045,2026,2016,2054,2083,2057,2053,1976
2047,2026,2018,2057,2055,2047,2042,1972
2048,2028,2016,2058,2044,2045,2050,1973
2049,2027,2010,2054,2038,2047,2045,1972
2044,2023,2008,2051,2036,2042,2052,1973
2049,2028,2006,2036,2033,2043,2038,1988
2052,2027,2005,2024,2027,2037,2040,1987
2048,2022,2010,2014,2018,2037,2035,2004
2045,2036,2033,2022,2022,2035,2038,2013
2049,2048,2046,2034,2039,2046,2059,2036
2050,2060,2058,2052,2069,2060,2057,2047
2057,2070,2063,2056,2084,2068,2057,2047
2049,2070,2062,2063,2075,2073,2057,2059
2049,2066,2067,2067,2082,2089,2046,2071
2046,2056,2081,2065,2083,2093,2067,2084
2050,2063,2096,2060,2078,2100,2058,2087
2054,2064,2102,2053,2068,2084,2060,2096
2047,2058,2091,2044,2051,2032,2056,2100
2041,2053,2088,2035,2053,2017,2047,2106
2045,2060,2085,2040,2061,2036,2050,2103
2050,2065,2080,2036,2055,2054,2045,2102
2041,2054,2073,2043,2052,2056,2048,2098
2040,2060,2063,2042,2042,2055,2036,2084
2042,2055,2072,2050,2049,2061,2042,2090
2056,2055,2069,2047,2055,2061,2054,2085
2063,2064,2075,2054,2051,2074,2073,2086
2066,2072,2079,2053,2053,2077,2060,2070
2054,2057,2065,2043,2045,2080,2059,2049
2050,2047,2060,2042,2042,2085,2054,2036
2042,2049,2056,2044,2053,2063,2056,2024
2046,2045,2056,2051,2067,2035,2062,2015
2046,2050,2059,2058,2079,2040,2068,2001
2044,2045,2062,2048,2061,2041,2062,1982
2044,2043,2055,2043,2027,2042,2062,1972
2037,2028,2040,2028,1993,2034,2034,1964
2037,2026,2038,2021,1983,2037,2026,1959
2040,2036,2034,2015,1978,2036,2048,1962
2046,2036,2041,2021,2001,2034,2049,1971
2045,2052,2052,2053,2047,2017,2038,1989
2058,2056,2057,2068,2087,2029,2058,2007
2061,2062,2063,2062,2098,2061,2058,2018
2059,2048,2053,2064,2102,2073,2050,2024
2058,2049,2035,2060,2123,2088,2043,2029
2047,2044,2025,2052,2127,2088,2055,2035
2047,2036,2020,2057,2142,2096,2068,2053
2052,2045,2031,2068,2141,2087,2065,2060
2058,2046,2024,2071,2109,2078,2060,2072
2058,2047,2028,2074,2111,2086,2071,2086
2059,2051,2025,2067,2113,2091,2059,2088
2060,2042,2004,2033,2012,2062,2050,2081
2045,2037,1993,2013,1942,2040,2036,2077
2038,2030,2001,2015,1973,2044,2041,2084
2036,2030,2002,2028,2042,2052,2042,2086
2044,2040,2004,2034,2073,2058,2051,2098
2052,2039,2020,2038,2018,2071,2062,2107
2059,2044,2031,2033,1959,2074,2069,2097
2047,2042,2046,2019,1903,2054,2064,2089
2046,2042,2052,2007,1877,2030,2058,2078
2048,2045,2052,2005,1870,2004,2048,2072
2045,2049,2055,2010,1900,1992,2065,2073
2051,2047,2061,2015,1948,1979,2060,2062
2054,2049,2056,2025,1978,1984,2055,2054
2054,2051,2056,2032,1978,1983,2055,2039
2044,2043,2063,2034,2001,1996,2048,2015
2043,2046,2074,2045,2076,2013,2038,2000
2040,2044,2075,2051,2111,2025,2039,1985
2043,2041,2067,2056,2146,2044,2049,1973
2036,2042,2067,2063,2166,2052,2044,1960
2033,2052,2073,2076,2156,2059,2042,1961
2041,2056,2082,2082,2139,2072,2052,1971
2054,2056,2075,2087,2172,2086,2058,1978
2050,2051,2070,2091,2203,2097,2059,1979
2044,2048,2059,2081,2208,2099,2052,1977
2039,2039,2051,2079,2199,2090,2060,1989
2038,2047,2047,2069,2179,2089,2041,2002
2043,2043,2042,2072,2174,2088,2046,2019
2034,2035,2031,2063,2161,2084,2056,2024
2026,2034,2039,2058,2107,2081,2044,2031
2031,2033,2042,2053,2066,2058,2051,2044
2031,2041,2063,2038,1975,2028,2053,2046
2033,2042,2065,2035,1899,2022,2033,2060
2040,2046,2061,2034,1901,2035,2054,2067
2040,2043,2057,2045,1964,2039,2048,2075
2037,2037,2048,2043,2037,2039,2038,2079
2034,2032,2047,2036,2058,2025,2028,2082
2031,2039,2063,2040,2032,2011,2036,2097
2050,2064,2086,2050,2024,2020,2047,2101
2057,2075,2093,2052,1993,2020,2056,2108
2065,2083,2082,2055,1998,2022,2045,2102
2058,2077,2063,2039,2021,2025,2039,2086
2050,2058,2049,2021,2036,2016,2041,2076
2042,2059,2046,2019,2051,2023,2036,2074
2044,2052,2036,2013,2042,2022,2022,2067
2039,2041,2018,1993,2026,2034,2033,2059
2036,2045,2010,1987,2025,2033,2043,2045
2047,2054,2019,2009,2061,2044,2063,2035
2047,2060,2030,2022,2047,2046,2066,2023
2054,2063,2036,2023,1998,2044,2058,2013
2051,2064,2032,2021,1986,2044,2064,2001
2048,2067,2043,2026,2008,2041,2067,2000
2051,2064,2044,2028,2003,2032,2062,1984
2045,2060,2048,2030,1993,2023,2056,1975
2046,2077,2058,2032,2017,2041,2065,1977
2050,2060,2046,2024,2033,2074,2045,1970
2035,2041,2023,1969,1844,2079,2032,1964
2022,2039,2024,1965,1866,2079,2039,1974
2029,2043,2038,2003,2041,2091,2029,1988
2026,2045,2051,2045,2161,2056,2043,2014
2051,2068,2072,2088,2215,2001,2060,2041
2059,2069,2069,2084,2160,2007,2071,2044
2052,2049,2043,2055,2103,2034,2062,2044
2045,2038,2035,2030,2000,2033,2055,2042
2039,2033,2030,2029,2004,2039,2053,2045
2039,2033,2032,2037,2097,2053,2051,2049
2039,2034,2035,2048,2148,2045,2051,2057
2029,2038,2036,2046,2130,2028,2038,2071
2036,2037,2044,2044,2101,2016,2042,2086
2036,2033,2037,2043,2078,2001,2033,2088
2037,2033,2033,2033,2058,2014,2044,2092
2039,2036,2032,2027,2046,2056,2031,2094
2051,2045,2043,2041,2045,2093,2044,2088
2048,2045,2043,2032,1991,2114,2051,2093
2055,2050,2047,2033,1994,2115,2052,2094
2048,2056,2050,2030,1961,2041,2040,2088
2049,2057,2051,2042,1993,1985,2039,2081
2051,2060,2050,2051,2083,2014,2052,2069
2055,2060,2056,2060,2110,2040,2038,2057
2045,2057,2053,2051,2101,2039,2043,2041
2044,2048,2047,2046,2071,2033,2044,2020
2040,2051,2048,2042,2057,2024,2049,1992
2041,2049,2043,2031,2042,2032,2039,1980
2036,2047,2043,2035,2049,2044,2033,1966
2035,2045,2050,2038,2047,2073,2044,1959
2034,2043,2042,2037,2048,2085,2039,1955
2029,2040,2044,2049,2049,2095,2036,1955
2038,2048,2049,2053,2044,2095,2030,1962
2042,2051,2049,2054,2057,2062,2040,1975
2045,2050,2053,2060,2074,2033,2050,1984
2046,2048,2054,2060,2074,2036,2048,1993
2050,2047,2053,2046,2051,2054,2049,1995
2046,2052,2048,2037,2020,2065,2039,2012
2044,2044,2038,2030,2003,2066,2037,2015
2049,2045,2041,2028,2000,2068,2036,2034
2047,2047,2034,2025,2010,2041,2038,2045
2050,2050,2035,2033,2044,2015,2039,2061
2054,2042,2039,2052,2084,2033,2040,2070
2044,2041,2038,2051,2084,2052,2047,2076
2041,2034,2036,2050,2080,2062,2047,2086
2040,2037,2039,2045,2070,2053,2024,2089
2047,2033,2030,2047,2062,2051,2023,2093
2045,2040,2037,2038,2056,2059,2031,2098
2046,2053,2043,2048,2049,2056,2042,2102
2051,2051,2046,2045,2048,2051,2051,2100
2040,2049,2049,2048,2038,2056,2051,2098
2042,2051,2041,2044,2036,2056,2044,2089
2043,2053,2039,2037,2041,2055,2045,2095
2051,2055,2040,2042,2042,2058,2058,2096
2052,2052,2052,2046,2032,2044,2056,2075
2053,2048,2042,2032,1984,2011,2044,2071
2047,2043,2039,2023,1971,1998,2047,2047
2050,2047,2036,2020,2003,2011,2039,2034
2048,2045,2034,2020,2007,2032,2040,2014
2046,2047,2036,2033,2067,2047,2052,1996
2048,2051,2054,2060,2100,2063,2033,1986
2046,2050,2053,2055,2101,2074,2028,1975
2039,2040,2042,2049,2110,2081,2022,1970
2044,2032,2044,2057,2115,2085,2054,1970
2041,2042,2046,2056,2095,2082,2032,1972
2035,2038,2050,2057,2079,2080,2040,1973
2044,2042,2069,2064,2074,2077,2048,1978
2042,2042,2074,2064,2070,2074,2044,1986
2044,2035,2073,2063,2071,2068,2043,1997
2041,2034,2064,2063,2075,2060,2032,2021
2045,2033,2053,2060,2072,2064,2048,2035
2054,2037,2054,2068,2077,2062,2050,2047
2063,2044,2057,2069,2079,2048,2059,2068
2056,2052,2051,2068,2074,2036,2047,2068
2058,2051,2044,2068,2063,2041,2045,2072
2061,2059,2038,2066,2045,2026,2040,2074
2056,2049,2039,2057,2022,2016,2023,2077
2051,2048,2042,2051,2022,2017,2025,2082
2041,2039,2032,2035,2002,2027,2028,2078
2032,2033,2012,2013,1998,2037,2031,2078
2033,2040,2015,2008,2005,2061,2044,2081
2035,2051,2025,2011,2022,2079,2051,2088
2046,2053,2049,2037,2039,2062,2041,2117
2060,2068,2061,2051,2044,2053,2052,2121
2070,2072,2074,2065,2057,2058,2056,2117
2072,2077,2079,2068,2050,2063,2059,2098
2067,2073,2077,2069,2053,2077,2068,2075
2054,2063,2072,2071,2072,2073,2047,2057
2050,2056,2071,2072,2079,2074,2040,2040
2056,2060,2076,2079,2098,2070,2052,2029
2052,2058,2077,2080,2104,2052,2044,2016
2045,2052,2066,2060,2095,2041,2028,2003
2040,2053,2052,2060,2075,2039,2030,2001
2041,2056,2054,2053,2102,2050,2012,1989
2041,2048,2042,2045,2102,2042,2021,1977
2042,2039,2029,2033,2100,2042,2042,1971
2046,2043,2022,2017,2054,2042,2033,1977
2043,2041,2018,2003,1978,2049,2043,1987
2052,2042,2020,2002,1960,2045,2050,1999
2056,2042,2011,1977,1928,2045,2034,2008
2047,2036,2010,1980,1927,2045,2037,2016
2044,2034,2010,1989,1974,2050,2037,2025
2045,2037,2016,2010,2032,2057,2041,2039
2047,2041,2022,2032,2052,2071,2033,2045
2049,2044,2027,2044,2053,2065,2028,2055
2047,2048,2027,2053,2050,2052,2041,2071
2046,2043,2022,2050,2035,2029,2036,2072
2041,2043,2018,2041,2014,2014,2024,2081
2037,2028,2013,2041,1997,2018,2034,2081
2028,2027,2022,2032,1976,2022,2032,2088
2030,2021,2032,2005,1939,2018,2027,2084
2023,2037,2060,1995,1935,2031,2028,2093
2037,2068,2089,2018,2043,2052,2044,2102
2049,2080,2096,2037,2109,2060,2049,2106
2058,2076,2098,2035,2115,2042,2018,2106
2052,2068,2099,2040,2114,2019,2005,2100
2055,2067,2104,2033,2110,2047,2021,2095
2047,2064,2099,2048,2112,2083,2026,2086
2050,2056,2099,2058,2068,2078,2041,2083
2053,2059,2073,2041,1956,2063,2051,2065
2047,2046,2066,2033,1984,2070,2052,2050
2045,2046,2060,2037,2021,2080,2039,2035
2043,2048,2057,2040,2072,2096,2041,2016
2045,2052,2051,2043,2092,2124,2033,1999
2049,2053,2056,2049,2075,2130,2044,1985
2049,2053,2054,2056,2073,2122,2034,1974
2034,2045,2045,2045,2087,2097,2002,1968
2036,2037,2039,2031,2085,2047,2021,1976
2044,2046,2036,2030,2063,1999,2031,1985
2047,2051,2046,2015,1984,1967,2019,1986
2050,2048,2041,2013,1970,1986,2019,1982
2051,2055,2045,2040,2045,2029,2021,1994
2049,2055,2044,2047,2082,2052,2026,1998
2048,2051,2044,2026,1999,2043,2029,2016
2045,2041,2044,2027,1985,2054,2023,2029
2047,2047,2051,2037,2008,2066,2024,2050
2057,2051,2051,2045,2038,2073,2034,2066
2058,2056,2056,2045,2070,2082,2026,2074
2054,2050,2052,2032,2067,2063,2030,2078
2053,2046,2049,2026,2004,2055,2019,2088
2047,2050,2058,2032,1946,2046,2020,2096
2048,2055,2074,2034,1968,2056,2022,2101
2045,2043,2070,2046,1995,2051,2015,2105
2040,2042,2066,2052,2022,2059,2030,2104
2052,2052,2076,2066,2020,2067,2035,2106
2046,2043,2068,2064,2014,2063,2043,2108
2041,2045,2065,2074,2052,2061,2043,2103
2041,2047,2070,2073,2087,2047,2035,2098
2039,2043,2059,2068,2072,2013,2037,2085
2042,2043,2054,2052,2068,1990,2054,2077
2036,2042,2049,2048,2059,1983,2050,2057
2033,2032,2040,2014,1978,2016,2032,2035
2026,2029,2037,2004,1961,2065,2029,2011
2028,2022,2028,1998,1928,2089,2016,1991
2024,2017,2016,1989,1902,2117,2026,1974
2023,2023,2020,1976,1869,2077,2024,1965
2024,2036,2035,2000,1904,1959,2037,1983
2036,2049,2056,2024,2012,1946,2041,1980
2046,2053,2052,2047,2100,1970,2050,1996
2057,2069,2070,2081,2184,2023,2073,2006
2068,2088,2089,2094,2205,2088,2052,2008
2068,2078,2080,2083,2176,2106,2063,2008
2063,2067,2071,2061,2128,2090,2063,2005
2052,2055,2060,2046,2092,2076,2067,2007
2052,2058,2056,2047,2063,2088,2047,2018
2052,2055,2052,2039,2032,2096,2052,2033
2058,2048,2052,2030,2007,2087,2026,2036
2048,2049,2045,2029,1969,2071,2050,2044
2054,2051,2049,2030,1973,2033,2035,2066
2058,2050,2043,2047,2032,1985,2028,2072
2052,2049,2046,2051,2073,2014,2047,2074
2044,2042,2045,2056,2070,2043,2048,2087
2046,2038,2046,2052,2058,2053,2064,2094
2040,2037,2043,2046,2055,2055,2045,2094
2032,2021,2036,2042,2054,2058,2043,2096
2026,2028,2035,2043,2086,2062,2054,2102
2028,2043,2057,2050,2118,2074,2048,2102
2035,2038,2052,2046,2120,2077,2034,2098
2036,2039,2054,2044,2044,2068,2047,2095
2041,2041,2053,2043,1998,2064,2034,2094
2037,2040,2052,2045,2004,2061,2037,2085
2035,2038,2043,2034,2005,2049,2037,2078
2033,2042,2037,2021,1996,2045,2043,2077
2032,2043,2044,2028,2051,2067,2033,2066
2037,2039,2041,2043,2103,2076,2033,2057
2038,2042,2044,2056,2110,2061,2032,2040
2041,2043,2044,2052,2079,2043,2020,2023
2040,2043,2040,2042,2081,2054,2029,2007
2044,2052,2043,2057,2134,2079,2023,1995
2044,2057,2055,2067,2161,2094,2046,1974
2043,2051,2044,2037,2091,2085,2034,1965
2041,2050,2046,2028,2061,2073,2042,1966
2041,2056,2048,2036,2089,2080,2031,1976
2052,2060,2050,2043,2064,2067,2039,1988
2058,2066,2059,2047,2041,2065,2040,1997
2055,2064,2053,2043,2047,2057,2025,2008
2066,2070,2056,2047,2049,2054,2029,2010
2055,2059,2053,2043,2038,2058,2034,2013
2043,2055,2052,2041,2039,2054,2032,2029
2036,2050,2051,2033,2018,2035,2039,2039
2034,2039,2048,2038,2010,2022,2036,2058
2040,2046,2051,2042,2019,2016,2035,2072
2046,2051,2054,2051,2035,2025,2031,2090
2055,2055,2053,2050,2040,2023,2049,2094
2052,2046,2052,2047,2033,2027,2040,2103
2046,2050,2051,2048,2032,2025,2046,2116
2053,2043,2044,2047,2028,2024,2046,2111
2046,2039,2046,2047,2023,2030,2028,2116
2057,2050,2051,2049,2031,2036,2064,2119
2057,2045,2055,2044,2024,2033,2049,2116
2065,2047,2058,2046,2022,2034,2043,2111
2057,2045,2050,2040,2031,2029,2030,2090
2043,2046,2053,2053,2033,2021,2031,2089
2047,2041,2060,2058,2046,2021,2034,2075
2050,2039,2057,2062,2062,2041,2048,2069
2044,2034,2040,2065,2072,2071,2046,2058
2033,2029,2032,2066,2088,2110,2044,2038
2023,2018,2021,2066,2081,2121,2057,2017
2016,2015,2013,2067,2112,2118,2049,2001
2015,2014,2005,2058,2109,2110,2062,1991
2020,2020,2013,2054,2076,2112,2052,1988
2035,2025,2018,2049,2081,2108,2055,1990
2046,2027,2017,2051,2141,2102,2046,1989
2045,2022,2017,2062,2148,2099,2056,1979
2053,2041,2028,2066,2138,2101,2058,1995
2052,2040,2029,2065,2129,2105,2060,1995
2051,2047,2032,2063,2104,2098,2067,1995
2043,2046,2030,2031,1979,2064,2057,2001
2043,2038,2027,2013,1928,2043,2040,2002
2035,2028,2027,1999,1918,2026,2033,2015
2030,2019,2024,1960,1773,1985,2019,2029
2036,2031,2047,1940,1686,1970,2016,2044
2044,2052,2094,1987,1865,2004,2031,2049
2059,2066,2110,2036,2073,2042,2043,2058
2044,2068,2101,2057,2139,2059,2039,2068
2045,2059,2087,2052,2101,2057,2016,2076
2045,2052,2077,2043,2072,2058,2041,2095
2063,2059,2072,2043,2061,2063,2061,2108
2068,2055,2061,2045,2049,2062,2045,2104
2049,2049,2059,2044,2066,2059,2040,2096
2043,2051,2058,2043,2089,2054,2042,2092
2049,2048,2058,2051,2083,2052,2039,2093
2052,2053,2065,2056,2062,2068,2053,2092
2048,2058,2067,2059,2074,2070,2059,2088
2051,2060,2068,2054,2083,2070,2052,2079
2047,2054,2066,2044,2071,2072,2051,2067
2051,2060,2064,2051,2079,2087,2056,2067
2056,2059,2062,2052,2048,2087,2063,2055
2054,2060,2062,2046,2026,2067,2044,2035
2039,2056,2062,2037,1984,2037,2037,2023
2046,2046,2059,2036,1974,2024,2033,2009
2043,2042,2053,2025,1960,2027,2035,1985
2031,2034,2047,2029,2001,2032,2032,1976
2034,2034,2042,2031,2029,2034,2049,1963
2028,2028,2038,2026,2040,2023,2041,1952
2027,2031,2040,2021,2048,2004,2034,1956
2039,2042,2053,2029,2038,2022,2048,1960
2048,2050,2053,2034,2040,2038,2038,1978
2048,2048,2061,2038,2033,2044,2046,1988
2049,2050,2060,2040,2033,2044,2034,1997
2045,2047,2046,2037,2032,2040,2059,2008
2045,2047,2046,2035,2037,2049,2028,2024
2034,2035,2043,2037,2038,2050,2059,2039
2041,2030,2046,2032,2038,2050,2064,2052
2047,2037,2039,2037,2041,2051,2065,2058
2050,2040,2054,2031,2038,2051,2062,2076
2045,2040,2040,2036,2032,2052,2054,2075
2041,2037,2038,2028,2029,2055,2071,2081
2049,2034,2043,2034,2038,2063,2069,2092
2048,2037,2045,2039,2040,2064,2063,2099
2049,2034,2046,2034,2040,2064,2073,2102
2052,2036,2047,2030,2040,2063,2068,2101
2054,2045,2048,2044,2045,2070,2074,2107
2065,2052,2049,2041,2042,2075,2077,2100
2066,2056,2055,2049,2056,2068,2075,2105
2066,2053,2053,2048,2051,2068,2063,2098
2067,2059,2058,2042,2054,2041,2042,2090
2056,2051,2046,2042,2054,2026,2028,2080
2055,2052,2051,2044,2059,2027,2014,2067
2051,2048,2049,2042,2056,2022,2030,2052
2050,2048,2054,2043,2057,2031,2040,2038
2059,2055,2057,2047,2058,2037,2048,2024
2050,2052,2056,2046,2064,2043,2037,2014
2061,2048,2053,2041,2056,2046,2043,2006
2054,2047,2047,2041,2054,2053,2032,1994
2051,2047,2043,2041,2053,2050,2054,1983
2052,2048,2047,2034,2048,2036,2033,1969
2044,2040,2033,2035,2048,2032,2050,1965
2042,2040,2039,2039,2051,2040,2053,1976
2049,2044,2040,2039,2050,2037,2027,1976
2060,2046,2046,2039,2047,2040,2044,1988
2062,2062,2058,2057,2056,2045,2047,2000
2063,2062,2063,2050,2053,2047,2052,2007
2059,2064,2072,2053,2055,2048,2058,2020
2055,2062,2060,2055,2047,2055,2069,2029
2048,2058,2064,2055,2058,2064,2074,2042
2048,2055,2055,2057,2059,2055,2056,2058
2044,2048,2051,2058,2044,2035,2042,2069
2046,2045,2044,2047,2044,2038,2037,2078
2046,2044,2038,2041,2041,2037,2024,2086
2038,2047,2033,2038,2036,2052,2028,2098
2042,2046,2039,2037,2032,2057,1997,2097
2044,2053,2047,2038,2023,2069,1997,2097
2049,2046,2057,2043,2021,2071,2002,2100
2046,2055,2070,2050,2030,2087,2039,2107
2049,2067,2073,2056,2038,2065,2035,2096
2048,2069,2075,2049,2042,2041,2043,2097
2051,2059,2075,2047,2046,2048,2058,2098
2049,2059,2072,2043,2046,2053,2044,2088
2052,2059,2071,2048,2051,2060,2027,2085
2053,2057,2074,2047,2053,2057,2048,2072
2045,2058,2062,2047,2055,2055,2053,2057
2043,2059,2062,2047,2049,2046,2015,2040
2035,2048,2056,2046,2048,2049,2013,2022
2035,2047,2057,2046,2050,2052,2061,2017
2035,2044,2056,2047,2052,2052,2072,2005
2040,2057,2057,2050,2046,2052,2057,1997
2042,2060,2057,2055,2051,2057,2053,1985
2050,2064,2056,2049,2050,2049,2040,1978
2039,2052,2048,2044,2054,2054,2037,1969
2037,2057,2051,2046,2047,2072,2053,1966
2056,2066,2050,2049,2046,2088,2063,1978
2048,2068,2053,2045,2047,2090,2053,1982
2049,2059,2057,2043,2043,2086,2053,1986
2046,2054,2047,2049,2046,2079,2054,2003
2050,2059,2048,2051,2047,2076,2042,2020
2056,2059,2055,2054,2044,2061,2018,2036
2060,2066,2055,2056,2049,2060,2045,2048
2058,2060,2054,2046,2048,2045,2017,2054
2056,2064,2055,2052,2048,2038,2043,2064
2059,2061,2045,2054,2045,2024,2036,2068
2054,2050,2045,2050,2039,2020,2025,2074
2051,2056,2050,2046,2040,2009,2035,2085
2049,2061,2049,2046,2040,2013,2046,2102
2055,2063,2047,2054,2047,2015,2021,2105
2053,2056,2047,2046,2037,2009,2015,2106
2039,2046,2039,2047,2033,2022,2044,2105
2051,2061,2047,2047,2037,2040,2052,2108
2044,2052,2051,2051,2046,2049,2072,2097
2049,2055,2054,2053,2045,2045,2056,2097
2040,2053,2046,2056,2046,2045,2049,2091
2043,2044,2043,2050,2056,2042,2048,2087
2049,2049,2039,2049,2051,2042,2051,2073
2048,2044,2045,2044,2047,2041,2020,2065
2049,2051,2049,2052,2060,2059,2064,2061
2046,2052,2041,2049,2063,2064,2051,2035
2046,2044,2040,2044,2065,2063,2057,2028
2039,2044,2043,2041,2067,2062,2061,2012
2037,2042,2036,2040,2064,2054,2055,1990
2027,2031,2032,2040,2052,2040,2035,1974
2028,2024,2029,2036,2044,2036,2035,1965
2023,2015,2020,2034,2037,2038,2041,1964
2025,2018,2026,2032,2035,2046,2048,1962
2035,2030,2032,2030,2031,2045,2041,1972
2038,2028,2032,2033,2044,2039,2029,1972
2044,2038,2038,2037,2048,2035,2040,1986
2044,2039,2040,2040,2048,2044,2030,2001
2054,2045,2037,2039,2051,2044,2022,2012
2057,2052,2038,2035,2048,2047,2025,2031
2062,2058,2042,2036,2046,2045,2039,2045
2064,2056,2041,2037,2052,2044,2021,2052
2070,2056,2042,2041,2051,2044,2034,2049
2062,2049,2036,2034,2041,2041,2031,2049
2049,2047,2036,2036,2037,2042,2030,2064
2048,2050,2042,2035,2039,2040,2049,2072
2045,2044,2036,2034,2030,2029,2039,2078
2039,2036,2032,2029,2023,2025,2028,2081
2025,2040,2025,2028,2024,2029,2034,2089
2033,2045,2033,2031,2020,2044,2059,2114
2043,2056,2049,2040,2034,2042,2068,2111
2042,2057,2047,2042,2036,2032,2056,2107
2036,2050,2040,2046,2042,2032,2057,2104
2032,2041,2041,2048,2049,2034,2044,2105
2034,2042,2048,2054,2054,2033,2052,2095
2035,2046,2054,2066,2053,2030,2051,2086
2043,2058,2056,2075,2060,2033,2063,2078
2050,2063,2059,2073,2072,2036,2060,2070
2055,2069,2062,2071,2066,2036,2057,2046
2051,2075,2065,2075,2069,2037,2073,2031
2059,2081,2068,2084,2076,2056,2078,2030
2061,2086,2072,2075,2077,2075,2074,2015
2057,2086,2074,2074,2073,2106,2080,2001
2059,2075,2075,2072,2087,2113,2078,1984
2036,2057,2057,2069,2087,2100,2071,1979
2025,2045,2059,2065,2092,2085,2081,1981
2037,2067,2074,2083,2094,2085,2068,1990
2056,2077,2078,2078,2089,2077,2084,1995
2054,2067,2075,2064,2066,2061,2076,1997
2037,2058,2060,2053,2027,2028,2064,2001
2025,2046,2043,2028,2001,2009,2045,2016
2003,2031,2032,2020,1999,2016,2047,2028
2000,2029,2027,2022,2008,2033,2052,2035
2015,2025,2028,2028,2014,2039,2045,2047
2024,2039,2031,2027,2027,2055,2051,2069
2026,2046,2039,2035,2033,2064,2060,2079
2034,2055,2045,2048,2054,2071,2067,2092
2060,2066,2049,2047,2052,2066,2063,2102
2071,2062,2050,2049,2041,2047,2062,2110
2058,2061,2047,2045,2034,2029,2059,2108
2046,2051,2039,2039,2028,2010,2030,2109
2045,2045,2032,2034,2020,2018,2041,2114
2051,2054,2043,2041,2032,2030,2053,2111
2046,2059,2050,2046,2040,2021,2055,2105
2046,2053,2055,2050,2041,2029,2056,2107
2050,2058,2054,2051,2044,2044,2072,2104
2052,2059,2060,2056,2052,2056,2079,2096
2054,2064,2060,2058,2061,2064,2066,2096
2052,2060,2058,2056,2060,2068,2070,2085
2054,2063,2054,2049,2059,2073,2075,2074
2048,2058,2048,2042,2064,2088,2077,2057
2050,2053,2047,2036,2047,2103,2062,2042
2046,2048,2046,2028,2046,2106,2071,2012
2034,2044,2039,2025,2034,2084,2068,1998
2028,2053,2045,2031,2042,2028,2041,1992
2035,2048,2050,2034,2055,2015,2055,1987
2036,2048,2049,2040,2056,2044,2042,1982
2028,2042,2047,2048,2056,2069,2066,1981
2035,2051,2055,2056,2053,2065,2064,1981
2039,2053,2051,2051,2047,2062,2059,1987
2031,2048,2055,2057,2039,2054,2043,1987
2041,2054,2055,2051,2035,2060,2026,1996
2035,2052,2054,2046,2034,2060,2028,2007
2039,2052,2051,2046,2035,2080,2030,2021
2037,2050,2054,2046,2030,2088,2026,2036
2036,2052,2051,2039,2030,2097,2058,2042
2038,2045,2043,2038,2027,2084,2068,2042
2036,2035,2045,2036,2024,2065,2074,2055
2034,2041,2043,2035,2039,2075,2060,2065
2033,2044,2043,2041,2045,2080,2070,2070
2034,2044,2056,2054,2061,2089,2061,2087
2040,2050,2059,2065,2068,2090,2050,2093
2038,2049,2066,2072,2066,2039,2057,2091
2028,2037,2057,2068,2059,2011,2056,2084
2024,2041,2065,2068,2058,2035,2043,2091
2031,2050,2065,2062,2043,2063,2027,2093
2036,2049,2053,2039,2028,2070,2046,2095
2040,2046,2043,2033,2019,2053,2057,2101
2044,2048,2038,2030,2019,2037,2066,2105
2054,2049,2037,2035,2030,2030,2070,2103
2055,2057,2038,2041,2040,2033,2063,2102
2052,2049,2040,2041,2044,2015,2055,2080
2046,2042,2034,2039,2038,2004,2047,2058
2038,2040,2044,2041,2031,1993,2039,2036
2041,2036,2039,2030,2024,1992,2025,2021
2026,2030,2038,2028,2023,1986,2044,2009
2020,2033,2039,2036,2039,1990,2054,2000
2020,2030,2041,2041,2040,2012,2046,1992
2010,2024,2038,2041,2053,2028,2054,1988
2011,2024,2032,2035,2046,2058,2052,1977
2021,2024,2031,2036,2048,2098,2027,1983
2035,2039,2045,2041,2050,2121,2045,1992
2041,2050,2049,2048,2055,2130,2018,1997
2051,2056,2049,2059,2060,2138,2035,2005
2048,2066,2056,2066,2062,2139,2040,2020
2048,2064,2054,2061,2063,2130,2037,2022
2047,2063,2051,2056,2064,2125,2045,2045
2046,2063,2050,2051,2058,2099,2033,2058
2052,2063,2047,2049,2056,2053,2045,2059
2046,2054,2043,2041,2050,2021,2036,2069
2041,2056,2044,2037,2031,1987,2049,2066
2042,2057,2040,2038,2028,1969,2041,2071
2038,2060,2041,2044,2036,1958,2036,2079
2050,2061,2044,2053,2046,1955,2033,2080
2044,2062,2052,2050,2034,1975,2044,2075
2036,2046,2047,2041,2029,1999,2031,2074
2031,2039,2044,2041,2022,2024,2026,2080
2035,2046,2052,2045,2033,2042,2039,2086
2038,2056,2055,2047,2035,2049,2047,2096
2042,2059,2059,2057,2041,2037,2056,2098
2043,2058,2061,2057,2036,2034,2059,2102
2046,2057,2056,2057,2043,2044,2059,2099
2046,2055,2056,2053,2043,2051,2069,2095
2054,2060,2057,2046,2036,2039,2054,2085
2052,2060,2061,2033,2030,2036,2047,2076
2048,2057,2059,2033,2028,2032,2046,2062
2054,2057,2056,2040,2028,2043,2040,2050
2054,2058,2057,2038,2039,2045,2052,2026
2047,2053,2057,2040,2037,2049,2043,2007
2048,2053,2056,2042,2040,2052,2050,1996
2052,2061,2059,2040,2035,2051,2037,1998
2054,2062,2058,2041,2033,2033,2028,1994
2053,2057,2061,2035,2026,2027,2022,1988
2056,2064,2060,2030,2036,2041,2040,1995
2065,2070,2064,2037,2033,2045,2044,1995
2060,2069,2059,2047,2044,2055,2054,1989
2043,2062,2053,2050,2050,2044,2042,1982
2031,2054,2054,2036,2054,2040,2041,1983
2023,2050,2049,2031,2035,2036,2010,1994
2020,2045,2052,2027,2018,2026,2032,2011
2028,2046,2046,2028,2014,2023,2042,2034
2038,2051,2046,2032,2017,2004,2054,2044
2031,2043,2044,2025,2012,1995,2039,2036
2035,2046,2046,2037,2042,2008,2051,2047
2034,2044,2051,2055,2056,2015,2056,2066
2033,2050,2057,2057,2061,2037,2046,2086
2041,2054,2055,2061,2067,2050,2074,2104
2043,2051,2052,2061,2075,2055,2059,2112
2047,2050,2049,2065,2073,2038,2066,2112
2050,2056,2052,2062,2065,2020,2059,2124
2061,2064,2059,2072,2082,2019,2060,2130
2065,2064,2071,2073,2087,2015,2040,2136
2060,2062,2073,2071,2085,2013,2031,2129
2061,2068,2077,2076,2080,2013,2038,2111
2049,2064,2075,2069,2073,2021,2045,2105
2043,2071,2070,2073,2077,2018,2050,2086
2047,2064,2060,2054,2056,2000,2022,2073
2038,2057,2066,2050,2054,1986,2033,2054
2034,2061,2064,2051,2047,1980,2031,2050
2030,2061,2067,2042,2042,1986,2037,2038
2027,2059,2066,2046,2035,2003,2056,2018
2020,2052,2059,2037,2033,2007,2053,2002
2022,2055,2057,2044,2032,2020,2051,1976
2012,2045,2057,2040,2033,2041,2026,1960
2004,2032,2041,2029,2025,2067,2030,1940
1983,2017,2034,2016,2011,2104,2039,1933
1987,2014,2036,2019,2016,2116,2048,1957
2028,2038,2048,2030,2031,2099,2065,1980
2048,2042,2042,2043,2039,2085,2063,1996
2043,2040,2046,2039,2032,2074,2046,2002
2038,2038,2045,2045,2029,2075,2046,2008
2035,2041,2053,2047,2022,2074,2043,2022
2035,2041,2059,2044,2013,2073,2055,2031
2034,2048,2056,2047,2004,2052,2049,2044
2031,2054,2056,2042,1977,2013,2049,2073
2032,2054,2058,2055,1985,2001,2066,2090
2038,2053,2054,2045,1994,2024,2067,2092
2037,2050,2050,2041,2020,2068,2074,2101
2042,2051,2057,2054,2059,2100,2076,2103
2043,2044,2054,2061,2092,2103,2079,2107
2043,2050,2058,2062,2118,2110,2078,2118
2029,2045,2049,2056,2101,2095,2070,2109
2028,2036,2042,2044,2074,2058,2058,2115
2035,2045,2044,2045,2064,2049,2046,2119
2037,2046,2049,2039,2045,2059,2045,2114
2032,2044,2044,2035,2028,2063,2018,2094
2032,2051,2052,2027,2010,2084,2008,2089
2035,2044,2052,2031,2004,2094,1990,2082
2042,2053,2057,2046,2022,2035,1983,2093
2050,2068,2071,2064,2055,1980,1995,2089
2047,2066,2072,2071,2080,1970,2009,2089
2045,2055,2067,2074,2091,1977,1995,2081
2041,2053,2062,2068,2099,2027,2022,2070
2040,2050,2063,2056,2087,2048,2046,2058
2049,2050,2058,2050,2072,2039,2051,2037
2049,2055,2062,2054,2073,2046,2028,2022
2047,2057,2061,2051,2077,2061,2029,2011
2044,2056,2058,2055,2076,2072,2031,1995
2042,2049,2059,2047,2070,2107,2037,1984
2040,2059,2066,2051,2077,2133,2039,1981
2042,2060,2067,2056,2072,2136,2034,1984
2041,2061,2061,2048,2052,2100,2041,1975
2034,2054,2061,2048,2060,2072,2045,1989
2035,2059,2058,2059,2088,2072,2054,1987
2027,2045,2051,2053,2089,2067,2046,1988
2018,2041,2053,2053,2068,2022,2042,1991
2010,2043,2053,2053,2046,1941,2002,2001
2017,2040,2052,2055,2058,1993,2017,2023
2016,2043,2047,2053,2058,2064,2038,2041
2023,2037,2047,2052,2061,2095,2043,2054
2020,2036,2053,2058,2066,2079,2059,2067
2018,2042,2045,2060,2070,2067,2055,2066
2022,2038,2045,2063,2076,2085,2054,2076
2031,2042,2049,2057,2066,2089,2036,2082
2048,2040,2038,2048,2053,2081,2049,2089
2052,2036,2033,2049,2047,2085,2035,2092
2040,2040,2043,2052,2040,2065,2034,2088
2034,2044,2049,2053,2037,2058,2025,2086
2037,2052,2051,2059,2048,2060,2052,2075
2040,2057,2055,2056,2054,2052,2031,2075
2041,2053,2055,2056,2050,2029,2027,2072
2046,2060,2059,2056,2061,2027,2042,2072
2050,2058,2049,2056,2068,2046,2055,2072
2056,2058,2052,2061,2077,2078,2074,2072
2055,2064,2053,2060,2075,2079,2061,2063
2057,2061,2059,2050,2073,2082,2062,2054
2067,2068,2058,2048,2067,2074,2065,2030
2054,2067,2059,2056,2059,2053,2049,2003
2045,2054,2052,2054,2043,2016,2022,1985
2033,2044,2049,2046,2026,2009,2023,1979
2013,2024,2037,2038,2028,2027,2016,1975
2022,2024,2035,2036,2032,2070,2054,1979
2034,2029,2037,2038,2023,2080,2062,1983
2031,2031,2026,2026,2007,2066,2060,1992
2037,2026,2020,2023,1980,2032,2052,1992
2028,2020,2007,1997,1920,1980,2024,1985
2031,2019,1993,1986,1899,2004,2026,1995
2045,2032,2003,2016,1939,2035,2029,2019
2053,2042,2017,2023,1942,2024,2029,2021
2046,2036,2019,2031,2009,2006,2047,2052
2058,2046,2035,2073,2138,2042,2072,2070
2055,2049,2035,2083,2179,2086,2069,2063
2041,2035,2021,2067,2150,2102,2042,2056
2027,2026,2016,2050,2108,2100,2030,2053
2021,2016,2009,2038,2077,2067,2016,2074
2032,2023,2010,2035,2058,2023,2036,2094
2039,2018,2011,2034,2049,1988,2053,2104
2041,2025,2015,2039,2047,1964,2058,2120
2050,2033,2028,2049,2061,1947,2043,2121
2044,2038,2039,2058,2066,1933,2038,2113
2042,2039,2037,2060,2060,1952,2026,2108
2041,2033,2040,2054,2045,1951,2001,2091
2032,2035,2041,2044,2042,1955,2018,2081
2027,2039,2043,2047,2049,1985,2001,2069
2032,2048,2052,2053,2062,2017,2017,2063
2018,2038,2055,2054,2072,2037,2046,2050
2019,2041,2059,2059,2079,2045,2050,2043
2045,2052,2065,2065,2084,2048,2053,2044
2049,2053,2069,2060,2086,2035,2058,2035
2055,2058,2072,2056,2065,2024,2049,2022
2054,2060,2072,2055,2062,2033,2042,2007
2052,2059,2076,2047,2064,2037,2056,1988
2053,2055,2075,2053,2072,2030,2057,1976
2046,2048,2070,2057,2075,2026,2048,1981
2049,2052,2071,2061,2074,2035,2053,1983
2045,2045,2065,2061,2082,2064,2065,1980
2037,2037,2049,2058,2083,2100,2044,1976
2027,2039,2047,2052,2076,2121,2049,1990
2022,2035,2052,2054,2058,2092,2063,2008
2027,2037,2048,2047,2031,2053,2030,2025
2029,2024,2038,2044,2022,2023,2024,2045
2027,2018,2030,2031,2008,2018,2021,2048
2027,2020,2021,2039,2036,2030,2042,2065
2028,2016,2030,2067,2085,2049,2047,2077
2039,2025,2033,2088,2137,2075,2074,2084
2045,2028,2034,2091,2161,2078,2062,2089
2040,2021,2019,2091,2141,2053,2056,2096
2048,2025,2017,2080,2102,2032,2059,2099
2036,2010,2002,2063,2076,2017,2051,2093
2036,2006,1982,2059,2061,2021,2048,2098
2039,2013,1973,2063,2069,2034,2056,2091
2038,2011,1960,2053,2063,2045,2058,2090
2032,2008,1950,2051,2064,2053,2067,2095
2040,2008,1932,2045,2067,2053,2051,2091
2045,2018,1921,2032,2063,2054,2050,2085
2046,2020,1926,2043,2068,2060,2050,2079
2045,2021,1951,2049,2060,2069,2089,2061
2037,2023,1976,2053,2064,2073,2080,2055
2031,2017,1992,2033,2043,2054,2066,2037
2024,2015,2016,2017,2019,2021,2039,2017
2020,2014,2055,2018,2017,1987,2041,2007
2030,2053,2129,2038,2017,1990,2040,2005
2030,2065,2177,2065,2032,2035,2062,1998
2049,2087,2194,2083,2051,2080,2080,2004
2050,2078,2183,2081,2062,2104,2078,1997
2047,2075,2189,2099,2085,2087,2085,2000
2050,2091,2196,2111,2097,2052,2065,2010
2054,2086,2184,2107,2072,2040,2054,2005
2053,2076,2164,2088,2038,2042,2042,2002
2050,2067,2139,2072,2023,2038,2034,2005
2038,2051,2121,2058,2012,2024,2050,2016
2034,2055,2105,2047,2032,2008,2056,2049
2041,2055,2113,2056,2062,2020,2078,2063
2051,2055,2122,2067,2077,2045,2063,2077
2045,2053,2120,2066,2079,2065,2075,2075
2037,2048,2096,2042,2064,2066,2062,2084
2034,2045,2083,2040,2033,2055,2063,2097
2049,2053,2085,2055,2020,2045,2052,2096
2052,2059,2087,2065,2024,2042,2038,2112
2049,2059,2085,2077,2052,2060,2029,2118
2039,2044,2060,2066,2097,2038,2010,2115
2039,2037,2047,2060,2165,2023,2013,2114
2038,2035,2036,2060,2185,2033,2025,2106
2030,2025,2025,2042,2166,2043,2035,2103
2028,2029,2020,2038,2141,2072,2063,2110
2035,2032,2013,2029,2123,2085,2068,2116
2039,2030,2007,2018,2133,2051,2056,2113
2047,2041,2011,2021,2133,2042,2068,2108
2047,2040,2012,1997,2040,2026,2050,2094
2040,2034,2018,1974,1982,2038,2051,2088
2046,2038,2031,1978,1980,2062,2054,2074
2059,2057,2032,1973,1888,2060,2044,2057
2047,2041,2026,1971,1895,2069,2049,2044
2044,2037,2032,1981,1972,2052,2052,2027
2045,2042,2056,1997,2027,2028,2024,2012
2044,2052,2078,2020,2057,2014,2026,2000
2038,2052,2083,2037,2077,2005,2034,1981
2037,2043,2076,2034,2087,2029,2044,1988
2052,2059,2085,2040,2081,2049,2062,1987
2059,2051,2072,2037,2049,2046,2065,1990
2051,2049,2063,2020,1994,2033,2053,1997
2047,2047,2058,2021,2002,2024,2028,2012
2050,2047,2065,2024,2023,2018,2063,2027
2054,2060,2064,2022,2019,2008,2063,2039
2052,2054,2070,2026,2003,2002,2042,2046
2047,2048,2057,2011,1949,1985,2006,2038
2028,2040,2053,2002,1903,1966,2012,2046
2027,2046,2055,2006,1918,1976,2022,2067
2034,2039,2050,2000,1916,1959,2006,2075
2041,2042,2047,2011,1984,1956,2023,2101
2059,2056,2066,2059,2132,2001,2063,2121
2055,2059,2073,2081,2173,2045,2067,2126
2051,2052,2060,2066,2147,2069,2041,2120
2046,2041,2047,2054,2122,2091,2045,2125
2053,2041,2046,2045,2089,2101,2045,2115
2051,2049,2043,2045,2061,2104,2057,2114
2042,2042,2039,2040,2044,2107,2049,2102
2045,2036,2042,2039,2044,2092,2059,2105
2047,2037,2049,2043,2063,2059,2040,2102
2053,2047,2051,2049,2061,2045,2037,2097
2056,2045,2049,2047,2058,2034,2048,2084
2056,2049,2056,2046,2056,2036,2040,2077
2056,2053,2065,2047,2059,2021,2049,2058
2055,2053,2055,2043,2047,2011,2030,2037
2047,2042,2052,2033,2031,2022,2023,2011
2039,2038,2052,2032,2030,2034,2025,1991
2040,2043,2057,2037,2054,2044,2027,1983
2054,2055,2060,2056,2066,2050,2058,1991
2050,2052,2056,2051,2058,2072,2046,1990
2046,2046,2050,2051,2058,2073,2061,1992
2053,2052,2056,2055,2064,2077,2053,1994
2057,2059,2050,2052,2062,2071,2055,2005
2050,2053,2052,2044,2055,2050,2032,2005
2044,2044,2048,2036,2039,2024,2029,1998
2040,2037,2042,2026,2030,2013,2008,1996
2039,2037,2040,2027,2036,2011,2028,2016
2049,2045,2044,2032,2036,2002,2021,2034
2051,2050,2046,2032,2026,1992,2029,2047
2064,2057,2050,2036,2041,2002,2049,2067
2073,2071,2062,2042,2045,2011,2068,2080
2077,2069,2060,2050,2046,2040,2088,2088
2069,2056,2056,2043,2038,2073,2038,2094
2062,2050,2048,2042,2045,2113,2061,2087
2049,2047,2049,2040,2039,2142,2056,2081
2021,2025,2036,2036,2028,2122,2029,2065
1996,2010,2028,2029,2026,2063,2025,2072
1999,2018,2039,2035,2026,1967,2015,2080
2008,2023,2044,2040,2030,1951,2021,2093
2021,2035,2045,2043,2042,1993,2027,2108
2031,2038,2051,2039,2056,2026,2017,2112
2034,2047,2048,2047,2071,2050,2051,2112
2043,2034,2052,2043,2080,2068,2069,2101
2036,2033,2044,2035,2050,2082,2063,2097
2041,2037,2049,2031,2029,2070,2060,2078
2045,2036,2047,2024,1993,2048,2057,2057
2031,2029,2042,2015,1984,2016,2053,2030
2033,2033,2040,2020,2017,1985,2054,2024
2028,2030,2046,2026,2066,2006,2066,2006
2024,2035,2042,2035,2095,2049,2071,2002
2034,2037,2047,2040,2102,2072,2059,1995
2029,2034,2044,2040,2085,2061,2067,1992
2035,2037,2051,2044,2070,2052,2037,1990
2048,2056,2056,2046,2063,2073,2040,1988
2035,2044,2047,2037,2063,2110,2051,1996
2040,2046,2048,2044,2075,2141,2057,2012
2033,2039,2046,2050,2077,2116,2036,2012
2030,2038,2037,2050,2072,2033,2026,2024
2031,2031,2034,2047,2062,2009,2044,2040
2032,2030,2032,2042,2062,2037,2046,2049
2029,2028,2029,2033,2061,2053,2036,2058
2025,2021,2029,2032,2051,2046,2050,2066
2023,2018,2024,2024,2023,2025,2041,2078
2022,2017,2027,2017,1993,2022,2044,2084
2026,2016,2029,2018,1975,2025,2041,2092
2031,2026,2033,2020,1982,2015,2034,2099
2027,2024,2025,2010,1996,2010,2015,2097
2032,2018,2035,2025,2030,2006,2022,2105
2035,2025,2037,2041,2072,2006,2028,2122
2046,2040,2046,2060,2108,2038,2039,2129
2045,2040,2046,2053,2117,2055,2035,2123
2048,2037,2037,2039,2082,2048,2038,2116
2044,2036,2036,2041,2076,2044,2052,2107
2045,2050,2039,2044,2069,2043,2062,2098
2044,2046,2047,2043,2064,2042,2054,2084
2042,2049,2055,2046,2073,2040,2045,2078
2044,2047,2062,2049,2072,2054,2060,2062
2045,2048,2055,2046,2075,2063,2062,2046
2045,2048,2046,2043,2074,2064,2061,2031
2043,2045,2045,2039,2071,2060,2070,2015
2040,2043,2050,2045,2075,2054,2049,1993
2041,2036,2050,2043,2083,2026,2034,1975
2032,2036,2048,2043,2072,2025,2016,1971
2025,2029,2039,2041,2069,2049,2031,1964
2026,2021,2036,2034,2073,2081,2043,1965
2028,2035,2053,2046,2087,2088,2039,1977
2034,2035,2054,2056,2084,2065,2038,1992
2039,2045,2053,2055,2083,2045,2046,2005
2047,2046,2052,2048,2071,2037,2067,2011
2046,2041,2051,2044,2051,2030,2067,2023
2040,2037,2043,2042,2039,2013,2048,2030
2035,2034,2035,2037,2026,2009,2046,2052
2042,2035,2040,2032,2033,2015,2062,2064
2042,2035,2038,2042,2042,2025,2061,2067
2036,2033,2042,2044,2032,2060,2049,2074
2030,2032,2034,2035,2010,2109,2054,2082
2035,2032,2039,2030,1991,2127,2057,2096
2045,2042,2034,2032,1984,2130,2058,2106
2046,2034,2038,2026,1959,2046,2046,2108
2044,2027,2032,2034,1989,1974,2055,2133
2051,2037,2042,2054,2057,2019,2081,2140
2063,2039,2047,2048,2078,2113,2075,2132
2051,2034,2037,2037,2042,2134,2071,2127
2057,2052,2045,2045,2021,2073,2053,2135
2060,2055,2057,2040,2009,2030,2048,2125
2061,2050,2060,2025,1988,2021,2028,2098
2040,2036,2037,2003,1992,2021,2003,2077
2031,2028,2031,2010,2042,2032,2008,2071
2028,2026,2046,2038,2094,2022,2006,2057
2032,2025,2035,2041,2118,2014,2032,2041
2033,2024,2028,2044,2135,2005,2041,2032
2036,2022,2019,2050,2160,2028,2057,2018
2035,2018,2015,2052,2192,2066,2036,1996
2030,2009,2005,2051,2176,2096,2054,1999
2039,2016,2009,2055,2128,2129,2044,1997
2036,2012,2005,2048,2104,2119,2052,1981
2032,2018,2011,2043,2080,2090,2040,1980
2030,2017,2003,2033,2050,2034,2016,1981
2037,2015,1997,2007,1968,1977,2045,1982
2034,2015,1997,2007,1960,1992,2022,1985
2043,2021,2012,2012,1974,2011,2047,1989
2047,2029,2029,2017,1996,2024,2041,2004
2044,2039,2037,2026,2004,2026,2046,2022
2043,2041,2029,2033,2031,2013,2049,2045
2038,2029,2020,2039,2051,2024,2065,2061
2032,2019,2020,2029,2048,2034,2048,2073
2034,2019,2005,2022,2042,2039,2058,2070
2032,2019,2010,2021,2045,2050,2051,2090
2039,2026,2015,2027,2049,2071,2063,2097
2042,2039,2024,2036,2058,2082,2062,2107
2051,2041,2028,2033,2061,2080,2044,2100
2052,2033,2019,2037,2073,2108,2031,2100
2050,2029,2014,2035,2079,2103,2038,2105
2052,2039,2021,2035,2068,2065,2030,2110
2051,2040,2019,2032,2066,2043,2018,2107
2045,2034,2018,2027,2061,2026,2022,2103
2046,2027,2027,2022,2056,2010,2027,2089
2052,2031,2030,2021,2056,2026,2044,2083
2044,2030,2037,2016,2054,2042,2051,2075
2050,2050,2073,2026,2058,2051,2065,2070
2055,2064,2095,2031,2059,2044,2059,2051
2064,2061,2092,2028,2058,2037,2051,2041
2062,2050,2072,2025,2044,2027,2045,2023
2055,2050,2073,2022,2038,2016,2038,2020
2060,2058,2084,2032,2040,2030,2048,2013
2068,2063,2091,2038,2039,2056,2054,1999
2072,2064,2079,2032,2027,2053,2048,1995
2072,2058,2073,2036,2022,2041,2046,1988
2072,2061,2069,2038,2022,2030,2046,1998
2078,2058,2063,2040,2037,1988,2042,2014
2086,2055,2064,2044,2047,1979,2035,2013
2078,2052,2057,2039,2053,1997,2040,2019
2074,2046,2058,2034,2048,2013,2042,2015
2054,2048,2054,2029,2038,2003,2027,2022
2050,2040,2048,2030,2032,2003,2025,2019
2042,2035,2045,2027,2032,2009,2023,2022
2030,2027,2042,2024,2030,2018,2013,2039
2030,2020,2037,2020,2032,2031,2015,2049
2031,2021,2038,2023,2025,2033,2009,2062
2033,2017,2032,2022,2018,2052,2027,2072
2033,2018,2027,2018,2018,2075,2018,2080
2034,2020,2023,2022,2030,2081,2026,2089
2038,2018,2026,2032,2047,2087,2041,2105
2030,2015,2024,2037,2053,2093,2049,2112
2035,2022,2026,2041,2064,2102,2061,2110
2034,2027,2022,2043,2061,2094,2069,2104
2032,2022,2017,2034,2063,2071,2057,2102
2039,2032,2018,2035,2065,2054,2061,2102
2052,2032,2021,2032,2061,2029,2052,2088
2056,2040,2029,2039,2062,2023,2064,2088
2060,2040,2035,2036,2058,2013,2057,2080
2061,2039,2033,2035,2050,2023,2071,2058
2058,2044,2039,2038,2055,2035,2066,2044
2057,2046,2043,2039,2062,2054,2049,2038
2057,2051,2047,2043,2062,2070,2061,2021
2054,2050,2051,2044,2063,2075,2046,1999
2056,2039,2046,2038,2059,2064,2042,1985
2031,2019,2026,2028,2054,2046,2033,1970
2018,2010,2019,2025,2040,2037,2020,1968
2027,2010,2027,2037,2043,2033,2045,1978
2055,2037,2047,2046,2045,2030,2032,1986
2054,2035,2047,2046,2050,2033,2032,1982
2054,2044,2049,2053,2060,2040,2048,1993
2051,2039,2054,2062,2061,2048,2032,2000
2051,2042,2056,2067,2066,2058,2068,2018
2061,2050,2062,2072,2064,2056,2060,2045
2071,2047,2047,2061,2063,2053,2055,2053
2058,2041,2041,2057,2053,2049,2066,2049
2049,2029,2030,2047,2048,2042,2052,2061
2031,2017,2018,2044,2031,2033,2057,2056
2028,2018,2013,2047,2026,2024,2043,2067
2035,2016,2017,2042,2024,2019,2048,2079
2045,2022,2024,2046,2039,2030,2047,2089
2059,2037,2033,2050,2057,2049,2066,2102
2052,2027,2017,2038,2077,2042,2063,2102
2043,2018,2016,2033,2109,2038,2055,2099
2047,2040,2033,2043,2124,2050,2035,2099
2051,2045,2051,2043,2131,2061,2029,2097
2049,2043,2048,2037,2141,2074,2045,2096
2052,2045,2045,2026,2154,2087,2059,2094
2059,2053,2049,2022,2136,2088,2061,2094
2066,2071,2062,2031,2111,2098,2084,2081
2055,2069,2053,2021,2086,2096,2076,2070
2054,2062,2052,2020,2083,2100,2089,2048
