CH1,CH2,CH3,CH4,CH5,CH6,CH7,CH8
2055,2055,2064,2055,2059,2043,2056,2080
2038,2051,2059,2049,2049,2036,2037,2076
2042,2052,2055,2050,2046,2034,2040,2071
2039,2036,2041,2033,2031,2012,2027,2061
2025,2029,2038,2036,2025,1999,2027,2073
2046,2056,2058,2049,2047,2028,2058,2078
2045,2058,2054,2055,2054,2032,2043,2070
2048,2062,2058,2059,2053,2032,2044,2065
2052,2057,2054,2055,2047,2031,2039,2064
2049,2054,2055,2054,2039,2024,2035,2051
2047,2050,2050,2052,2041,2026,2029,2047
2040,2050,2054,2054,2040,2022,2037,2052
2044,2051,2055,2056,2044,2017,2029,2044
2042,2047,2056,2063,2042,2011,2033,2037
2047,2055,2063,2072,2050,2007,2036,2037
2047,2057,2075,2080,2052,2016,2031,2044
2044,2054,2085,2078,2052,2012,2029,2035
2048,2054,2083,2081,2057,2016,2049,2034
2047,2052,2082,2081,2052,2019,2047,2026
2040,2040,2063,2064,2033,2016,2035,2013
2024,2023,2048,2057,2039,2051,2018,2006
2034,2040,2052,2075,2053,2099,2065,2019
2050,2045,2057,2076,2059,2107,2071,2029
2049,2042,2049,2073,2065,2096,2073,2037
2047,2050,2053,2072,2064,2093,2072,2046
2053,2051,2046,2066,2062,2090,2080,2039
2048,2044,2049,2065,2062,2086,2070,2037
2050,2047,2040,2062,2065,2090,2080,2046
2050,2043,2028,2050,2058,2078,2083,2048
2040,2035,2019,2035,2055,2072,2079,2050
2042,2035,2011,2016,2058,2079,2076,2057
2044,2034,2001,2019,2067,2086,2077,2065
2045,2034,2001,2009,2062,2073,2065,2070
2047,2031,2003,2008,2054,2059,2072,2075
2050,2024,1994,2020,2046,2049,2060,2073
2044,2019,1988,2010,2037,2032,2046,2061
2023,2008,1992,2011,2041,2018,2045,2060
2029,2033,2020,2038,2050,2021,2061,2069
2035,2045,2039,2040,2062,2026,2064,2063
2044,2045,2038,2038,2059,2026,2065,2056
2052,2050,2045,2043,2055,2030,2069,2064
2054,2057,2056,2047,2052,2030,2075,2063
2056,2061,2061,2053,2054,2038,2070,2054
2061,2058,2060,2051,2054,2056,2066,2044
2060,2055,2057,2044,2043,2057,2052,2037
2049,2049,2062,2043,2031,2066,2055,2034
2042,2037,2061,2040,2027,2075,2060,2030
2046,2053,2069,2046,2035,2087,2072,2025
2053,2063,2078,2053,2045,2061,2063,2029
2052,2056,2069,2047,2040,2013,2057,2025
2049,2053,2065,2046,2042,2012,2041,2024
2047,2050,2054,2038,2032,2014,2050,2009
2023,2031,2037,2034,2032,2020,2016,2007
2019,2026,2054,2044,2055,2038,2043,2028
2044,2050,2066,2061,2057,2038,2047,2033
2048,2046,2057,2060,2061,2042,2041,2032
2045,2052,2062,2056,2058,2040,2044,2041
2044,2054,2065,2059,2061,2045,2046,2050
2049,2060,2062,2057,2066,2046,2037,2047
2052,2057,2064,2058,2063,2051,2037,2050
2049,2054,2059,2055,2065,2047,2055,2058
2050,2054,2054,2053,2061,2051,2067,2066
2053,2053,2056,2053,2059,2063,2064,2068
2060,2054,2059,2057,2057,2068,2065,2075
2056,2061,2059,2050,2062,2063,2070,2080
2057,2065,2060,2053,2051,2068,2066,2084
2060,2065,2057,2055,2058,2076,2063,2083
2060,2056,2058,2048,2046,2061,2043,2061
2030,2030,2032,2034,2039,2046,2033,2064
2033,2028,2021,2045,2051,2057,2025,2069
2053,2047,2038,2055,2062,2054,2034,2062
2049,2047,2029,2061,2052,2042,2038,2064
2046,2040,2026,2049,2044,2035,2033,2053
2039,2043,2012,2049,2040,2026,2036,2046
2046,2038,2013,2050,2031,2010,2031,2040
2051,2046,2021,2052,2031,2024,2027,2030
2046,2051,2033,2053,2040,2040,2036,2030
2052,2054,2034,2054,2044,2050,2041,2027
2046,2050,2033,2047,2039,2047,2053,2017
2045,2048,2030,2039,2041,2049,2046,2016
2043,2048,2036,2043,2042,2049,2035,2016
2038,2039,2028,2045,2037,2045,2038,2019
2033,2039,2037,2047,2036,2048,2052,2022
2040,2039,2048,2057,2033,2036,2040,2011
2024,2032,2064,2052,2038,2051,2033,2009
2031,2042,2086,2061,2045,2075,2065,2024
2049,2065,2091,2057,2048,2089,2047,2026
2045,2054,2075,2045,2037,2088,2046,2028
2046,2052,2072,2054,2046,2083,2043,2027
2050,2056,2077,2059,2056,2079,2042,2034
2046,2065,2074,2061,2056,2076,2050,2038
2055,2070,2071,2057,2052,2082,2047,2043
2052,2068,2067,2048,2052,2068,2050,2043
2058,2064,2064,2054,2052,2064,2064,2056
2055,2061,2056,2048,2059,2049,2070,2066
2050,2060,2058,2044,2055,2035,2063,2066
2050,2053,2052,2038,2046,2019,2039,2068
2046,2056,2065,2035,2050,2010,2048,2068
2044,2050,2063,2026,2040,2012,2044,2072
2047,2052,2056,2016,2041,2014,2036,2059
2031,2024,2025,2001,2030,2016,2028,2055
2020,2021,2024,2007,2022,2039,2036,2058
2049,2048,2052,2026,2038,2050,2044,2060
2047,2054,2052,2034,2043,2052,2047,2064
2044,2060,2058,2039,2046,2053,2054,2052
2043,2060,2058,2040,2049,2053,2032,2045
2047,2063,2058,2037,2039,2051,2053,2040
2047,2062,2055,2039,2044,2049,2046,2037
2045,2059,2055,2042,2045,2060,2048,2037
2051,2064,2059,2045,2048,2057,2059,2035
2059,2069,2064,2045,2049,2053,2061,2032
2055,2063,2055,2039,2044,2056,2058,2034
2060,2069,2063,2039,2043,2054,2069,2029
2052,2062,2057,2042,2040,2046,2055,2022
2050,2055,2055,2040,2044,2053,2024,2023
2050,2054,2049,2035,2039,2042,2012,2012
2026,2027,2034,2022,2035,2036,2032,2008
2024,2032,2029,2033,2044,2052,2044,2022
2043,2062,2049,2052,2058,2061,2027,2034
2054,2061,2051,2043,2059,2066,2058,2037
2054,2060,2045,2047,2063,2068,2036,2041
2063,2059,2044,2041,2055,2070,2058,2048
2059,2055,2046,2043,2060,2069,2057,2043
2057,2054,2044,2049,2056,2066,2057,2047
2053,2058,2053,2047,2056,2062,2062,2056
2052,2060,2057,2052,2057,2066,2041,2056
2053,2060,2062,2053,2059,2068,2049,2071
2058,2060,2065,2052,2060,2072,2039,2063
2061,2060,2069,2049,2054,2065,2058,2068
2049,2058,2068,2052,2051,2052,2054,2073
2047,2062,2071,2052,2045,2043,2048,2075
2046,2057,2074,2050,2037,2022,2032,2061
2024,2028,2059,2036,2029,2018,2035,2054
2027,2032,2070,2049,2030,2027,2054,2069
2052,2060,2076,2059,2036,2033,2058,2073
2054,2057,2071,2062,2038,2037,2056,2062
2051,2049,2063,2073,2040,2032,2048,2050
2054,2053,2071,2078,2042,2036,2047,2052
2053,2051,2072,2083,2046,2038,2056,2048
2048,2051,2069,2075,2043,2037,2054,2048
2043,2054,2065,2073,2041,2035,2052,2039
2050,2051,2060,2069,2035,2036,2050,2036
2057,2050,2051,2076,2048,2033,2062,2032
2052,2051,2052,2067,2049,2030,2040,2031
2055,2052,2044,2065,2051,2032,2029,2035
2047,2054,2045,2062,2061,2041,2055,2038
2063,2058,2050,2056,2067,2046,2066,2035
2057,2055,2044,2049,2055,2030,2039,2011
2038,2032,2026,2024,2042,2026,2048,2015
2033,2029,2024,2029,2056,2053,2050,2021
2050,2054,2044,2028,2049,2058,2055,2024
2042,2049,2034,2021,2052,2067,2059,2027
2041,2045,2038,2016,2047,2065,2028,2028
2045,2053,2050,2015,2049,2062,2046,2042
2050,2067,2064,2030,2056,2072,2068,2046
2057,2069,2069,2022,2062,2070,2080,2044
2052,2061,2059,2025,2060,2060,2059,2051
2044,2057,2061,2026,2057,2054,2062,2054
2046,2056,2059,2031,2056,2049,2064,2063
2049,2051,2058,2035,2060,2043,2060,2062
2047,2045,2062,2043,2058,2046,2046,2064
2043,2046,2061,2051,2056,2046,2042,2072
2036,2047,2056,2059,2067,2050,2045,2078
2038,2042,2048,2050,2053,2035,2037,2061
2025,2022,2039,2042,2054,2036,2017,2053
2027,2039,2057,2055,2057,2057,2039,2073
2049,2058,2056,2058,2044,2061,2027,2068
2054,2063,2054,2049,2037,2057,2050,2068
2054,2061,2050,2048,2043,2054,2048,2064
2053,2062,2044,2050,2046,2056,2048,2056
2053,2059,2041,2048,2040,2051,2059,2053
2053,2049,2042,2049,2042,2050,2041,2050
2044,2049,2044,2047,2046,2051,2029,2042
2046,2050,2040,2037,2043,2046,2017,2026
2041,2045,2040,2030,2038,2052,2038,2029
2045,2044,2039,2031,2042,2046,2033,2031
2039,2047,2048,2032,2042,2047,2043,2025
2039,2048,2050,2035,2041,2052,2047,2033
2044,2048,2051,2037,2045,2052,2040,2029
2049,2048,2053,2034,2038,2037,2029,2015
2028,2034,2049,2033,2030,2031,2023,2017
2033,2039,2061,2049,2043,2053,2061,2037
2052,2063,2073,2056,2049,2056,2055,2039
2052,2058,2071,2054,2052,2053,2052,2037
2054,2057,2066,2061,2058,2056,2054,2044
2049,2061,2062,2060,2055,2055,2059,2041
2045,2059,2060,2061,2059,2056,2053,2043
2052,2058,2058,2060,2059,2055,2055,2051
2050,2065,2060,2060,2061,2055,2056,2057
2047,2056,2057,2059,2061,2057,2052,2067
2045,2059,2054,2056,2056,2057,2054,2069
2050,2053,2045,2049,2061,2055,2055,2066
2049,2047,2044,2044,2054,2053,2047,2074
2044,2045,2041,2038,2048,2048,2030,2070
2050,2047,2045,2039,2043,2049,2044,2069
2050,2053,2045,2028,2032,2034,2012,2059
2028,2029,2033,2024,2025,2040,2026,2061
2032,2032,2049,2035,2041,2054,2041,2065
2045,2059,2064,2043,2040,2059,2033,2069
2051,2057,2062,2049,2045,2062,2054,2060
2055,2057,2061,2049,2048,2061,2052,2059
2053,2054,2052,2042,2045,2057,2055,2048
2054,2056,2049,2046,2045,2051,2024,2043
2054,2052,2051,2040,2047,2052,2051,2039
2055,2054,2051,2039,2048,2043,2045,2036
2052,2060,2046,2040,2050,2042,2038,2029
2050,2057,2046,2045,2050,2038,2050,2026
2050,2056,2045,2052,2056,2034,2062,2031
2049,2058,2052,2052,2062,2034,2047,2017
2047,2054,2055,2050,2062,2042,2026,2018
2043,2056,2058,2057,2058,2038,2041,2020
2048,2063,2064,2052,2054,2032,2035,2011
2040,2040,2044,2039,2036,2027,2027,2007
2037,2037,2041,2040,2047,2042,2029,2024
2061,2061,2057,2057,2054,2042,2053,2029
2053,2063,2061,2058,2053,2047,2044,2036
2055,2068,2059,2054,2052,2049,2040,2042
2057,2063,2049,2055,2053,2048,2048,2043
2054,2056,2046,2054,2047,2056,2061,2043
2052,2056,2045,2056,2057,2061,2056,2051
2052,2060,2045,2061,2057,2064,2045,2048
2054,2061,2043,2054,2054,2059,2060,2054
2054,2058,2039,2053,2046,2056,2067,2055
2052,2053,2036,2054,2049,2058,2041,2072
2046,2048,2027,2043,2047,2049,2044,2076
2046,2043,2035,2050,2053,2051,2063,2076
2045,2050,2036,2053,2041,2054,2054,2082
2044,2048,2044,2051,2046,2040,2057,2067
2024,2023,2030,2035,2025,2031,2056,2066
2022,2026,2030,2038,2029,2042,2041,2071
2045,2051,2047,2048,2046,2054,2026,2072
2051,2060,2060,2055,2049,2055,2056,2064
2055,2073,2075,2060,2050,2060,2050,2074
2058,2073,2073,2057,2047,2053,2029,2068
2055,2058,2064,2052,2045,2051,2016,2064
2053,2061,2067,2050,2040,2053,2026,2052
2054,2067,2069,2054,2045,2055,2045,2047
2062,2068,2066,2056,2054,2053,2038,2048
2059,2064,2063,2055,2057,2052,2047,2050
2055,2058,2055,2050,2052,2053,2045,2041
2056,2061,2055,2047,2050,2047,2046,2038
2045,2056,2048,2047,2046,2045,2046,2035
2046,2049,2045,2051,2050,2047,2068,2031
2044,2049,2047,2048,2045,2048,2072,2015
2031,2028,2025,2030,2040,2035,2065,2017
2028,2031,2033,2033,2037,2050,2092,2033
2046,2053,2044,2051,2061,2056,2083,2038
2059,2057,2048,2054,2058,2062,2092,2037
2054,2055,2050,2057,2064,2061,2081,2039
2050,2056,2047,2052,2059,2062,2072,2038
2048,2053,2037,2047,2060,2049,2060,2045
2040,2041,2035,2048,2048,2038,2064,2039
2041,2040,2039,2048,2049,2047,2062,2053
2044,2039,2033,2054,2057,2049,2078,2054
2042,2033,2027,2052,2056,2055,2040,2055
2038,2033,2030,2053,2055,2056,2044,2068
2045,2036,2031,2052,2057,2052,2050,2067
2045,2042,2029,2050,2057,2058,2063,2060
2040,2038,2032,2047,2054,2056,2040,2068
2035,2036,2025,2049,2055,2055,2059,2060
2024,2010,2009,2026,2035,2036,2042,2048
2021,2008,2004,2024,2035,2041,2044,2050
2033,2036,2025,2045,2046,2054,2066,2058
2037,2039,2032,2047,2053,2056,2066,2050
2036,2039,2035,2041,2039,2056,2077,2054
2042,2048,2048,2047,2044,2056,2060,2043
2044,2049,2054,2045,2049,2049,2070,2055
2050,2054,2054,2046,2049,2051,2052,2050
2054,2062,2059,2053,2050,2052,2062,2056
2066,2073,2065,2051,2053,2050,2045,2051
2070,2070,2054,2054,2052,2047,2051,2047
2072,2069,2050,2047,2061,2052,2035,2044
2067,2069,2055,2054,2058,2050,2050,2041
2072,2065,2056,2054,2054,2046,2063,2032
2063,2066,2060,2054,2056,2049,2055,2035
2056,2065,2057,2056,2065,2056,2073,2027
2044,2048,2046,2046,2046,2041,2050,2009
2028,2036,2040,2037,2041,2032,2032,2022
2038,2052,2058,2053,2051,2049,2057,2039
2051,2062,2062,2052,2052,2049,2048,2039
2049,2056,2056,2045,2049,2049,2073,2041
2044,2053,2052,2050,2056,2050,2070,2042
2038,2053,2051,2046,2052,2052,2072,2044
2036,2049,2052,2060,2058,2059,2069,2043
2039,2044,2053,2058,2064,2062,2074,2055
2036,2049,2050,2059,2061,2071,2065,2056
2037,2045,2044,2057,2064,2073,2046,2059
2039,2052,2050,2056,2060,2067,2065,2068
2048,2051,2042,2058,2065,2065,2074,2075
2065,2053,2037,2048,2059,2066,2071,2083
2083,2051,2035,2049,2048,2064,2055,2079
2072,2048,2036,2050,2050,2068,2059,2083
2056,2042,2025,2038,2032,2056,2056,2061
2031,2022,2020,2034,2032,2053,2045,2058
2030,2028,2028,2039,2042,2057,2062,2073
2046,2045,2032,2048,2038,2048,2050,2066
2050,2048,2032,2050,2041,2051,2053,2067
2051,2051,2035,2053,2038,2043,2030,2066
2054,2055,2047,2050,2048,2050,2035,2051
2060,2059,2051,2050,2054,2053,2024,2048
2057,2072,2056,2053,2052,2056,2054,2040
2054,2079,2061,2050,2050,2047,2051,2029
2051,2075,2067,2050,2045,2034,2030,2024
2050,2077,2069,2047,2042,2037,2030,2025
2052,2074,2072,2049,2047,2044,2037,2030
2052,2078,2066,2043,2044,2039,2054,2027
2053,2071,2059,2039,2041,2035,2035,2030
2052,2064,2052,2042,2041,2044,2021,2025
2054,2056,2053,2045,2045,2042,2036,2019
2038,2026,2027,2027,2031,2028,2032,2015
2031,2022,2021,2029,2033,2028,2032,2030
2053,2046,2040,2045,2049,2048,2032,2036
2051,2041,2039,2047,2049,2047,2057,2035
2052,2041,2032,2045,2050,2044,2046,2039
2053,2038,2028,2050,2053,2045,2052,2039
2051,2038,2029,2055,2052,2048,2058,2047
2057,2027,2028,2051,2053,2045,2036,2046
2052,2029,2021,2054,2059,2047,2037,2046
2054,2029,2022,2048,2058,2047,2060,2052
2047,2024,2024,2051,2058,2046,2056,2059
2045,2030,2029,2055,2054,2048,2052,2064
2053,2029,2029,2058,2052,2048,2052,2055
2051,2038,2028,2056,2046,2048,2056,2062
2054,2046,2048,2056,2050,2049,2037,2066
2060,2050,2055,2059,2044,2047,2050,2069
2056,2044,2041,2048,2028,2025,2017,2059
2036,2033,2036,2045,2030,2026,2027,2052
2039,2045,2046,2053,2045,2042,2041,2068
2058,2054,2048,2056,2044,2049,2050,2065
2054,2057,2038,2055,2034,2045,2018,2056
2059,2053,2030,2051,2033,2045,2021,2062
2053,2062,2035,2058,2040,2046,2034,2054
2062,2062,2041,2066,2047,2046,2048,2045
2066,2060,2043,2066,2051,2051,2055,2045
2063,2063,2044,2071,2048,2048,2031,2042
2061,2056,2036,2064,2052,2044,2032,2029
2058,2052,2033,2055,2052,2046,2036,2026
2053,2046,2028,2056,2052,2044,2041,2021
2051,2046,2026,2061,2047,2042,2035,2015
2041,2033,2041,2067,2050,2044,2041,2018
2045,2033,2050,2076,2053,2045,2043,2019
2034,2015,2046,2060,2029,2023,2017,2011
2027,2007,2031,2056,2038,2026,2022,2018
2037,2029,2033,2065,2051,2045,2049,2031
2042,2029,2029,2060,2045,2039,2044,2024
2049,2022,2023,2061,2037,2037,2033,2031
2036,2023,2020,2056,2031,2034,2050,2030
2034,2026,2038,2049,2035,2036,2034,2034
2036,2043,2056,2060,2042,2034,2030,2049
2052,2059,2067,2068,2044,2042,2041,2050
2057,2068,2081,2073,2054,2047,2047,2052
2058,2068,2089,2074,2057,2051,2035,2064
2056,2067,2072,2072,2066,2059,2022,2062
2052,2054,2053,2062,2057,2057,2046,2072
2048,2051,2050,2050,2053,2058,2042,2068
2049,2052,2051,2044,2042,2057,2063,2066
2055,2054,2050,2038,2034,2055,2058,2057
2037,2031,2035,2016,2014,2049,2031,2063
2041,2023,2034,2019,2013,2060,2037,2068
2059,2051,2059,2039,2029,2081,2055,2070
2055,2051,2041,2043,2030,2084,2024,2059
2045,2047,2038,2036,2016,2085,2040,2055
2038,2053,2033,2038,2026,2054,2020,2043
2045,2052,2038,2040,2012,2009,2055,2042
2049,2053,2036,2042,1997,2008,2043,2031
2049,2049,2031,2042,2000,2026,2044,2029
2050,2045,2033,2046,2006,2029,2059,2023
2049,2047,2036,2039,2015,2036,2052,2019
2048,2048,2036,2040,2034,2039,2030,2018
2052,2053,2033,2049,2064,2054,2046,2020
2055,2036,2020,2054,2067,2061,2052,2025
2047,2035,2017,2060,2068,2061,2040,2022
2044,2023,1993,2045,2055,2050,2004,2009
2020,1994,1960,2020,2027,2029,2015,2004
2021,2002,1972,2017,2029,2040,2038,2015
2044,2041,2023,2043,2051,2050,2047,2021
2057,2054,2039,2043,2056,2047,2051,2026
2056,2056,2042,2034,2050,2038,2043,2029
2056,2045,2039,2024,2049,2040,2049,2029
2050,2045,2050,2031,2043,2037,2049,2036
2046,2045,2066,2036,2046,2040,2045,2044
2046,2044,2088,2038,2045,2036,2033,2052
2041,2052,2102,2049,2048,2033,2041,2061
2047,2051,2110,2057,2046,2036,2053,2063
2046,2057,2116,2064,2044,2039,2054,2062
2051,2064,2134,2078,2048,2053,2047,2065
2051,2072,2124,2068,2021,2037,2024,2060
2050,2059,2107,2063,2022,2040,2038,2068
2049,2050,2084,2062,2043,2035,2042,2053
2026,2024,2056,2056,2064,2046,2035,2053
2026,2015,2042,2059,2090,2059,2039,2056
2039,2036,2042,2077,2122,2072,2050,2059
2046,2024,2036,2102,2176,2082,2047,2057
2047,2021,2039,2126,2172,2084,2054,2056
2048,2018,2020,2140,2162,2087,2053,2055
2056,2018,2007,2141,2182,2081,2059,2046
2061,2015,1983,2135,2190,2084,2071,2042
2058,2016,1961,2129,2174,2078,2068,2037
2058,2014,1924,2122,2148,2070,2055,2021
2045,2004,1910,2097,2061,2065,2053,2023
2045,2004,1908,2085,1983,2057,2029,2028
2046,2008,1909,2077,1936,2047,2047,2020
2048,2009,1897,2041,1839,2017,2033,2013
2030,1992,1874,1993,1814,2007,2017,2010
2032,1994,1894,1971,1860,1984,2012,2008
2029,1990,1922,1955,1936,1986,2008,2005
2011,1987,1971,1938,1963,2000,2007,2019
2029,2007,2020,1938,1952,2019,2017,2020
2039,2041,2083,1923,1929,2022,2015,2043
2066,2105,2161,1932,1913,2035,2045,2046
2092,2152,2218,1961,1943,2047,2061,2051
2104,2165,2242,2008,2048,2075,2052,2058
2092,2134,2227,2052,2102,2090,2057,2057
2080,2109,2202,2063,2100,2067,2049,2045
2060,2087,2170,2057,2079,2062,2033,2048
2058,2085,2149,2064,2073,2055,2037,2054
2064,2078,2131,2072,2097,2053,2014,2065
2061,2072,2116,2090,2105,2038,2028,2071
2052,2071,2101,2100,2137,2045,2038,2077
2055,2066,2099,2097,2143,2052,2033,2076
2061,2067,2088,2093,2131,2050,2021,2062
2046,2042,2065,2073,2102,2030,2038,2059
2038,2036,2066,2063,2085,2030,2048,2069
2063,2055,2073,2075,2073,2031,2048,2066
2057,2054,2069,2050,2026,2020,2041,2058
2052,2053,2066,2025,1992,2009,2034,2046
2045,2050,2054,1996,1965,1994,1999,2035
2041,2052,2061,1977,1954,1999,2013,2030
2043,2048,2056,1964,1959,2005,2034,2037
2043,2048,2051,1972,1985,2002,2026,2033
2046,2047,2054,1985,2007,2003,2022,2020
2041,2038,2048,1992,2030,2006,2014,2014
2036,2041,2047,2013,2115,2039,2036,2021
2049,2053,2055,2053,2220,2070,2038,2029
2051,2056,2068,2071,2287,2092,2050,2029
2056,2054,2059,2078,2367,2127,2063,2036
2062,2058,2059,2082,2392,2148,2051,2021
2042,2037,2036,2066,2331,2123,2023,2017
2036,2028,2019,2061,2278,2118,2033,2029
2055,2041,2043,2069,2190,2124,2064,2027
2055,2040,2032,2032,1955,2107,2063,2030
2047,2041,2037,2026,1884,2121,2043,2029
2035,2047,2041,2017,1770,2115,2045,2030
2039,2044,2035,1998,1703,2084,2036,2032
2044,2049,2037,2000,1773,2076,2056,2043
2050,2052,2044,2018,1826,2050,2030,2051
2052,2050,2045,2019,1854,2011,2045,2065
2056,2052,2057,2045,1949,2009,2068,2068
2062,2065,2078,2077,2023,2057,2090,2080
2068,2071,2086,2084,2063,2092,2080,2087
2068,2065,2082,2086,2115,2103,2062,2080
2061,2059,2075,2089,2165,2094,2044,2077
2057,2051,2057,2074,2150,2062,2035,2060
2038,2028,2034,2039,2064,2005,2014,2048
2034,2029,2035,2019,2006,1987,2017,2057
2056,2054,2056,2004,1874,1964,2024,2046
2058,2048,2047,1981,1758,1943,2032,2040
2049,2044,2045,2000,1856,1968,2027,2041
2050,2052,2048,2042,2015,2009,2034,2044
2050,2056,2053,2058,2059,2031,2041,2041
2052,2059,2052,2057,2035,2038,2042,2035
2055,2060,2055,2051,2036,2045,2049,2035
2048,2056,2055,2033,2049,2042,2043,2023
2052,2058,2059,2028,2048,2045,2036,2033
2050,2053,2047,2024,2034,2034,2038,2030
2053,2049,2038,2009,2010,2035,2039,2016
2051,2047,2038,2017,2001,2019,2035,2023
2050,2042,2044,2040,2022,2021,2030,2015
2044,2043,2041,2050,2048,2021,2010,2006
2031,2018,2025,2047,2055,2011,2005,2003
2023,2017,2028,2052,2057,2031,2017,2020
2040,2046,2046,2081,2113,2061,2028,2022
2041,2039,2042,2077,2096,2054,2036,2023
2042,2036,2036,2058,2053,2043,2030,2022
2045,2034,2037,2040,2030,2041,2046,2032
2049,2035,2039,2038,2081,2065,2037,2034
2049,2032,2038,2049,2167,2090,2041,2039
2051,2033,2037,2053,2220,2120,2055,2045
2053,2041,2040,2064,2235,2140,2072,2058
2049,2044,2046,2072,2221,2133,2070,2062
2050,2045,2045,2073,2215,2119,2070,2063
2054,2039,2049,2070,2202,2110,2054,2070
2054,2053,2054,2069,2172,2100,2052,2083
2057,2052,2050,2064,2145,2090,2062,2083
2056,2055,2054,2056,2100,2040,2041,2066
2033,2028,2031,2025,2016,1980,2010,2063
2029,2017,2021,2027,1984,2006,2031,2068
2042,2043,2042,2065,2063,2053,2038,2065
2044,2050,2048,2080,2077,2066,2044,2065
2047,2044,2051,2077,2058,2069,2046,2064
2054,2052,2052,2064,2062,2063,2051,2063
2047,2050,2054,2055,2069,2044,2048,2043
2040,2044,2047,2052,2054,2031,2030,2045
2045,2047,2040,2049,2022,2024,2030,2038
2054,2053,2045,2040,1986,2006,2023,2026
2051,2050,2044,2023,1944,1982,2030,2017
2046,2048,2036,2010,1896,1969,2025,2013
2041,2045,2040,2034,1924,1991,2038,2004
2033,2037,2047,2056,1979,2011,2049,2007
2032,2034,2044,2071,2034,2042,2060,2012
2041,2039,2043,2072,2077,2061,2065,2012
2039,2033,2027,2063,2086,2043,2035,1995
2018,2009,2016,2048,2079,2040,2025,1999
2024,2011,2016,2051,2070,2060,2046,2016
2044,2042,2037,2057,2077,2065,2031,2023
2043,2037,2037,2060,2074,2071,2037,2035
2045,2033,2037,2066,2073,2067,2049,2039
2053,2038,2038,2067,2072,2067,2056,2037
2046,2044,2041,2068,2081,2073,2068,2050
2056,2053,2055,2081,2080,2067,2061,2051
2060,2066,2063,2084,2058,2068,2054,2060
2064,2068,2066,2084,2019,2049,2061,2066
2059,2060,2065,2079,2013,2035,2054,2077
2059,2059,2069,2075,1986,2038,2063,2076
2052,2059,2062,2060,1912,2027,2050,2076
2059,2053,2061,2050,1955,2007,2043,2076
2055,2044,2059,2046,2075,2021,2045,2078
2051,2039,2054,2035,2095,2020,2035,2057
2029,2013,2027,2023,2125,2015,2029,2057
2028,2015,2025,2029,2149,2019,2043,2066
2046,2042,2045,2049,2142,2014,2035,2061
2048,2046,2045,2064,2117,2007,2037,2052
2051,2047,2051,2046,2051,1996,2043,2052
2049,2047,2056,2028,1946,2000,2051,2047
2055,2051,2064,2047,2003,2016,2055,2047
2051,2058,2064,2057,1952,2017,2043,2047
2055,2056,2064,2047,1849,2019,2046,2044
2058,2053,2061,2042,1886,2018,2064,2034
2056,2055,2058,2046,1939,2011,2053,2036
2056,2056,2060,2056,1982,2011,2062,2034
2059,2051,2053,2056,2012,2020,2047,2022
2046,2043,2048,2061,2048,2025,2028,2020
2051,2049,2041,2069,2097,2029,2022,2009
2045,2046,2041,2066,2133,2043,2018,1999
2026,2021,2026,2044,2075,2020,2009,2000
2024,2016,2027,2035,2018,2035,2031,2026
2047,2048,2052,2061,2078,2094,2042,2038
2048,2047,2052,2064,2115,2144,2053,2042
2051,2048,2060,2063,2114,2161,2079,2044
2051,2052,2061,2060,2098,2157,2067,2041
2049,2052,2058,2059,2082,2133,2060,2044
2056,2054,2060,2057,2070,2084,2056,2056
2058,2059,2052,2050,2053,2058,2066,2053
2051,2052,2054,2038,2036,2058,2051,2054
2052,2057,2051,2040,2015,2047,2050,2060
2050,2056,2055,2049,2035,2046,2052,2056
2048,2053,2055,2044,2039,2027,2020,2058
2046,2050,2049,2044,2010,2015,2050,2062
2039,2044,2049,2048,2023,2019,2055,2065
2041,2045,2042,2049,2062,2022,2037,2062
2027,2026,2020,2030,2049,2004,2024,2049
2025,2020,2015,2035,2073,2012,2039,2059
2046,2041,2038,2059,2098,2034,2045,2067
2049,2041,2038,2061,2076,2020,2065,2062
2050,2044,2038,2052,2043,2011,2041,2050
2047,2036,2035,2028,2005,2018,2020,2032
2039,2037,2028,2024,2006,2033,2016,2021
2024,2025,2026,2020,2012,2057,2039,2015
2026,2029,2034,2047,2082,2075,2057,2033
2037,2046,2048,2066,2135,2069,2064,2036
2042,2051,2053,2064,2159,2050,2067,2030
2048,2052,2060,2076,2198,2065,2075,2040
2051,2056,2057,2089,2185,2081,2086,2044
2054,2052,2053,2084,2148,2083,2082,2041
2054,2041,2050,2083,2130,2091,2078,2032
2051,2045,2048,2065,2066,2071,2062,2017
2036,2025,2029,2036,1996,2043,2040,2006
2020,2020,2027,2042,2011,2037,2041,2009
2031,2037,2041,2064,2041,2049,2055,2020
2043,2044,2048,2068,2052,2047,2050,2026
2049,2056,2055,2067,2063,2030,2048,2042
2060,2062,2058,2069,2089,2008,2052,2047
2061,2061,2053,2080,2112,2016,2079,2056
2062,2058,2057,2075,2106,2020,2056,2050
2055,2052,2046,2066,2061,2012,2038,2043
2050,2053,2044,2061,2013,2002,2036,2052
2059,2057,2049,2070,2010,2011,2058,2056
2060,2062,2054,2074,2017,2051,2065,2059
2058,2056,2046,2066,2045,2062,2079,2062
2053,2049,2043,2059,2051,2060,2066,2066
2052,2038,2049,2054,2039,2069,2072,2075
2052,2049,2052,2062,2059,2084,2072,2069
2054,2043,2042,2044,2071,2058,2049,2059
2029,2022,2031,2045,2066,2042,2049,2053
2035,2035,2048,2054,2083,2054,2066,2073
2047,2054,2054,2058,2084,2064,2064,2071
2053,2057,2051,2063,2128,2078,2064,2058
2045,2055,2048,2065,2158,2056,2067,2059
2050,2056,2059,2065,2114,2008,2047,2040
2051,2061,2050,2069,2092,1984,2053,2033
2056,2067,2056,2081,2098,2002,2053,2032
2049,2060,2052,2081,2106,2019,2049,2020
2050,2056,2047,2079,2117,2041,2055,2020
2048,2051,2051,2084,2141,2057,2056,2016
2050,2051,2050,2066,2125,2049,2045,2012
2049,2052,2047,2062,2101,2048,2044,2015
2045,2051,2049,2074,2145,2060,2048,2020
2051,2056,2043,2070,2170,2076,2049,2024
2057,2051,2041,2049,2088,2053,2025,2011
2036,2024,2022,2024,1966,2016,2041,2007
2035,2023,2028,2043,2009,2027,2066,2031
2055,2052,2043,2061,2041,2049,2067,2033
2055,2050,2044,2060,2077,2074,2039,2029
2042,2043,2037,2044,2060,2078,2056,2025
2033,2036,2026,2028,1994,2073,2068,2026
2032,2031,2026,2020,1977,2071,2054,2021
2026,2029,2026,2010,2004,2079,2054,2030
2033,2027,2025,2029,2024,2082,2079,2046
2040,2024,2033,2057,2041,2094,2066,2050
2036,2025,2034,2058,2057,2105,2068,2050
2036,2021,2030,2051,2049,2092,2067,2059
2035,2021,2030,2048,2037,2051,2064,2071
2047,2034,2042,2054,2052,2013,2075,2086
2047,2035,2044,2056,2033,2022,2060,2077
2055,2034,2042,2038,1979,2002,2029,2057
2023,2007,2019,2019,1954,1989,2040,2046
2023,2010,2023,2045,1990,2022,2053,2060
2043,2042,2046,2060,2034,2047,2068,2059
2045,2045,2038,2066,2052,2080,2082,2058
2052,2055,2047,2066,2065,2082,2069,2054
2052,2050,2050,2068,2094,2084,2063,2051
2046,2047,2045,2054,2062,2076,2071,2039
2052,2056,2050,2059,2061,2075,2068,2038
2050,2064,2058,2069,2073,2049,2059,2039
2052,2060,2060,2062,2038,2036,2052,2031
2056,2062,2065,2066,2038,2038,2065,2026
2055,2064,2064,2069,2091,2047,2068,2028
2054,2062,2063,2077,2131,2049,2060,2035
2058,2058,2058,2084,2136,2052,2071,2033
2065,2057,2058,2091,2116,2046,2074,2039
2058,2056,2056,2074,2084,2032,2039,2021
2043,2028,2035,2050,2040,1992,2025,2010
2031,2018,2040,2043,2012,1983,2036,2022
2051,2036,2054,2061,2009,1997,2059,2033
2056,2046,2058,2078,2061,2039,2073,2033
2052,2047,2058,2086,2083,2056,2054,2041
2048,2043,2058,2069,2052,2055,2032,2034
2052,2039,2051,2050,1999,2053,2027,2029
2054,2038,2046,2046,2007,2054,2040,2036
2053,2038,2046,2048,2017,2057,2035,2046
2046,2038,2044,2047,2018,2058,2019,2053
2040,2045,2056,2052,2048,2074,2024,2050
2039,2041,2055,2054,2079,2097,2021,2048
2041,2044,2056,2056,2093,2106,2067,2065
2045,2042,2056,2060,2087,2097,2052,2072
2046,2042,2057,2068,2074,2053,2063,2060
2041,2045,2070,2080,2094,2037,2062,2052
2030,2020,2061,2072,2108,2033,2035,2047
2025,2013,2061,2071,2118,2049,2041,2055
2043,2041,2075,2095,2135,2067,2079,2062
2049,2046,2071,2105,2126,2054,2078,2062
2051,2051,2067,2101,2106,2060,2072,2051
2045,2054,2059,2106,2097,2057,2043,2043
2047,2052,2055,2104,2081,2071,2036,2036
2045,2052,2043,2097,2059,2072,2040,2030
2043,2046,2037,2080,1952,2058,2054,2032
2041,2048,2041,2073,1977,2048,2053,2031
2044,2052,2041,2069,2024,2022,2063,2032
2037,2041,2037,2056,1984,1974,2052,2020
2036,2036,2028,2037,1956,1956,2058,2024
2042,2030,2023,2036,1950,1950,2046,2020
2039,2034,2025,2028,1966,1968,2071,2017
2042,2036,2028,2024,1967,1981,2047,2017
2034,2024,2019,2004,1947,1978,2030,2001
2028,2024,2024,1996,1952,1989,2021,2005
2036,2045,2036,2007,1974,2018,2044,2023
2052,2057,2050,2011,1978,2043,2052,2030
2045,2058,2064,2020,1998,2084,2072,2024
2046,2061,2073,2042,2083,2112,2079,2036
2061,2063,2077,2053,2154,2110,2083,2047
2056,2057,2069,2049,2146,2084,2075,2050
2056,2061,2063,2043,2107,2064,2077,2059
2053,2059,2058,2043,2071,2049,2073,2062
2056,2059,2062,2042,2068,2047,2061,2061
2044,2058,2059,2042,2072,2051,2066,2067
2050,2061,2055,2041,2058,2052,2062,2076
2051,2058,2061,2041,2040,2054,2082,2080
2047,2056,2053,2040,2048,2057,2070,2074
2047,2057,2060,2031,2045,2052,2063,2078
2051,2045,2040,2021,2015,2022,2031,2055
2021,2027,2035,2025,2035,2044,2038,2045
2035,2041,2048,2052,2092,2074,2068,2059
2046,2054,2047,2050,2068,2072,2058,2056
2052,2053,2050,2043,2067,2090,2066,2058
2048,2058,2050,2047,2073,2107,2065,2061
2050,2061,2054,2045,2072,2106,2067,2050
2052,2061,2057,2047,2053,2084,2049,2038
2053,2058,2054,2042,2040,2038,2057,2034
2057,2052,2055,2046,2050,1997,2035,2039
2059,2053,2046,2047,2056,1997,2052,2037
2054,2052,2043,2052,2058,2016,2058,2036
2046,2049,2047,2054,2054,2035,2062,2033
2051,2047,2048,2049,2061,2037,2053,2032
2050,2041,2047,2046,2064,2053,2070,2027
2049,2040,2049,2051,2064,2072,2072,2029
2048,2039,2042,2042,2052,2051,2068,2015
2030,2029,2040,2040,2045,2042,2040,2011
2028,2033,2047,2048,2065,2059,2063,2027
2051,2058,2058,2063,2066,2062,2070,2036
2048,2052,2054,2058,2062,2047,2049,2032
2050,2056,2053,2054,2059,2023,2045,2026
2049,2054,2054,2060,2058,2014,2028,2030
2045,2051,2060,2054,2049,2013,2045,2031
2045,2051,2061,2056,2052,2016,2042,2036
2050,2053,2057,2056,2059,2029,2049,2052
2043,2042,2056,2056,2060,2024,2039,2049
2043,2051,2056,2058,2061,2018,2050,2050
2044,2046,2060,2058,2058,2015,2002,2057
2035,2036,2047,2056,2059,2013,2015,2052
2036,2036,2047,2050,2055,2014,2025,2064
2031,2029,2045,2053,2059,2025,2041,2064
2036,2023,2038,2046,2049,2021,2013,2056
2017,2002,2016,2034,2044,2005,2014,2050
2021,2003,2026,2047,2054,2017,2030,2064
2041,2028,2037,2053,2057,2024,2035,2057
2038,2029,2044,2048,2066,2030,2013,2054
2037,2033,2051,2048,2061,2042,2026,2049
2034,2031,2047,2055,2058,2058,2038,2036
2034,2030,2047,2048,2057,2070,2049,2035
2030,2029,2045,2048,2061,2084,2034,2025
2025,2035,2041,2042,2049,2088,2026,2020
2037,2031,2046,2048,2055,2104,2037,2017
2045,2037,2044,2052,2066,2134,2060,2020
2047,2041,2046,2052,2065,2160,2070,2025
2049,2044,2042,2053,2070,2159,2057,2021
2048,2043,2045,2055,2069,2113,2057,2028
2052,2051,2054,2055,2072,1996,2034,2020
2061,2056,2055,2053,2054,1930,2021,2000
2035,2027,2031,2040,2046,1964,2017,2003
2028,2020,2038,2053,2060,2013,2053,2025
2049,2048,2060,2058,2059,2036,2036,2035
2051,2048,2063,2061,2061,2049,2038,2030
2049,2046,2056,2056,2054,2051,2032,2029
2046,2048,2056,2057,2054,2054,2032,2030
2040,2042,2051,2057,2058,2072,2023,2033
2042,2040,2052,2063,2058,2079,2044,2036
2036,2040,2054,2054,2058,2073,2025,2037
2040,2042,2058,2058,2057,2068,2035,2053
2046,2047,2068,2060,2055,2073,2038,2059
2046,2049,2064,2056,2058,2072,2053,2061
2043,2042,2057,2050,2052,2058,2045,2065
2036,2044,2050,2046,2046,2040,2034,2068
2042,2049,2055,2047,2044,2038,2046,2058
2037,2039,2047,2047,2050,2035,2026,2048
2024,2018,2031,2034,2039,2037,2010,2046
2023,2015,2029,2037,2043,2049,2035,2058
2039,2042,2045,2050,2050,2063,2042,2057
2039,2042,2046,2057,2051,2057,2049,2051
2044,2038,2044,2054,2054,2054,2033,2048
2041,2044,2039,2054,2048,2052,2032,2038
2039,2043,2044,2051,2051,2049,2048,2036
2045,2046,2031,2047,2046,2055,2060,2038
2044,2039,2025,2047,2052,2064,2063,2031
2040,2035,2030,2053,2056,2065,2066,2026
2045,2040,2030,2048,2052,2061,2037,2025
2041,2039,2032,2045,2043,2062,2048,2016
2035,2033,2025,2044,2033,2058,2030,2009
2025,2027,2023,2043,2036,2059,2048,2015
2034,2032,2022,2047,2043,2062,2040,2020
2034,2029,2027,2045,2037,2051,2051,2003
2021,2002,2019,2028,2027,2035,2024,2004
2020,2009,2008,2029,2034,2047,2042,2017
2036,2036,2030,2047,2048,2048,2047,2024
2047,2036,2033,2050,2047,2051,2034,2027
2046,2037,2031,2053,2047,2053,2039,2033
2048,2039,2038,2057,2052,2059,2043,2030
2044,2044,2049,2060,2054,2056,2040,2037
2042,2043,2047,2057,2055,2057,2024,2039
2043,2042,2051,2059,2055,2056,2017,2042
2040,2044,2050,2058,2054,2057,2014,2045
2040,2053,2042,2055,2052,2056,2010,2055
2046,2045,2038,2048,2049,2054,2030,2062
2038,2037,2029,2044,2044,2049,2018,2058
2035,2031,2029,2036,2045,2050,2025,2062
2028,2033,2030,2033,2052,2049,2041,2062
2034,2026,2038,2037,2039,2042,2030,2045
2019,2009,2030,2022,2031,2033,2020,2047
2020,2015,2044,2027,2030,2038,2030,2067
2040,2046,2071,2046,2041,2050,2042,2067
2050,2051,2084,2048,2039,2046,2048,2063
2049,2054,2095,2047,2053,2056,2053,2059
2047,2061,2117,2057,2052,2059,2033,2060
2057,2077,2125,2070,2055,2057,2046,2053
2063,2081,2123,2066,2061,2059,2041,2053
2067,2076,2111,2061,2053,2053,2041,2044
2058,2072,2105,2055,2054,2059,2030,2037
2054,2067,2103,2063,2060,2056,2044,2036
2059,2072,2100,2059,2053,2050,2043,2025
2060,2063,2100,2056,2056,2045,2022,2023
2052,2060,2089,2058,2058,2045,2027,2025
2050,2055,2078,2056,2057,2039,2031,2022
2050,2057,2081,2054,2055,2041,2016,2010
2030,2034,2065,2038,2037,2024,2026,2002
2029,2025,2056,2036,2031,2021,2028,2017
2046,2052,2079,2060,2046,2046,2029,2020
2052,2053,2076,2059,2047,2057,2048,2023
2046,2056,2076,2060,2046,2052,2053,2030
2045,2053,2069,2052,2045,2053,2040,2031
2044,2052,2070,2052,2036,2050,2040,2035
2045,2049,2067,2049,2045,2058,2041,2037
2044,2046,2060,2054,2047,2057,2059,2041
2044,2044,2060,2053,2052,2057,2052,2053
2044,2049,2068,2053,2051,2062,2051,2058
2047,2053,2069,2056,2059,2064,2059,2071
2046,2055,2069,2057,2054,2068,2051,2072
2051,2049,2072,2059,2051,2069,2057,2074
2045,2050,2065,2052,2053,2064,2061,2069
2048,2046,2062,2050,2042,2053,2043,2071
2026,2021,2037,2028,2020,2032,2013,2061
2018,2017,2035,2029,2023,2030,2027,2064
2047,2050,2060,2050,2036,2047,2049,2072
2045,2058,2069,2055,2046,2057,2037,2063
2052,2067,2071,2048,2035,2060,2042,2054
2049,2055,2063,2044,2034,2057,2045,2048
2040,2051,2055,2045,2035,2056,2059,2044
2044,2053,2060,2049,2040,2057,2060,2042
2051,2050,2063,2055,2047,2062,2066,2040
2050,2053,2059,2051,2045,2064,2067,2034
2049,2051,2056,2051,2053,2064,2054,2026
2051,2050,2064,2056,2056,2068,2062,2023
2050,2054,2062,2062,2067,2063,2042,2029
2048,2053,2053,2057,2062,2045,2002,2027
2041,2048,2053,2054,2046,2034,2023,2030
2047,2043,2052,2047,2054,2040,1992,2028
2028,2023,2031,2039,2039,2039,2015,2019
2027,2016,2031,2036,2044,2049,2041,2026
2040,2041,2046,2054,2055,2063,2038,2036
2037,2041,2046,2050,2050,2057,2012,2035
2041,2040,2052,2052,2053,2060,2029,2039
2046,2048,2051,2051,2055,2072,2055,2039
2044,2043,2053,2055,2053,2070,2060,2046
2046,2048,2056,2049,2051,2064,2048,2046
2044,2047,2055,2046,2047,2056,2059,2051
2044,2050,2053,2048,2055,2051,2056,2047
2049,2052,2062,2057,2065,2012,2044,2048
2042,2050,2063,2060,2063,1983,2023,2054
2047,2062,2058,2058,2070,2000,2021,2053
2046,2062,2056,2061,2056,2011,2032,2054
2040,2049,2047,2054,2042,2032,2029,2060
2039,2049,2047,2054,2037,2063,2037,2065
2028,2026,2033,2037,2023,2048,2039,2052
2024,2020,2027,2028,2031,2028,2019,2059
2032,2036,2043,2047,2045,2044,2039,2066
2045,2046,2043,2047,2044,2065,2033,2058
2039,2046,2042,2046,2043,2076,2044,2052
2038,2043,2044,2050,2052,2096,2058,2051
2045,2052,2050,2050,2056,2111,2074,2049
2043,2048,2043,2045,2055,2118,2060,2043
2046,2044,2042,2043,2053,2086,2051,2032
2045,2037,2039,2041,2050,2039,2023,2031
2045,2040,2040,2038,2049,2045,2041,2033
2043,2047,2039,2043,2056,2066,2050,2035
2041,2051,2045,2042,2057,2072,2050,2034
2052,2055,2041,2043,2060,2065,2036,2029
2043,2053,2036,2043,2066,2063,2054,2028
2046,2054,2037,2049,2071,2064,2041,2025
2038,2040,2027,2035,2057,2050,2024,2018
2028,2025,2016,2031,2052,2042,2022,2017
2032,2047,2030,2044,2059,2048,2059,2034
2049,2049,2034,2045,2047,2041,2055,2039
2046,2047,2037,2052,2041,2037,2048,2031
2040,2052,2038,2045,2042,2037,2038,2034
2043,2049,2043,2049,2036,2029,2050,2037
2042,2050,2046,2048,2035,2000,2035,2036
2040,2048,2044,2050,2035,1985,2024,2038
2034,2044,2050,2058,2043,1996,2034,2039
2042,2042,2050,2050,2048,2017,2048,2041
2039,2036,2046,2048,2043,2019,2031,2047
2032,2031,2041,2052,2041,2016,2034,2048
2033,2030,2044,2045,2039,2014,2031,2058
2040,2034,2049,2049,2042,2006,2034,2061
2041,2034,2057,2051,2044,2000,2031,2058
2039,2030,2037,2037,2034,1987,2016,2055
2019,2005,2027,2030,2030,1992,2002,2050
2026,2026,2037,2041,2036,2013,2024,2067
2052,2047,2049,2044,2044,2021,2033,2062
2045,2049,2047,2038,2041,2033,2011,2058
2048,2054,2043,2036,2037,2036,2019,2056
2053,2053,2044,2038,2037,2038,2016,2049
2057,2046,2044,2038,2037,2037,2037,2038
2052,2050,2045,2040,2035,2040,2047,2046
2053,2048,2060,2039,2038,2056,2051,2050
2051,2054,2057,2043,2048,2062,2032,2046
2056,2058,2060,2043,2046,2076,2050,2037
2056,2058,2066,2050,2043,2083,2032,2039
2051,2054,2058,2051,2047,2079,2054,2034
2056,2055,2058,2053,2052,2078,2051,2040
2052,2055,2059,2054,2060,2073,2048,2037
2049,2055,2058,2049,2049,2042,2018,2017
2030,2021,2035,2040,2035,2034,2036,2016
2036,2022,2051,2043,2044,2044,2055,2033
2059,2048,2057,2050,2043,2030,2068,2035
2052,2044,2052,2052,2042,2028,2053,2037
2047,2047,2052,2054,2054,2049,2061,2040
2050,2049,2056,2054,2057,2067,2085,2051
2054,2048,2059,2054,2061,2076,2062,2042
2046,2042,2049,2052,2073,2082,2047,2051
2046,2044,2045,2049,2062,2081,2055,2049
2040,2037,2040,2044,2069,2095,2063,2049
2039,2041,2037,2051,2069,2108,2067,2057
2045,2049,2049,2062,2062,2134,2093,2072
2047,2043,2052,2063,2061,2162,2087,2084
2047,2040,2040,2058,2054,2175,2066,2077
2053,2042,2041,2055,2043,2145,2057,2088
2056,2047,2040,2054,2021,2043,2023,2066
2039,2029,2032,2031,1999,1936,1981,2055
2036,2029,2032,2040,2010,1974,2033,2073
2059,2057,2051,2052,2034,2047,2058,2082
2055,2058,2054,2055,2047,2073,2060,2071
2060,2055,2045,2043,2049,2081,2059,2062
2050,2050,2044,2042,2040,2060,2051,2056
2048,2050,2046,2037,2032,2045,2051,2041
2054,2047,2051,2039,2029,2034,2024,2038
2054,2051,2054,2040,2034,2025,2036,2026
2049,2046,2058,2034,2034,2018,2037,2020
2050,2046,2048,2030,2032,2016,2008,2021
2045,2047,2052,2018,2021,2010,2008,2015
2049,2048,2050,2011,2015,2002,2023,2010
2040,2039,2050,2005,2014,2010,2020,2018
2046,2046,2056,2015,2022,2035,2034,2023
2048,2043,2042,2011,2014,2030,2018,2012
2031,2022,2015,2002,2016,2033,2009,2016
2027,2013,2020,2015,2019,2036,2042,2031
2053,2039,2031,2022,2014,2025,2023,2035
2053,2038,2034,2027,2008,2013,2026,2039
2057,2048,2041,2026,2010,2006,2064,2045
2055,2052,2053,2029,2009,2010,2041,2044
2056,2062,2061,2044,2042,2027,2043,2058
2060,2068,2074,2065,2072,2051,2059,2063
2061,2069,2076,2070,2074,2051,2067,2055
2060,2066,2077,2064,2064,2055,2061,2061
2059,2058,2071,2061,2043,2053,2065,2065
2053,2056,2068,2055,2038,2050,2064,2069
2053,2054,2068,2045,2032,2053,2066,2069
2055,2053,2065,2040,2039,2048,2068,2076
2050,2055,2062,2047,2051,2039,2047,2080
2058,2053,2054,2045,2035,2034,2040,2063
2031,2027,2036,2032,2035,2031,2040,2059
2030,2036,2046,2046,2056,2050,2043,2071
2052,2051,2048,2045,2068,2047,2052,2068
2048,2051,2048,2049,2065,2059,2052,2064
2058,2046,2043,2044,2060,2068,2066,2058
2056,2046,2039,2045,2071,2064,2074,2056
2052,2049,2037,2052,2080,2067,2065,2045
2054,2044,2040,2053,2072,2055,2049,2043
2052,2048,2046,2053,2065,2055,2053,2046
2061,2044,2043,2050,2061,2062,2052,2036
2058,2045,2044,2057,2063,2062,2043,2028
2055,2043,2040,2051,2057,2066,2054,2032
2053,2038,2039,2046,2056,2062,2056,2031
2053,2035,2037,2046,2043,2068,2062,2028
2052,2042,2038,2048,2047,2071,2061,2025
2051,2038,2032,2027,2031,2042,2032,2019
2038,2019,2028,2025,2024,2030,2047,2018
2034,2034,2043,2042,2040,2062,2066,2030
2056,2045,2053,2043,2044,2060,2060,2034
2044,2042,2056,2040,2044,2058,2046,2035
2052,2041,2050,2042,2042,2064,2060,2040
2042,2043,2049,2047,2043,2065,2064,2045
2044,2038,2060,2054,2042,2057,2067,2046
2046,2038,2068,2058,2035,2058,2068,2044
2040,2045,2074,2064,2037,2065,2081,2050
2045,2045,2076,2070,2046,2073,2068,2059
2046,2045,2080,2071,2058,2073,2076,2068
2043,2040,2069,2068,2043,2068,2069,2065
2042,2036,2056,2064,2035,2054,2062,2072
2045,2037,2044,2059,2025,2047,2060,2076
2049,2035,2024,2049,2020,2051,2049,2077
2046,2022,2011,2032,2009,2031,2034,2054
2030,2015,1999,2020,1992,2018,2029,2049
2031,2033,2007,2037,2034,2041,2055,2068
2046,2043,2016,2029,2044,2040,2053,2070
2040,2043,2021,2022,2010,2034,2065,2062
2045,2044,2027,2015,1982,2026,2054,2064
2048,2037,2034,2005,1970,2016,2041,2056
2050,2045,2026,1978,1958,2001,2042,2045
2038,2038,2022,1979,1992,2011,2044,2042
2043,2045,2039,2006,2039,2023,2073,2052
2059,2056,2055,2022,2092,2040,2079,2050
2064,2058,2075,2040,2120,2069,2097,2045
2067,2058,2079,2044,2128,2091,2081,2044
2062,2050,2065,2045,2105,2079,2080,2038
2049,2049,2054,2035,2073,2074,2090,2037
2052,2044,2048,2033,2057,2062,2080,2036
2047,2028,2031,2020,2035,2049,2065,2015
2024,2013,2021,2014,2029,2053,2053,2014
2027,2024,2036,2025,2026,2076,2070,2027
2040,2036,2039,2019,2017,2065,2060,2017
2040,2037,2040,2020,2004,2067,2051,2027
2036,2036,2042,2017,2001,2042,2050,2031
2040,2034,2044,2024,2008,2016,2051,2041
2047,2052,2056,2045,2047,1998,2057,2049
2052,2067,2082,2060,2100,2011,2065,2052
2060,2066,2086,2073,2110,2024,2050,2060
2057,2063,2076,2068,2103,2034,2072,2077
2056,2058,2077,2062,2086,2030,2068,2077
2053,2053,2070,2056,2072,2038,2088,2087
2046,2050,2064,2053,2055,2039,2075,2082
2045,2042,2066,2041,2047,2030,2084,2082
2043,2040,2059,2038,2046,2034,2071,2086
2038,2031,2051,2033,2035,2016,2058,2077
2034,2024,2051,2032,2046,2036,2052,2076
2055,2052,2064,2051,2064,2081,2078,2085
2057,2054,2063,2056,2068,2110,2094,2085
2060,2055,2064,2043,2059,2138,2080,2079
2056,2051,2057,2039,2059,2168,2073,2057
2056,2054,2058,2041,2050,2122,2042,2057
2054,2056,2058,2046,2028,2034,2054,2054
2053,2061,2058,2053,2068,2045,2061,2041
2050,2059,2060,2055,2088,2066,2061,2023
2050,2052,2062,2052,2074,2062,2047,2028
2050,2048,2056,2043,2063,2033,2041,2029
2043,2048,2061,2052,2020,2016,2033,2027
2036,2053,2061,2057,2027,1994,2050,2038
2049,2060,2062,2067,2062,2012,2052,2044
2054,2058,2064,2055,2044,2032,2038,2038
2041,2033,2036,2023,1976,2011,2020,2027
2029,2027,2030,2025,2004,2032,2026,2032
2042,2043,2045,2045,2035,2062,2056,2047
2055,2044,2047,2045,2039,2060,2032,2049
2052,2045,2050,2047,2078,2069,2029,2049
2051,2047,2050,2050,2122,2078,2052,2051
2051,2052,2050,2053,2146,2080,2064,2057
2054,2045,2047,2058,2152,2061,2070,2047
2050,2048,2049,2058,2155,2045,2078,2052
2047,2055,2052,2058,2152,2036,2058,2061
2050,2043,2046,2054,2142,2023,2066,2066
2050,2044,2036,2052,2125,2024,2054,2067
2050,2036,2039,2046,2081,2028,2053,2069
2044,2033,2032,2034,1950,2026,2038,2068
2042,2028,2028,2025,1928,2038,2029,2069
2038,2030,2029,2039,1974,2044,2039,2063
2025,2013,2020,2027,1979,2025,2027,2058
2024,2007,2011,2027,1996,2031,2019,2060
2036,2028,2031,2041,2010,2048,2045,2074
2043,2032,2038,2035,2021,2050,2049,2075
2046,2035,2044,2042,2034,2053,2054,2061
2042,2042,2049,2040,2035,2054,2045,2056
2046,2039,2048,2043,2034,2053,2057,2056
2043,2042,2047,2043,2042,2047,2041,2050
2050,2044,2047,2041,2040,2039,2049,2043
2043,2046,2055,2042,2039,2056,2058,2044
2046,2044,2053,2042,2047,2074,2075,2050
2050,2045,2058,2050,2045,2083,2092,2049
2055,2052,2062,2047,2037,2090,2088,2051
2057,2055,2064,2044,2035,2083,2075,2042
2047,2062,2063,2045,2034,2084,2074,2043
2059,2064,2066,2053,2027,2060,2056,2035
2056,2056,2060,2034,2011,2009,2017,2023
2038,2041,2052,2029,2011,2004,2007,2024
2044,2058,2068,2042,2027,2027,2040,2048
2053,2060,2066,2041,2011,2022,2042,2049
2055,2067,2070,2039,1999,2028,2026,2052
2055,2078,2073,2037,1998,2025,2026,2058
2064,2078,2069,2036,2000,2018,2028,2052
2046,2075,2064,2030,2018,2037,2029,2052
2049,2077,2065,2045,2057,2063,2048,2053
2058,2074,2069,2055,2069,2050,2067,2057
2057,2067,2063,2056,2074,2051,2063,2057
2058,2059,2060,2054,2084,2059,2046,2066
2050,2054,2055,2052,2067,2049,2041,2076
2047,2053,2049,2040,2060,2042,2031,2070
2051,2041,2042,2042,2051,2045,2053,2071
2046,2040,2037,2044,2050,2046,2024,2071
2047,2027,2021,2024,2036,2035,2014,2056
2030,2009,2018,2024,2043,2038,2020,2060
2039,2022,2026,2036,2055,2054,2044,2074
2052,2037,2037,2042,2060,2050,2037,2073
2061,2037,2035,2043,2048,2055,2043,2071
2059,2030,2036,2045,2046,2051,2044,2062
2061,2035,2035,2045,2047,2044,2042,2062
2062,2034,2037,2046,2039,2038,2054,2056
2051,2030,2044,2041,2037,2044,2062,2048
2051,2028,2042,2047,2046,2042,2052,2036
2042,2023,2036,2044,2045,2047,2039,2028
2040,2031,2042,2046,2054,2055,2070,2033
2042,2047,2042,2046,2057,2063,2075,2036
2040,2053,2037,2043,2048,2058,2067,2033
2037,2054,2045,2044,2044,2055,2068,2036
2051,2068,2045,2044,2041,2056,2062,2034
2044,2062,2036,2036,2035,2031,2036,2024
2030,2042,2028,2037,2032,2023,2032,2017
2034,2051,2041,2051,2055,2035,2044,2043
2057,2062,2047,2055,2059,2037,2036,2045
2051,2061,2054,2059,2056,2036,2051,2056
2056,2060,2055,2060,2046,2024,2054,2056
2055,2056,2054,2047,2013,2005,2033,2060
2062,2060,2050,2044,1998,1997,2042,2062
2063,2049,2052,2040,1987,1990,2049,2058
2052,2037,2044,2034,1985,1995,2039,2055
2053,2036,2053,2049,2018,2015,2067,2067
2062,2039,2057,2058,2055,2057,2082,2074
2060,2038,2052,2051,2049,2109,2072,2074
2049,2031,2046,2047,2032,2129,2075,2068
2049,2026,2035,2029,2003,2128,2063,2059
2043,2025,2028,2021,1976,2106,2051,2066
2047,2024,2029,2021,1968,2025,2025,2067
2040,2010,2025,2030,2005,1960,2034,2082
2049,2026,2040,2058,2073,1996,2063,2090
2064,2059,2052,2067,2095,2042,2058,2093
2064,2052,2046,2064,2092,2069,2060,2075
2064,2050,2048,2057,2084,2075,2080,2069
2057,2050,2045,2056,2080,2072,2055,2060
2051,2048,2038,2048,2057,2063,2057,2052
2057,2045,2037,2042,2059,2064,2065,2051
2057,2045,2039,2052,2059,2070,2050,2050
2057,2050,2042,2049,2049,2070,2049,2037
2057,2046,2045,2054,2057,2068,2061,2036
2053,2046,2041,2054,2058,2065,2045,2032
2048,2049,2039,2047,2050,2058,2051,2029
2044,2044,2039,2045,2054,2055,2044,2027
2047,2042,2038,2048,2062,2059,2044,2028
2046,2032,2041,2047,2050,2064,2024,2021
2038,2017,2027,2029,2032,2072,2032,2012
2027,2012,2026,2039,2041,2081,2067,2028
2048,2045,2046,2045,2035,2082,2062,2032
2055,2051,2042,2049,2033,2056,2047,2045
2056,2056,2043,2046,2045,2022,2030,2050
2059,2054,2039,2047,2059,2018,2020,2052
2062,2058,2040,2056,2066,2031,2043,2055
2065,2056,2040,2057,2063,2035,2027,2064
2061,2060,2038,2053,2061,2043,2037,2067
2055,2055,2034,2055,2068,2050,2037,2066
2054,2054,2031,2052,2063,2058,2060,2067
2054,2043,2024,2047,2068,2045,2048,2074
2050,2046,2034,2043,2056,2048,2040,2081
2051,2043,2035,2052,2049,2058,2042,2083
2051,2046,2042,2055,2046,2058,2035,2085
2056,2046,2038,2044,2037,2035,2036,2072
2040,2026,2024,2035,2037,2038,2049,2067
2038,2021,2021,2041,2035,2053,2081,2076
2062,2046,2037,2056,2042,2065,2064,2073
2066,2039,2040,2056,2044,2054,2072,2061
2056,2035,2043,2056,2040,2046,2055,2057
2054,2035,2043,2065,2035,2047,2024,2047
2053,2029,2047,2066,2031,2035,2041,2053
2049,2035,2044,2060,1997,2031,2044,2037
2058,2043,2055,2061,1986,2048,2036,2039
2061,2050,2052,2063,2025,2057,2033,2038
2057,2056,2054,2065,2025,2060,2024,2030
2059,2057,2055,2063,2021,2043,2041,2034
2065,2051,2051,2059,2014,2019,2038,2033
2059,2040,2033,2048,1998,2006,2038,2033
2047,2048,2032,2039,2031,2020,2046,2027
2054,2047,2035,2030,2086,2037,2043,2019
2038,2028,2016,2013,2054,2017,2033,2026
2034,2027,2020,2006,2025,2015,2024,2038
2049,2051,2040,2013,2035,2023,2033,2038
2052,2052,2046,2020,2036,2035,2052,2042
2051,2049,2054,2030,2045,2037,2048,2058
2054,2049,2063,2041,2066,2044,2045,2055
2057,2054,2075,2056,2078,2053,2056,2057
2059,2053,2080,2059,2081,2062,2056,2055
2053,2050,2080,2061,2061,2054,2040,2060
2052,2053,2079,2055,2010,2040,2044,2068
2061,2055,2077,2040,1993,2033,2029,2069
2066,2056,2084,2037,1999,2017,2050,2071
2059,2062,2080,2047,2033,2016,2042,2080
2060,2071,2091,2084,2099,2051,2071,2090
2071,2070,2088,2093,2135,2064,2053,2087
2066,2063,2065,2074,2104,2037,2038,2069
2038,2031,2040,2049,2085,2032,2032,2072
2039,2031,2040,2049,2080,2038,2045,2084
2051,2047,2037,2037,2061,2046,2034,2080
2055,2045,2033,2040,2060,2061,2039,2066
2058,2052,2036,2038,2060,2069,2047,2063
2053,2066,2044,2028,2064,2078,2062,2058
2060,2066,2041,2014,2057,2066,2046,2056
2066,2069,2038,2010,2046,2047,2052,2058
2067,2074,2042,2017,2028,2033,2054,2045
2067,2072,2047,2019,2019,2028,2047,2040
2063,2065,2045,2028,2032,2032,2048,2027
2059,2059,2038,2019,2038,2044,2046,2034
2052,2053,2043,2028,2044,2048,2051,2034
2049,2054,2036,2029,2058,2053,2055,2039
2052,2058,2045,2043,2069,2057,2071,2038
2059,2057,2046,2040,2048,2041,2044,2029
2036,2035,2036,2032,2052,2042,2050,2030
2039,2043,2042,2052,2073,2063,2063,2046
2059,2063,2053,2052,2070,2055,2065,2044
2062,2060,2044,2049,2065,2051,2066,2045
2060,2060,2042,2046,2061,2046,2062,2052
2059,2052,2039,2049,2059,2039,2073,2051
2045,2047,2032,2040,2045,2040,2044,2047
2043,2048,2033,2030,2028,2040,2053,2048
2042,2040,2032,2037,2058,2045,2047,2054
2049,2035,2023,2031,2091,2050,2041,2060
2036,2023,2010,2015,2116,2058,2051,2054
2039,2021,2015,2037,2162,2079,2057,2067
2043,2031,2032,2056,2192,2084,2069,2079
2050,2037,2036,2059,2183,2078,2063,2082
2051,2045,2033,2065,2169,2088,2065,2089
2057,2036,2031,2053,2134,2058,2055,2081
2037,2018,2021,2045,2102,2046,2059,2072
2041,2034,2039,2056,2027,2052,2049,2083
2061,2048,2049,2051,1937,2044,2068,2080
2054,2046,2051,2050,1965,2047,2062,2072
2052,2040,2043,2048,1987,2054,2050,2064
2051,2035,2041,2044,1967,2064,2043,2060
2045,2034,2042,2041,2001,2065,2036,2056
2051,2038,2039,2051,2030,2067,2040,2057
2054,2031,2051,2054,2043,2070,2041,2050
2049,2041,2052,2050,2029,2070,2036,2046
2050,2042,2047,2042,2020,2070,2022,2040
2049,2033,2037,2043,2036,2074,2035,2037
2051,2034,2031,2049,2076,2072,2018,2039
2042,2030,2016,2050,2052,2047,2024,2042
2046,2029,2025,2041,2047,2049,2063,2047
2063,2046,2041,2046,2021,2034,2048,2042
2046,2028,2035,2050,1980,2040,2030,2041
2046,2029,2045,2060,1983,2054,2076,2046
2062,2046,2055,2056,1996,2031,2051,2041
2052,2047,2057,2057,1988,2017,2056,2038
2045,2050,2056,2069,2013,2034,2049,2043
2043,2049,2056,2080,2047,2047,2067,2044
2050,2054,2049,2081,2061,2043,2041,2056
2043,2052,2055,2083,2083,2033,2049,2054
2051,2057,2056,2089,2076,2037,2052,2061
2048,2069,2068,2090,2077,2036,2044,2070
2054,2068,2074,2083,2047,2041,2023,2068
2063,2072,2071,2079,2050,2060,2037,2079
2060,2067,2063,2070,2066,2058,2047,2075
2052,2059,2058,2055,2057,2037,2037,2077
2044,2055,2055,2046,2038,2017,2041,2079
2046,2046,2045,2019,1990,1986,2018,2061
2024,2014,2020,1983,1895,1961,2005,2046
2013,2005,2021,1979,1896,1968,2014,2050
2028,2034,2065,2018,1970,1989,2019,2048
2044,2047,2089,2044,2018,2009,2040,2059
2053,2058,2093,2065,2056,2033,2033,2065
2059,2064,2091,2079,2102,2058,2046,2062
2062,2063,2082,2078,2084,2072,2066,2060
2059,2061,2070,2064,2008,2068,2074,2055
2068,2062,2064,2058,1993,2075,2060,2057
2072,2062,2057,2056,2010,2088,2029,2051
2065,2060,2050,2054,2013,2103,2061,2045
2064,2054,2037,2040,2020,2114,2042,2042
2054,2041,2030,2036,1996,2102,2033,2042
2046,2036,2027,2039,1963,2034,2029,2038
2047,2033,2041,2043,1981,2001,2047,2038
2049,2035,2052,2046,2030,2000,2028,2025
2025,2007,2030,2023,1980,1999,2016,2020
2025,2018,2032,2020,2056,2018,2030,2046
2057,2050,2059,2052,2148,2035,2040,2048
2054,2053,2044,2046,2230,2063,2042,2036
2049,2046,2032,2033,2271,2103,2026,2035
2047,2040,2019,2041,2299,2119,2021,2042
2050,2049,2010,2048,2298,2110,2043,2054
2058,2056,2014,2054,2316,2087,2033,2062
2062,2067,2035,2064,2311,2062,2042,2073
2069,2067,2038,2065,2312,2063,2072,2092
2068,2064,2035,2044,2233,2039,2068,2088
2060,2050,2022,2007,1921,1979,2058,2086
2057,2039,2015,1990,1739,1944,2032,2074
2048,2034,2017,2007,1777,1935,2026,2082
2049,2031,2034,2023,1812,1941,2040,2077
2052,2039,2054,2039,1857,1949,2024,2066
2029,2029,2048,2046,1900,1956,1993,2056
2027,2030,2041,2056,1984,1990,2011,2068
2043,2058,2060,2071,2052,2033,2030,2067
2051,2058,2064,2071,2068,2064,2026,2068
2059,2062,2064,2073,2052,2080,2025,2070
2060,2058,2067,2068,2015,2080,2013,2070
2067,2064,2064,2069,2014,2090,2035,2068
2062,2060,2055,2070,2043,2099,2020,2066
2059,2056,2044,2055,2037,2093,2041,2052
2058,2054,2040,2036,1975,2087,2040,2052
2060,2053,2038,2046,2005,2104,2060,2046
2053,2058,2039,2055,2015,2091,2061,2036
2047,2052,2028,2038,2002,2071,2040,2027
2043,2039,2023,2023,2003,2046,2020,2021
2046,2044,2026,2032,2048,2060,2060,2028
2044,2043,2036,2042,2061,2040,2058,2026
2025,2024,2023,2030,2043,2004,2029,2025
2030,2015,2022,2033,2058,1994,2021,2041
2056,2053,2050,2059,2081,1997,2042,2051
2065,2061,2064,2064,2072,2020,2043,2047
2071,2065,2064,2065,2047,2041,2076,2058
2077,2060,2069,2071,2026,2035,2054,2061
2080,2067,2074,2080,2028,2035,2044,2065
2076,2063,2068,2074,2027,2013,2056,2067
2065,2047,2053,2056,1980,1985,2060,2057
2054,2036,2040,2029,1962,1978,2062,2062
2049,2024,2022,2020,1898,1994,2056,2069
2042,2026,2008,2009,1870,2054,2058,2063
2040,2019,2006,2030,1988,2073,2040,2073
2038,2027,2017,2059,2053,2056,2067,2092
2054,2040,2026,2083,2087,2092,2083,2093
2053,2050,2031,2084,2133,2157,2069,2078
2034,2030,2018,2056,2153,2158,2047,2053
2028,2018,2008,2037,2124,2121,2032,2051
2032,2038,2026,2040,2110,2033,2035,2065
2038,2050,2036,2042,2115,2011,2046,2066
2038,2052,2041,2055,2129,2058,2054,2072
2047,2055,2044,2056,2119,2073,2051,2064
2051,2061,2040,2044,2097,2059,2037,2058
2056,2067,2047,2050,2096,2047,2029,2057
2059,2064,2048,2052,2064,2015,2023,2048
2049,2057,2050,2048,2037,2001,2032,2052
2050,2061,2052,2067,2030,2018,2058,2045
2045,2062,2063,2072,2024,2047,2051,2045
2047,2058,2070,2078,2033,2053,2059,2044
2049,2057,2067,2069,2038,2068,2052,2036
2046,2051,2065,2069,2053,2054,2040,2035
2047,2056,2070,2058,2029,2040,2034,2031
2049,2051,2061,2037,1994,2021,2025,2016
2035,2032,2051,2023,1983,2025,2007,2022
2029,2036,2062,2027,1983,2036,2047,2038
2052,2057,2062,2022,1973,2041,2045,2042
2055,2057,2057,2028,1982,2017,2027,2054
2059,2061,2060,2037,2000,2003,2042,2054
2059,2060,2060,2045,2028,2009,2050,2049
2059,2066,2051,2042,2024,2018,2038,2048
2060,2055,2047,2040,2048,2019,2033,2050
2051,2057,2041,2058,2096,2032,2027,2051
2044,2054,2052,2065,2133,2045,2043,2053
2047,2056,2058,2071,2174,2080,2037,2067
2053,2060,2046,2048,2142,2108,2050,2075
2054,2052,2035,2031,2105,2114,2040,2075
2046,2053,2029,2032,2102,2121,2039,2072
2045,2043,2030,2048,2105,2123,2050,2077
2045,2045,2037,2063,2109,2084,2048,2066
2028,2018,2018,2047,2085,2004,2024,2078
2022,2010,2006,2035,2013,2011,2026,2079
2028,2030,2018,2026,1979,2018,2026,2069
2032,2038,2026,2018,1966,2003,2021,2054
2029,2042,2021,2011,1990,2005,2030,2049
2036,2042,2034,2040,2039,2018,2039,2049
2040,2042,2041,2058,2031,2038,2064,2058
2041,2044,2048,2056,2025,2040,2048,2054
2050,2052,2041,2063,2067,2049,2054,2050
2052,2055,2051,2063,2078,2039,2056,2052
2052,2053,2050,2068,2149,2043,2053,2049
2056,2054,2051,2069,2187,2045,2041,2048
2054,2054,2050,2067,2169,2044,2045,2045
2060,2045,2050,2059,2118,2036,2030,2037
2056,2044,2038,2034,2039,2028,2030,2031
2052,2042,2034,2027,2013,2027,2025,2034
2050,2036,2024,2023,2053,2021,2031,2033
2040,2026,2021,2018,1983,2019,2044,2037
2037,2038,2031,2013,1908,2042,2071,2040
2053,2046,2041,2024,1951,2075,2067,2040
2040,2039,2038,2062,2072,2105,2077,2038
2049,2046,2051,2088,2118,2110,2063,2046
2049,2052,2059,2080,2070,2079,2050,2058
2059,2057,2058,2060,2053,2055,2041,2064
2064,2054,2048,2055,2054,2048,2058,2063
2057,2047,2041,2053,2024,2042,2040,2062
2050,2039,2041,2060,1998,2041,2042,2062
2047,2033,2037,2072,2044,2053,2032,2062
2037,2036,2036,2083,2076,2060,2056,2070
2037,2042,2053,2079,2067,2049,2039,2080
2050,2047,2051,2073,2037,2035,2045,2088
2047,2049,2049,2060,2005,2020,2037,2086
2049,2043,2037,2048,1995,1996,2019,2070
2036,2023,2024,2037,2015,2000,2029,2061
2036,2016,2029,2039,2024,2021,2062,2075
2049,2042,2039,2052,2070,2045,2066,2064
2050,2049,2046,2068,2103,2062,2062,2056
2050,2049,2051,2067,2060,2052,2062,2068
2054,2052,2046,2052,1982,2048,2051,2063
2065,2056,2049,2041,1943,2040,2040,2064
2064,2048,2041,2030,1921,2021,2044,2057
2052,2043,2033,2011,1873,2014,2045,2045
2042,2039,2032,2015,1914,2036,2035,2031
2040,2056,2044,2033,1971,2070,2056,2035
2046,2069,2052,2033,2007,2092,2050,2037
2050,2058,2052,2049,2107,2130,2073,2042
2055,2055,2043,2061,2225,2145,2063,2033
2046,2050,2040,2072,2307,2151,2063,2033
2042,2048,2042,2100,2340,2150,2061,2016
2031,2032,2033,2093,2267,2086,2045,2007
2030,2025,2024,2074,2172,2040,2014,2018
2045,2043,2034,2065,2095,2034,2033,2015
2055,2049,2044,2050,1982,2004,2032,2016
2054,2052,2046,2049,1935,1968,2012,2026
2050,2051,2046,2065,1971,1995,2038,2042
2049,2064,2056,2079,2032,2009,2047,2048
2051,2062,2054,2082,2033,2007,2028,2055
2043,2064,2057,2068,1953,2018,2060,2051
2049,2060,2050,2055,1954,2050,2046,2056
2042,2050,2040,2070,2047,2086,2057,2062
2048,2049,2035,2082,2108,2111,2069,2068
2044,2052,2037,2091,2143,2118,2059,2066
2046,2043,2035,2078,2090,2104,2048,2065
2046,2039,2038,2059,2014,2080,2047,2070
2052,2048,2045,2058,2043,2050,2055,2066
2044,2042,2040,2051,2034,2053,2031,2055
2025,2030,2036,2057,2061,2082,2040,2061
2027,2038,2045,2063,2093,2108,2069,2077
2044,2049,2043,2054,2042,2087,2052,2067
2050,2051,2042,2063,2038,2070,2057,2070
2052,2058,2048,2070,1984,2075,2057,2065
2058,2062,2051,2058,1910,2063,2023,2057
2053,2051,2037,2032,1962,2048,2015,2040
2038,2039,2032,2030,2033,2062,2019,2030
2036,2031,2018,2028,2028,2037,2012,2016
2025,2020,2028,2038,2041,1969,2040,2021
2030,2032,2038,2056,2084,1969,2042,2026
2027,2028,2030,2064,2133,2001,2044,2024
2029,2032,2027,2070,2158,2026,2042,2015
2028,2027,2022,2077,2159,2020,2053,2019
2034,2029,2024,2068,2122,2016,2043,2019
2028,2032,2022,2057,2108,2020,2038,2009
2013,2006,2011,2027,1972,2002,2012,2008
2009,1998,1998,2010,1890,2015,2041,2012
2021,2022,2013,2057,2045,2046,2041,2020
2029,2025,2015,2071,2084,2049,2049,2019
2031,2013,2016,2066,2095,2043,2052,2032
2022,2016,2016,2060,2088,2048,2047,2033
2035,2025,2022,2058,2087,2041,2055,2043
2035,2031,2032,2070,2131,2047,2059,2052
2044,2037,2052,2078,2163,2041,2060,2073
2052,2051,2062,2086,2182,2041,2061,2081
2062,2067,2070,2092,2212,2044,2071,2090
2064,2070,2074,2091,2224,2042,2064,2092
2060,2064,2064,2082,2168,2028,2032,2090
2053,2052,2055,2071,2168,2015,2039,2091
2051,2046,2047,2062,2151,2011,2042,2092
2044,2049,2049,2053,2007,1994,2023,2078
2037,2034,2041,2025,1892,1964,1991,2071
2037,2037,2041,2031,1928,1996,1967,2079
2047,2065,2069,2068,1998,2046,2005,2085
2061,2082,2084,2069,1956,2052,2008,2088
2058,2085,2080,2039,1885,2036,2017,2072
2063,2075,2069,2035,1909,2056,2026,2063
2056,2068,2072,2054,2003,2071,2025,2040
2049,2059,2058,2060,2040,2060,2033,2030
2036,2041,2049,2056,2083,2061,2048,2021
2037,2046,2058,2065,2113,2067,2061,2022
2044,2053,2056,2073,2127,2084,2061,2022
2044,2054,2051,2073,2120,2110,2046,2035
2051,2054,2050,2064,2088,2106,2063,2042
2052,2060,2039,2053,2057,2086,2065,2043
2051,2054,2042,2057,2021,2075,2066,2048
2054,2061,2053,2064,2024,2080,2077,2050
2059,2059,2043,2054,2016,2077,2071,2040
2042,2037,2037,2058,2025,2088,2065,2039
2039,2038,2049,2067,2042,2069,2084,2051
2056,2057,2057,2065,2040,2036,2066,2038
2052,2049,2060,2063,2042,2019,2066,2036
2057,2049,2053,2062,2037,2029,2035,2031
2053,2053,2050,2063,2032,2021,2027,2034
2052,2051,2052,2053,2032,2022,2025,2050
2048,2049,2043,2049,2037,2029,2036,2063
2051,2053,2047,2050,2046,2048,2038,2058
2047,2045,2052,2051,2056,2048,2032,2044
2032,2042,2049,2047,2046,2041,2023,2044
2027,2042,2052,2049,2045,2039,2034,2060
2033,2038,2047,2054,2053,2050,2033,2068
2039,2044,2049,2057,2054,2060,2032,2075
2044,2054,2053,2060,2066,2074,2035,2073
2048,2060,2044,2050,2062,2077,2058,2051
2025,2027,2029,2047,2046,2076,2029,2053
2023,2031,2043,2062,2058,2089,2037,2064
2047,2055,2052,2065,2061,2084,2028,2072
2046,2060,2062,2062,2063,2055,2021,2075
2047,2057,2060,2070,2077,2053,2049,2063
2053,2058,2059,2066,2068,2056,2046,2056
2049,2050,2054,2057,2051,2049,2051,2045
2053,2056,2052,2055,2020,2055,2028,2051
2053,2063,2066,2054,1994,2049,2019,2047
2056,2066,2074,2054,1964,2050,2041,2044
2060,2065,2071,2047,1962,2054,2042,2030
2051,2053,2058,2030,1929,2052,2031,2033
2046,2058,2059,2035,1918,2050,2026,2033
2049,2048,2057,2041,1929,2048,2036,2035
2046,2052,2064,2055,1975,2063,2038,2033
2043,2046,2060,2050,2013,2076,2005,2021
2031,2031,2045,2044,2047,2133,2006,2017
2035,2037,2059,2071,2112,2150,2032,2042
2060,2070,2080,2107,2165,2118,2076,2050
2073,2082,2084,2109,2177,2038,2062,2051
2066,2075,2073,2096,2119,2043,2064,2042
2070,2074,2061,2090,2072,2036,2065,2039
2061,2064,2063,2084,2059,2060,2054,2038
2061,2063,2059,2082,2000,2066,2056,2044
2053,2050,2054,2065,1983,2071,2058,2047
2053,2053,2059,2072,2014,2078,2050,2060
2058,2056,2067,2076,2001,2041,2061,2072
2066,2070,2076,2088,2008,1989,2048,2071
2055,2055,2054,2031,1841,1968,2044,2050
2029,2036,2032,1996,1920,1978,2019,2042
2018,2031,2029,2004,2068,2016,2017,2036
2015,2017,2017,2019,2147,2049,2022,2038
2008,2016,2017,2064,2274,2073,2041,2052
2021,2029,2036,2077,2224,2072,2042,2065
2053,2043,2047,2075,2201,2049,2035,2069
2052,2046,2048,2060,2149,2040,2039,2068
2060,2054,2051,2059,2106,2046,2060,2074
2062,2057,2056,2066,2084,2073,2057,2052
2051,2049,2050,2049,2039,2104,2052,2037
2042,2044,2045,2034,1985,2120,2030,2021
2033,2039,2036,2039,1975,2123,2037,2024
2034,2033,2032,2039,1960,2114,2027,2017
2026,2027,2026,2040,1968,2031,2028,2022
2028,2034,2033,2062,2005,1968,2055,2036
2044,2044,2046,2082,2087,2016,2071,2037
2049,2051,2052,2097,2132,2075,2078,2031
2051,2053,2049,2082,2099,2078,2049,2015
2042,2041,2034,2056,2068,2047,2037,1997
2031,2023,2028,2064,2081,2024,2027,1999
2025,2039,2047,2066,2079,2011,2037,2003
2042,2045,2050,2058,2074,1995,2037,2003
2035,2042,2048,2046,2088,2011,2033,2012
2040,2046,2052,2043,2098,2024,2046,2024
2048,2055,2057,2046,2110,2047,2050,2029
2052,2047,2054,2042,2157,2062,2052,2041
2049,2053,2043,2050,2203,2070,2063,2043
2047,2053,2047,2055,2198,2080,2064,2053
2057,2048,2053,2054,2184,2080,2057,2060
2060,2051,2054,2055,2153,2069,2072,2056
2055,2047,2049,2045,2075,2058,2070,2058
2042,2044,2036,2043,2064,2046,2050,2057
2041,2041,2032,2050,2075,2038,2046,2058
2040,2039,2040,2038,1955,2030,2042,2058
2033,2021,2024,2021,1938,2019,2016,2047
2018,2006,2014,2032,2009,2030,2009,2045
2028,2024,2033,2054,2054,2051,2045,2060
2042,2037,2043,2051,2051,2052,2055,2056
2051,2043,2045,2050,2037,2052,2061,2058
2051,2047,2047,2051,2051,2059,2081,2059
2059,2058,2051,2057,2081,2066,2062,2060
2059,2060,2056,2064,2088,2075,2071,2059
2066,2061,2053,2059,2089,2085,2071,2057
2072,2055,2051,2053,2084,2086,2066,2044
2065,2061,2059,2049,2070,2104,2051,2035
2065,2061,2061,2052,2073,2122,2039,2036
2072,2064,2060,2045,2067,2098,2042,2027
2064,2053,2053,2024,1958,2018,2000,2011
2052,2038,2039,2028,1919,1983,2002,2010
2045,2038,2046,2072,2041,1979,2018,2015
2037,2026,2037,2055,2033,1972,1996,2001
2017,2012,2033,2030,1984,1980,2009,2005
2021,2040,2048,2043,2011,2006,2060,2023
2036,2054,2049,2050,2021,2028,2052,2026
2045,2056,2052,2049,2043,2050,2051,2025
2043,2051,2044,2052,2051,2046,2053,2031
2053,2050,2050,2062,2090,2052,2054,2037
2049,2063,2057,2077,2126,2064,2054,2049
2056,2071,2063,2086,2142,2072,2063,2061
2067,2067,2060,2076,2114,2069,2063,2065
2060,2060,2057,2062,2079,2065,2062,2074
2053,2062,2056,2054,2052,2064,2061,2081
2061,2060,2053,2049,2054,2057,2067,2080
2060,2053,2042,2046,2065,2052,2033,2077
2054,2050,2040,2038,2064,2052,2060,2073
2045,2059,2045,2052,2094,2064,2065,2069
2035,2027,2030,2044,2084,2051,2037,2042
2017,2016,2019,2036,2068,2044,2030,2038
2035,2036,2039,2050,2065,2046,2052,2051
2042,2049,2045,2063,2089,2042,2045,2046
2041,2050,2046,2066,2101,2011,2046,2051
2041,2045,2044,2063,2078,1993,2051,2061
2045,2044,2042,2058,2064,1992,2051,2044
2041,2050,2045,2054,2048,2006,2056,2030
2051,2050,2048,2057,2060,2009,2046,2029
2046,2061,2055,2061,2065,2011,2048,2030
2049,2060,2054,2040,2036,2025,2035,2024
2037,2052,2049,2017,1987,2039,2046,2019
2044,2050,2047,2030,2019,2077,2044,2014
2034,2041,2043,2033,2035,2080,2045,2013
2033,2039,2039,2038,2034,2072,2052,2017
2032,2039,2039,2035,2033,2047,2039,2016
2027,2022,2022,2019,2034,2021,2020,2005
2022,2009,2027,2021,2048,2029,2048,2016
2040,2033,2043,2037,2074,2054,2055,2026
2042,2034,2046,2036,2077,2056,2062,2030
2045,2046,2054,2045,2072,2061,2089,2048
2050,2047,2052,2048,2077,2063,2102,2054
2050,2046,2055,2047,2080,2064,2086,2056
2051,2047,2052,2046,2082,2066,2092,2063
2056,2051,2057,2047,2067,2060,2092,2062
2044,2053,2059,2050,2060,2063,2087,2064
2044,2052,2059,2051,2060,2061,2065,2058
2046,2049,2055,2053,2061,2070,2082,2053
2048,2046,2051,2057,2078,2076,2075,2061
2044,2049,2052,2042,2068,2080,2057,2064
2050,2042,2049,2029,2027,2069,2033,2058
2044,2043,2049,2026,1991,2051,2015,2040
2031,2025,2032,2012,1965,2018,1980,2028
2025,2019,2031,2009,1958,2018,1996,2033
2041,2037,2047,2026,1985,1995,1997,2044
2053,2041,2051,2047,2058,1994,2025,2053
2053,2043,2057,2064,2126,2041,2037,2046
2042,2044,2053,2066,2132,2074,2056,2036
2052,2039,2045,2057,2120,2070,2061,2029
2050,2042,2048,2048,2104,2059,2041,2024
2054,2038,2049,2047,2093,2062,2052,2027
2056,2039,2041,2042,2080,2069,2048,2021
2046,2032,2035,2042,2070,2061,2020,2014
2042,2030,2040,2033,2048,2050,2033,2013
2038,2033,2036,2034,2020,2040,2011,2010
2038,2029,2031,2035,2024,2038,2033,2008
2033,2030,2034,2040,2045,2039,2035,2004
2036,2030,2033,2039,2044,2026,2021,1995
2015,2004,2012,2021,2042,2013,2015,1996
2012,2007,2008,2023,2033,2014,2015,2019
2042,2036,2038,2042,2061,2042,2047,2031
2053,2045,2043,2045,2068,2061,2042,2032
2054,2059,2056,2054,2074,2072,2054,2044
2057,2054,2062,2054,2074,2077,2077,2046
2057,2052,2066,2054,2082,2102,2096,2060
2058,2051,2063,2058,2089,2120,2073,2057
2056,2048,2067,2052,2090,2112,2052,2056
2055,2047,2062,2053,2090,2107,2056,2056
2052,2051,2069,2050,2084,2090,2041,2059
2054,2054,2071,2050,2087,2086,2026,2066
2043,2047,2074,2051,2087,2078,2033,2066
2045,2042,2068,2047,2054,2054,2031,2068
2043,2046,2069,2032,2004,2025,2035,2070
2050,2050,2069,2038,2004,2021,2051,2061
2034,2036,2052,2026,1965,1996,2042,2053
2037,2031,2050,2025,1965,1995,2068,2054
2044,2059,2066,2047,1983,2014,2086,2045
2036,2058,2058,2044,1976,2019,2063,2038
2038,2057,2063,2041,1986,2033,2074,2038
2036,2063,2066,2038,1986,2036,2073,2040
2046,2067,2062,2027,1982,2038,2059,2035
2052,2063,2061,2030,2011,2036,2071,2031
2058,2056,2058,2041,2072,2028,2056,2026
2052,2053,2049,2047,2118,2021,2051,2020
2055,2049,2041,2052,2114,2018,2044,2019
2044,2046,2043,2056,2117,2003,2033,2020
2036,2043,2053,2059,2119,2002,2037,2016
2040,2040,2045,2053,2110,2012,2045,2011
2041,2039,2049,2049,2080,2024,2061,2012
2039,2039,2040,2040,2073,2059,2038,2006
2025,2017,2030,2044,2136,2110,2035,2010
2026,2020,2027,2052,2183,2177,2081,2031
2049,2046,2049,2070,2213,2231,2058,2031
2040,2043,2049,2065,2180,2208,2071,2024
2029,2037,2049,2066,2151,2099,2067,2019
2032,2037,2045,2069,2112,2010,2056,2018
2029,2030,2044,2053,2096,2008,2047,2028
2032,2027,2032,2016,1938,1978,2037,2026
2029,2034,2039,2002,1886,1988,2052,2034
2037,2031,2044,2017,2004,2004,2049,2044
2031,2037,2043,2037,2044,2034,2084,2052
2036,2038,2052,2049,2028,2049,2079,2053
2035,2048,2052,2026,1987,2031,2064,2047
2039,2044,2054,2026,2045,2048,2074,2058
2039,2048,2052,2038,2079,2065,2073,2061
2037,2047,2050,2036,2073,2062,2055,2052
2030,2033,2034,2026,2042,2053,2048,2058
2037,2029,2043,2027,2049,2069,2056,2071
2053,2056,2055,2036,2047,2080,2081,2072
2061,2056,2065,2031,2051,2080,2085,2064
2061,2058,2062,2035,2043,2083,2089,2061
2065,2063,2064,2032,2032,2077,2083,2047
2057,2069,2071,2035,2041,2050,2074,2048
2066,2077,2076,2046,2021,1992,2058,2041
2065,2073,2073,2044,1996,1976,2047,2034
2061,2067,2068,2022,1918,1963,2034,2026
2050,2055,2057,2009,1894,1982,2035,2021
2044,2046,2050,2029,1963,2008,2052,2009
2040,2042,2041,2025,1981,2011,2037,1997
2027,2038,2033,2022,1993,2018,2058,2004
2032,2046,2046,2030,2029,2028,2054,2001
2040,2049,2055,2042,2077,2039,2040,2000
2024,2027,2041,2045,2114,2052,2041,2001
2027,2029,2043,2051,2157,2080,2051,2023
2051,2058,2065,2067,2147,2081,2051,2034
2053,2059,2070,2062,2108,2045,2047,2041
2049,2060,2067,2062,2096,2029,2065,2038
2050,2061,2062,2064,2098,2046,2066,2037
2043,2060,2063,2061,2094,2051,2041,2038
2047,2057,2063,2059,2094,2070,2067,2038
2052,2056,2059,2056,2106,2066,2073,2045
2054,2053,2054,2061,2095,2061,2069,2048
2051,2054,2062,2057,2089,2054,2056,2056
2052,2050,2062,2062,2088,2049,2043,2065
2046,2049,2061,2061,2080,2039,2029,2057
2045,2046,2060,2051,2074,2040,2036,2052
2039,2042,2059,2053,2067,2048,2043,2058
2039,2042,2050,2049,2060,2053,2036,2039
2019,2016,2030,2038,2054,2075,2025,2038
2023,2018,2032,2049,2071,2096,2036,2051
2035,2043,2053,2058,2077,2099,2039,2043
2040,2047,2057,2057,2074,2061,2040,2048
2040,2049,2056,2057,2072,2005,2040,2051
2047,2048,2060,2059,2072,2019,2039,2045
2045,2052,2055,2064,2079,2051,2053,2049
2051,2054,2062,2069,2081,2077,2051,2045
2047,2055,2065,2064,2082,2078,2069,2050
2050,2062,2060,2059,2072,2070,2067,2043
2050,2058,2061,2060,2056,2045,2064,2031
2044,2053,2054,2050,2045,2044,2062,2017
2036,2043,2044,2043,2026,2042,2049,2000
2019,2034,2036,2035,2030,2031,2038,2007
2034,2042,2044,2049,2043,2028,2029,2024
2039,2044,2052,2052,2041,2032,2028,2015
2028,2024,2033,2032,2031,2050,2063,2016
2035,2025,2041,2045,2048,2072,2063,2037
2050,2059,2054,2059,2058,2061,2072,2031
2051,2057,2055,2059,2058,2055,2070,2039
2051,2059,2055,2056,2059,2050,2064,2039
2043,2054,2047,2064,2062,2043,2052,2038
2049,2052,2052,2059,2058,2034,2042,2045
2042,2049,2046,2054,2065,2031,2016,2038
2043,2046,2043,2058,2064,2023,2034,2044
2039,2045,2041,2061,2064,2010,2066,2054
2040,2050,2045,2064,2064,1996,2065,2050
2042,2048,2043,2056,2071,2008,2055,2060
2047,2043,2043,2061,2056,2015,2050,2057
2043,2044,2038,2057,2061,2012,2040,2065
2047,2042,2034,2056,2055,2028,2013,2056
2041,2039,2034,2048,2034,2034,2018,2038
2021,2012,2013,2032,1993,2028,2006,2035
2021,2020,2014,2028,1999,2054,2046,2053
2036,2045,2033,2040,2005,2083,2049,2049
2035,2043,2031,2044,2029,2096,2056,2049
2047,2046,2034,2058,2080,2126,2078,2054
2047,2057,2049,2078,2114,2113,2086,2044
2041,2058,2048,2074,2113,2094,2070,2034
2043,2047,2048,2073,2114,2090,2060,2035
2040,2047,2045,2073,2099,2069,2057,2035
2044,2052,2039,2064,2084,2058,2046,2041
2040,2047,2043,2058,2068,2035,2043,2038
2044,2051,2038,2051,2062,2019,2014,2037
2053,2051,2036,2050,2049,2009,2017,2040
2047,2052,2034,2051,2047,2003,2036,2040
2052,2053,2039,2052,2046,2019,2039,2040
2053,2053,2049,2059,2062,2038,2053,2031
2032,2033,2031,2044,2061,2034,2037,2013
2024,2024,2027,2041,2056,2043,2050,2026
2045,2050,2051,2062,2084,2064,2053,2031
2051,2056,2055,2056,2064,2068,2070,2034
2054,2062,2055,2057,2065,2075,2070,2039
2057,2062,2058,2056,2066,2089,2046,2037
2059,2061,2058,2066,2070,2088,2064,2037
2049,2058,2057,2063,2062,2099,2059,2035
2051,2055,2055,2063,2064,2093,2060,2038
2051,2056,2054,2069,2070,2063,2040,2039
2048,2050,2054,2061,2080,2052,2044,2053
2049,2051,2056,2060,2078,2054,2036,2059
2055,2048,2052,2064,2082,2056,2045,2066
2050,2043,2049,2060,2073,2053,2052,2069
2050,2049,2051,2057,2065,2056,2048,2062
2050,2048,2058,2057,2075,2065,2029,2067
2028,2031,2033,2046,2058,2050,2035,2058
2021,2018,2032,2044,2054,2048,2039,2055
2039,2043,2045,2066,2072,2053,2053,2064
2045,2042,2043,2058,2069,2048,2056,2058
2051,2043,2039,2058,2061,2043,2060,2046
2048,2045,2042,2063,2058,2029,2049,2040
2048,2037,2034,2059,2054,2024,2046,2037
2038,2033,2027,2054,2044,2033,2030,2025
2044,2037,2034,2054,2041,2033,2024,2025
2038,2031,2029,2052,2042,2034,2019,2018
2039,2033,2025,2051,2048,2055,2026,2020
2041,2040,2038,2051,2048,2083,2034,2016
2043,2040,2041,2053,2044,2084,2037,2010
2036,2036,2045,2048,2027,2063,2018,2005
2031,2031,2046,2046,2005,2031,2024,2013
2038,2034,2048,2050,2017,1990,2028,2016
2031,2025,2026,2032,2005,1971,2007,2012
2024,2013,2012,2014,1999,1996,2008,2011
2041,2038,2038,2043,2050,2045,2049,2029
2056,2054,2054,2072,2091,2077,2057,2029
2060,2058,2062,2071,2091,2073,2029,2025
2058,2064,2057,2065,2081,2091,2025,2030
2053,2057,2060,2050,2063,2099,2057,2030
2049,2058,2060,2050,2043,2080,2029,2032
2044,2053,2060,2050,2033,2074,2007,2036
2052,2057,2062,2052,2042,2062,2019,2044
2055,2058,2065,2064,2073,2020,2026,2058
2059,2064,2070,2074,2094,2024,2038,2067
2060,2065,2071,2076,2098,2056,2026,2069
2057,2062,2065,2066,2087,2062,2028,2068
2054,2059,2062,2059,2068,2054,2056,2069
2056,2059,2059,2057,2062,2040,2041,2068
2046,2043,2047,2041,2038,2016,2018,2056
2035,2028,2043,2031,2027,2009,2013,2065
2050,2052,2065,2049,2037,2028,2056,2074
2053,2059,2057,2049,2046,2036,2037,2072
2049,2052,2061,2056,2049,2049,2060,2067
2050,2053,2059,2052,2051,2059,2058,2056
2055,2056,2063,2060,2054,2049,2060,2047
2050,2060,2056,2057,2053,2036,2041,2048
2054,2057,2053,2056,2056,2032,2038,2040
2058,2063,2054,2060,2053,2038,2044,2038
2059,2057,2056,2052,2047,2044,2038,2031
2061,2058,2054,2045,2059,2041,2047,2032
2058,2057,2060,2050,2059,2047,2069,2023
2057,2058,2052,2056,2064,2054,2061,2026
2050,2052,2054,2058,2069,2059,2054,2031
2046,2053,2054,2059,2078,2047,2053,2027
2043,2041,2041,2049,2059,2028,2040,2012
2034,2026,2034,2047,2059,2028,2035,2018
2043,2049,2056,2067,2081,2052,2066,2040
2055,2058,2058,2063,2084,2078,2077,2046
2062,2057,2056,2062,2083,2109,2069,2047
2059,2063,2052,2064,2087,2122,2077,2054
2060,2055,2049,2060,2076,2124,2072,2058
2058,2056,2049,2057,2074,2133,2057,2061
2061,2057,2052,2052,2064,2160,2060,2061
2051,2052,2045,2046,2054,2174,2043,2064
2056,2046,2038,2042,2051,2112,2023,2067
2057,2041,2037,2042,2043,1990,2033,2072
2057,2044,2034,2044,2038,1978,2047,2081
2054,2046,2034,2048,2046,2017,2066,2082
2056,2048,2034,2044,2043,2027,2060,2068
2059,2042,2034,2039,2038,2018,2053,2057
2038,2034,2028,2029,2017,2002,2031,2039
2025,2019,2016,2023,2006,2008,2035,2034
2023,2035,2040,2041,2066,2036,2042,2050
2047,2061,2053,2055,2100,2057,2062,2055
2052,2057,2058,2058,2114,2066,2062,2063
2058,2062,2063,2059,2130,2070,2069,2059
2061,2057,2061,2063,2117,2047,2048,2039
2049,2062,2053,2053,2106,2037,2037,2034
2051,2050,2050,2048,2090,2044,2041,2034
2050,2045,2040,2041,2027,2037,2029,2024
2050,2046,2035,2032,1920,2032,2034,2028
2052,2045,2043,2040,1970,2049,2053,2028
2052,2051,2046,2050,2026,2058,2045,2025
2052,2056,2043,2051,2034,2048,2038,2031
2051,2057,2045,2050,2032,2033,2038,2030
2054,2047,2045,2052,2038,2028,2045,2029
2058,2045,2038,2034,2021,2004,2031,2026
2042,2024,2019,2020,2014,1994,2027,2022
2038,2023,2027,2032,2013,2002,2055,2038
2050,2041,2043,2033,2011,1997,2045,2032
2047,2036,2037,2031,1989,1977,2022,2021
2050,2043,2039,2031,1982,1989,2037,2023
2055,2048,2051,2045,2014,2031,2054,2036
2066,2052,2054,2043,2023,2053,2052,2039
2057,2045,2049,2046,2045,2084,2047,2052
2054,2046,2058,2058,2050,2114,2057,2052
2066,2047,2057,2064,2044,2099,2058,2056
2057,2050,2060,2060,2036,2045,2040,2062
2058,2046,2054,2052,2008,2000,2031,2066
2047,2037,2042,2041,2005,1970,2010,2069
2052,2041,2045,2057,2053,1980,2017,2075
2060,2044,2053,2069,2091,2022,2027,2084
2057,2040,2037,2053,2096,2048,2025,2059
2040,2023,2030,2046,2093,2078,2033,2050
2043,2030,2040,2057,2083,2097,2057,2072
2064,2051,2045,2059,2035,2085,2078,2069
2057,2050,2040,2060,2029,2057,2044,2070
2058,2049,2045,2056,2028,2054,2056,2063
2061,2055,2049,2055,2020,2044,2061,2061
2061,2065,2056,2062,1993,2022,2049,2046
2063,2065,2055,2050,1960,2016,2055,2034
2055,2062,2054,2040,1971,2012,2039,2036
2061,2057,2049,2030,1973,2017,2060,2032
2058,2050,2040,2013,1992,2004,2038,2025
2056,2051,2050,2034,2075,2000,2054,2028
2059,2055,2054,2049,2108,1977,2041,2030
2063,2060,2057,2053,2107,1980,2038,2030
2064,2065,2065,2067,2105,1992,2030,2033
2059,2051,2053,2050,2087,2003,2040,2010
2043,2035,2042,2050,2084,2038,2027,2013
2033,2037,2044,2052,2076,2116,2057,2028
2048,2050,2045,2050,2070,2103,2056,2035
2050,2047,2051,2050,2073,2086,2063,2042
2057,2053,2055,2054,2066,2083,2076,2054
2064,2054,2057,2054,2058,2082,2080,2053
2062,2050,2049,2047,2049,2086,2066,2053
2062,2050,2044,2047,2045,2091,2058,2060
2058,2047,2040,2050,2060,2095,2067,2066
2056,2047,2048,2060,2096,2104,2068,2062
2058,2044,2046,2058,2097,2091,2063,2062
2047,2044,2043,2054,2084,2057,2047,2059
2049,2045,2041,2051,2083,2030,2044,2063
2047,2045,2045,2054,2077,2027,2047,2062
2056,2044,2049,2052,2079,2045,2063,2065
2055,2036,2030,2036,2048,2025,2038,2045
2037,2023,2025,2032,2040,2023,2019,2034
2036,2032,2033,2046,2041,2039,2021,2047
2039,2041,2040,2043,2047,2011,2042,2057
2050,2044,2039,2044,2037,2000,2026,2055
2050,2042,2042,2053,2043,2025,2031,2055
2059,2048,2040,2052,2044,2033,2053,2057
2056,2051,2043,2051,2037,2021,2051,2050
2053,2042,2040,2047,2029,2004,2038,2041
2050,2045,2043,2046,2035,2009,2047,2042
2051,2038,2048,2052,2049,2012,2058,2042
2056,2044,2050,2054,2051,2013,2064,2036
2056,2054,2049,2055,2050,2020,2070,2033
2057,2050,2047,2059,2053,2028,2065,2040
2052,2051,2041,2056,2058,2039,2088,2034
2058,2055,2049,2061,2068,2050,2089,2040
2054,2039,2039,2052,2049,2041,2072,2017
2036,2026,2030,2050,2052,2054,2045,2010
2056,2049,2052,2065,2062,2091,2069,2028
2061,2054,2054,2063,2037,2101,2070,2043
2066,2066,2059,2065,2029,2084,2042,2033
2070,2070,2059,2066,2041,2054,2054,2028
2057,2060,2062,2058,2052,2037,2018,2033
2059,2063,2055,2060,2056,2032,2025,2036
2051,2052,2057,2055,2064,2048,2014,2043
2061,2052,2050,2052,2075,2064,2042,2052
2062,2052,2043,2053,2064,2086,2057,2069
2063,2047,2049,2060,2053,2089,2064,2074
2048,2043,2038,2052,2060,2072,2058,2076
2047,2033,2035,2049,2059,2053,2049,2075
2048,2033,2036,2040,2048,2049,2025,2079
2048,2042,2039,2044,2045,2054,2030,2068
2036,2015,2018,2028,2021,2039,2038,2053
2025,2007,2009,2017,2015,2036,2041,2055
2038,2029,2033,2030,2026,2067,2054,2057
2042,2038,2040,2035,2026,2082,2064,2059
2039,2041,2037,2034,2023,2069,2062,2046
2038,2037,2029,2035,2014,2053,2061,2044
2039,2039,2032,2034,2012,2014,2059,2044
2054,2043,2044,2041,2009,1994,2077,2047
2055,2049,2046,2042,2008,2010,2057,2040
2047,2051,2045,2045,2014,2029,2039,2032
2052,2048,2048,2046,2023,2050,2045,2028
2045,2044,2044,2039,2039,2059,2066,2033
2055,2053,2046,2038,2038,2065,2072,2044
2060,2055,2041,2035,2033,2064,2078,2041
2058,2051,2045,2035,2026,2057,2064,2035
2061,2054,2042,2037,2034,2053,2047,2033
2043,2034,2022,2022,2024,2028,2044,2019
2037,2028,2025,2026,2036,2029,2043,2025
2051,2052,2044,2043,2057,2044,2076,2041
2049,2056,2045,2046,2045,2028,2061,2045
2055,2054,2041,2055,2041,2015,2053,2041
2053,2050,2047,2051,2030,1995,2053,2042
2061,2048,2053,2052,2041,1990,2046,2045
2061,2057,2053,2051,2052,2019,2063,2053
2062,2056,2053,2054,2056,2046,2075,2051
2060,2059,2051,2054,2049,2053,2074,2056
2059,2054,2051,2053,2043,2065,2077,2056
2058,2058,2052,2050,2041,2068,2068,2074
2057,2047,2054,2050,2032,2068,2049,2084
2057,2055,2056,2047,2028,2077,2040,2090
2063,2058,2055,2043,2025,2082,2039,2091
2056,2060,2055,2047,2007,2084,2043,2084
2046,2037,2041,2025,1974,2075,2026,2072
2031,2033,2030,2019,1966,2067,2040,2080
2048,2051,2046,2030,1984,2067,2047,2076
2055,2050,2046,2036,1997,2048,2034,2067
2053,2052,2042,2039,2019,2021,2049,2065
2051,2056,2044,2042,2054,2003,2052,2058
2049,2046,2051,2050,2061,2003,2047,2050
2061,2049,2052,2052,2053,2019,2056,2047
2069,2062,2055,2057,2057,2037,2059,2047
2070,2067,2060,2058,2053,2059,2082,2054
2069,2060,2055,2044,2050,2063,2081,2048
2067,2058,2055,2051,2040,2061,2087,2049
2053,2055,2049,2048,2035,2050,2071,2038
2048,2050,2052,2044,2034,2046,2072,2039
2053,2051,2049,2046,2033,2060,2072,2042
2066,2060,2051,2045,2040,2064,2084,2050
2057,2050,2039,2042,2036,2043,2074,2036
2044,2036,2025,2036,2042,2041,2070,2037
2044,2031,2036,2049,2055,2099,2083,2050
2057,2050,2038,2052,2049,2138,2103,2054
2061,2050,2040,2053,2051,2138,2107,2059
2058,2055,2038,2053,2045,2139,2088,2055
2062,2052,2037,2052,2044,2096,2069,2057
2067,2056,2048,2059,2057,2024,2042,2074
2070,2058,2057,2069,2067,2022,2035,2072
2072,2063,2054,2059,2054,2037,2036,2078
2065,2060,2051,2060,2040,2077,2040,2084
2073,2054,2051,2057,2046,2112,2071,2085
2068,2053,2048,2057,2037,2076,2075,2090
2073,2057,2056,2049,2032,1966,2062,2085
2070,2052,2053,2048,2022,1923,2051,2092
2064,2050,2046,2041,2023,1987,2054,2084
2060,2047,2036,2042,2023,2031,2050,2069
2042,2012,2018,2024,2011,2046,2019,2058
2032,2007,2013,2018,2008,2069,2036,2066
2047,2030,2032,2029,2026,2085,2038,2073
2057,2031,2030,2029,2030,2090,2046,2073
2052,2033,2034,2032,2037,2090,2039,2067
2050,2031,2037,2037,2036,2077,2047,2063
2057,2037,2035,2042,2030,2003,2046,2054
2056,2040,2041,2045,2015,1972,2028,2052
2056,2050,2041,2041,1996,1973,2045,2035
2059,2046,2042,2041,1991,1992,2033,2036
2050,2042,2041,2036,1991,2010,2051,2040
2059,2043,2049,2044,1989,2019,2042,2038
2054,2042,2049,2043,1998,2014,2047,2033
2053,2045,2040,2050,2020,2023,2045,2033
2053,2046,2045,2053,2018,2030,2059,2039
2055,2049,2049,2050,2021,2032,2046,2031
2054,2037,2038,2033,2018,2022,2033,2018
2031,2017,2028,2028,2040,2028,2029,2017
2024,2021,2037,2042,2062,2045,2052,2033
2045,2047,2052,2049,2045,2054,2067,2041
2053,2055,2049,2051,2040,2052,2046,2050
2061,2064,2050,2050,2033,2035,2050,2056
2060,2065,2052,2042,2033,2038,2062,2057
2059,2066,2054,2044,2031,2044,2067,2065
2060,2065,2056,2045,2040,2054,2064,2068
2064,2064,2065,2055,2058,2071,2091,2066
2068,2064,2069,2058,2073,2072,2067,2073
2057,2067,2067,2052,2062,2059,2072,2079
2063,2066,2064,2045,2041,2050,2042,2086
2057,2062,2062,2042,2033,2044,2047,2088
2052,2060,2065,2030,2016,2044,2055,2083
2056,2056,2052,2019,2016,2048,2054,2079
2047,2052,2051,2029,2046,2059,2066,2077
2043,2043,2047,2037,2060,2046,2026,2084
2045,2040,2042,2043,2081,2044,2046,2079
2062,2058,2058,2059,2085,2059,2067,2086
2060,2062,2056,2060,2125,2067,2076,2078
2058,2063,2050,2058,2149,2070,2066,2067
2055,2058,2043,2059,2143,2078,2067,2063
2053,2062,2040,2050,2125,2083,2066,2066
2058,2058,2038,2052,2092,2077,2051,2058
2058,2055,2038,2045,2075,2057,2061,2044
2061,2057,2034,2036,1990,2024,2060,2048
2052,2050,2031,2008,1825,1979,2043,2040
2053,2048,2032,2001,1847,1963,2033,2041
2052,2050,2038,2014,1880,1953,2038,2046
2045,2047,2034,2016,1904,1939,2016,2036
2045,2044,2039,2020,1960,1948,2028,2040
2050,2050,2052,2047,2019,1993,2048,2055
2055,2053,2054,2056,2058,2029,2056,2045
2034,2024,2042,2059,2072,2046,2052,2045
2038,2022,2035,2049,2075,2045,2063,2054
2058,2051,2052,2060,2056,2041,2064,2060
2067,2058,2056,2053,2041,2036,2031,2052
2062,2064,2075,2070,2077,2060,2054,2054
2065,2067,2074,2071,2065,2080,2062,2052
2070,2058,2066,2047,2005,2090,2078,2049
2057,2054,2062,2037,1972,2108,2048,2049
2059,2057,2059,2032,1979,2098,2058,2044
2053,2055,2057,2033,1987,2074,2052,2052
2055,2058,2062,2042,1993,2049,2050,2066
2054,2055,2051,2031,1988,2034,2053,2057
2049,2047,2041,2024,2003,2045,2051,2061
2049,2051,2046,2040,2056,2066,2069,2074
2059,2060,2054,2053,2076,2072,2065,2078
2058,2049,2049,2042,2050,2063,2056,2082
2054,2045,2036,2025,2030,2047,2044,2060
2035,2019,2011,2012,2015,2033,2028,2059
2026,2020,2013,2014,2019,2034,2043,2071
2041,2042,2029,2016,2027,2011,2051,2069
2049,2056,2037,2023,2028,2020,2047,2068
2053,2067,2044,2022,2031,2046,2048,2071
2061,2069,2056,2030,2040,2059,2061,2065
2065,2070,2055,2034,2040,2062,2049,2060
2062,2064,2047,2030,2039,2056,2053,2058
2061,2053,2034,2024,2042,2050,2063,2051
2052,2042,2027,2026,2035,2041,2036,2044
2050,2047,2031,2030,2040,2040,2040,2042
2058,2049,2036,2035,2024,2032,2041,2045
2061,2052,2041,2034,2022,2024,2052,2052
2059,2049,2038,2032,2024,2028,2044,2044
2049,2046,2041,2034,2020,2034,2049,2039
2039,2046,2045,2033,2013,2026,2057,2036
2036,2033,2029,2021,1992,2004,2035,2007
2025,2011,2022,2012,1981,2009,2034,2014
2026,2014,2033,2028,2010,2031,2060,2037
2051,2038,2037,2031,2021,2030,2056,2044
2052,2035,2036,2032,2028,2041,2057,2044
2053,2042,2039,2038,2042,2047,2041,2047
2054,2045,2049,2042,2041,2046,2058,2047
2046,2048,2055,2047,2038,2048,2066,2048
2042,2051,2057,2046,2044,2057,2060,2057
2051,2053,2052,2051,2045,2063,2065,2060
2049,2058,2056,2052,2046,2069,2064,2064
2053,2065,2061,2054,2042,2071,2051,2072
2058,2061,2062,2052,2040,2072,2073,2077
2059,2064,2070,2050,2031,2062,2053,2083
2064,2061,2070,2051,2029,2070,2073,2090
2063,2073,2073,2050,2032,2072,2057,2094
2068,2074,2079,2045,2031,2063,2046,2092
2056,2052,2062,2029,2019,2037,2012,2083
2048,2045,2049,2015,2012,2032,2007,2082
2057,2066,2062,2037,2015,2034,2040,2086
2062,2072,2069,2035,2025,2038,2044,2081
2062,2068,2062,2035,2008,2053,2065,2081
2065,2066,2066,2036,1999,2058,2063,2080
2066,2068,2068,2039,1992,2074,2069,2065
2058,2065,2066,2035,1981,2102,2064,2059
2061,2063,2070,2035,1971,2111,2066,2044
2057,2063,2062,2035,1982,2120,2063,2031
2059,2060,2062,2033,1982,2111,2040,2022
2053,2062,2061,2033,1992,2045,2037,2033
2053,2058,2059,2044,2015,1997,2037,2033
2058,2060,2058,2050,2037,2013,2027,2030
2050,2049,2051,2047,2072,2005,2029,2037
2054,2056,2058,2054,2097,2012,2049,2037
2057,2054,2053,2047,2076,2007,2025,2022
2038,2028,2030,2032,2045,1999,2013,2015
2028,2013,2029,2040,2072,2010,2023,2024
2047,2040,2050,2062,2098,2030,2054,2023
2046,2042,2039,2050,2064,2041,2038,2025
2042,2038,2040,2044,2044,2036,2043,2029
2044,2037,2043,2040,2042,2029,2067,2044
2051,2047,2040,2043,2038,2044,2075,2051
2047,2052,2045,2042,2042,2068,2065,2059
2061,2058,2048,2049,2030,2075,2084,2078
2060,2057,2053,2045,2047,2086,2089,2080
2062,2057,2051,2049,2066,2079,2068,2079
2064,2060,2046,2044,2059,2044,2057,2084
2061,2060,2050,2049,2045,2024,2052,2083
2061,2060,2040,2043,2034,2022,2062,2085
2061,2051,2038,2040,2034,2026,2038,2082
2061,2053,2039,2037,2033,2033,2039,2083
2059,2046,2034,2032,2021,2023,2026,2065
2038,2022,2022,2029,2032,1997,2005,2062
2035,2027,2032,2046,2057,2010,2048,2071
2061,2058,2051,2053,2063,2026,2037,2072
2064,2059,2054,2054,2051,2056,2027,2063
2058,2055,2048,2045,2024,2086,2052,2058
2059,2056,2045,2040,2013,2079,2057,2050
2062,2054,2046,2042,2014,2062,2035,2052
2056,2055,2050,2048,2027,2055,2029,2049
2057,2060,2058,2049,2016,2044,2051,2044
2054,2060,2048,2047,2016,2049,2056,2039
2053,2055,2049,2052,2031,2064,2058,2045
2057,2055,2050,2049,2032,2065,2066,2044
2061,2058,2056,2049,2035,2067,2072,2056
2065,2059,2048,2050,2032,2059,2076,2048
2065,2061,2046,2049,2028,2051,2073,2044
2058,2060,2044,2052,2028,2041,2068,2036
2049,2043,2028,2035,2009,2034,2036,2019
2043,2036,2026,2034,2018,2041,2025,2013
2040,2046,2046,2048,2033,2069,2057,2030
2052,2061,2055,2049,2040,2065,2067,2043
2051,2059,2059,2053,2039,2068,2072,2045
2058,2059,2059,2049,2033,2070,2071,2044
2064,2064,2064,2055,2039,2069,2059,2047
2060,2065,2061,2052,2038,2061,2073,2056
2057,2067,2057,2057,2042,2053,2067,2050
2062,2070,2056,2056,2048,2028,2051,2062
2058,2062,2054,2061,2054,2024,2056,2064
2065,2062,2052,2056,2052,2050,2050,2066
2064,2058,2050,2056,2055,2057,2059,2066
2059,2054,2047,2053,2045,2067,2062,2071
2052,2051,2043,2052,2039,2070,2059,2075
2052,2052,2043,2053,2037,2086,2057,2075
2048,2051,2040,2049,2039,2091,2042,2067
2035,2030,2020,2033,2019,2078,2028,2059
2032,2022,2017,2023,2012,2083,2051,2058
2041,2040,2035,2038,2028,2074,2025,2059
2043,2044,2036,2043,2026,2018,2017,2051
2044,2043,2039,2044,2026,2003,2030,2049
2042,2043,2035,2041,2024,2024,2054,2052
2036,2045,2036,2040,2029,2032,2043,2048
2041,2041,2041,2041,2033,2039,2045,2039
2039,2044,2037,2046,2035,2036,2039,2043
2044,2051,2040,2050,2030,2050,2043,2045
2044,2049,2044,2047,2034,2046,2044,2041
2045,2048,2041,2041,2034,2041,2039,2036
2045,2047,2048,2043,2034,2038,2016,2031
2046,2043,2045,2046,2029,2029,2047,2025
2046,2036,2045,2044,2024,2026,2043,2025
2040,2040,2046,2045,2017,2024,2042,2022
2053,2042,2046,2044,2020,2016,2037,2010
2038,2024,2032,2036,2019,2032,2047,2021
2032,2024,2030,2036,2024,2050,2076,2037
2062,2058,2060,2058,2041,2053,2086,2049
2068,2063,2052,2051,2042,2060,2088,2052
2068,2062,2060,2050,2051,2060,2080,2049
2065,2064,2055,2047,2047,2061,2073,2046
2063,2065,2059,2051,2044,2065,2064,2049
2059,2064,2056,2053,2046,2070,2068,2048
2059,2070,2059,2051,2056,2085,2062,2056
2064,2070,2061,2055,2053,2102,2055,2060
2061,2069,2061,2059,2051,2118,2068,2074
2069,2065,2054,2054,2046,2146,2081,2074
2065,2060,2052,2052,2028,2182,2072,2077
2061,2055,2051,2042,2015,2165,2064,2073
2058,2057,2049,2041,2008,2076,2049,2066
2054,2049,2039,2035,1999,2010,2040,2069
2051,2040,2024,2019,1973,1996,2029,2067
2036,2031,2024,2032,1992,1998,2024,2065
2040,2036,2042,2048,2023,2034,2049,2081
2064,2060,2050,2054,2042,2042,2058,2084
2059,2057,2052,2051,2052,2028,2054,2080
2056,2061,2053,2054,2039,2004,2045,2074
2061,2061,2053,2050,2028,2008,2048,2063
2066,2063,2058,2050,2031,2011,2056,2062
2064,2060,2054,2053,2035,2014,2068,2050
2057,2060,2053,2050,2050,2023,2069,2037
2053,2051,2051,2047,2047,2030,2082,2040
2049,2049,2043,2046,2037,2026,2070,2031
2055,2053,2048,2039,2018,2023,2038,2029
2054,2048,2049,2039,2024,2023,2034,2037
2057,2049,2046,2038,2024,2022,2066,2041
2064,2053,2050,2037,2028,2028,2061,2039
2068,2050,2046,2039,2041,2033,2047,2032
2055,2025,2022,2023,2030,2021,2033,2018
2042,2021,2028,2026,2036,2027,2040,2029
2049,2045,2043,2041,2036,2036,2059,2041
2056,2057,2054,2050,1999,2027,2063,2041
2049,2060,2061,2057,2038,2021,2052,2041
2055,2073,2067,2064,2057,2016,2040,2049
2066,2075,2067,2064,2058,1997,2036,2052
2064,2071,2064,2059,2040,2009,2033,2050
2061,2062,2063,2058,2018,2051,2049,2055
2051,2057,2057,2052,2022,2098,2049,2056
2041,2056,2047,2045,2024,2096,2061,2046
2042,2045,2049,2027,1997,2070,2052,2059
2056,2052,2045,2015,2013,2051,2035,2065
2050,2049,2050,2029,2058,2062,2064,2072
2052,2048,2052,2039,2065,2068,2036,2078
2046,2049,2049,2039,2060,2071,2044,2078
2045,2051,2055,2035,2051,2056,2042,2067
2024,2027,2033,2022,2023,2035,2037,2058
2023,2023,2022,2019,2021,2038,2026,2067
2038,2046,2040,2034,2037,2048,2042,2067
2042,2047,2040,2035,2037,2038,2052,2074
2042,2041,2044,2038,2031,2034,2033,2068
2045,2034,2043,2043,2034,2023,2037,2059
2047,2036,2043,2040,2032,2027,2040,2046
2051,2040,2040,2042,2038,2026,2045,2043
2044,2041,2041,2038,2027,2026,2040,2033
2049,2040,2038,2037,2025,2032,2047,2036
2044,2038,2030,2036,2031,2042,2053,2037
2044,2042,2033,2037,2028,2048,2063,2033
2047,2040,2039,2037,2030,2051,2068,2022
2045,2033,2031,2036,2009,2046,2059,2023
2038,2033,2034,2039,2006,2046,2062,2032
2048,2042,2037,2036,2012,2045,2078,2037
2045,2046,2045,2033,2001,2023,2051,2021
2027,2023,2026,2026,2014,2028,2042,2019
2032,2019,2028,2047,2063,2046,2075,2043
2053,2056,2062,2074,2088,2046,2085,2055
2065,2057,2058,2071,2092,2048,2076,2056
2062,2049,2055,2067,2080,2053,2067,2051
2058,2048,2048,2051,2064,2041,2054,2050
2048,2040,2044,2042,2042,2040,2058,2043
2050,2043,2045,2043,2032,2071,2052,2046
2041,2060,2061,2047,2032,2112,2050,2056
2055,2062,2068,2052,2037,2118,2084,2060
2056,2060,2068,2049,2034,2090,2076,2069
2056,2062,2068,2049,2035,2034,2082,2082
2054,2060,2067,2057,2075,2026,2095,2093
2052,2060,2063,2053,2100,2032,2088,2091
2049,2057,2062,2057,2100,2044,2073,2091
2052,2055,2058,2048,2094,2049,2091,2095
2054,2043,2044,2028,2076,2036,2056,2078
2030,2022,2029,2021,2052,2036,2056,2076
2042,2046,2040,2036,2058,2060,2071,2085
2063,2063,2052,2041,2053,2074,2067,2075
2054,2058,2052,2043,2016,2067,2060,2059
2050,2056,2058,2033,1896,2035,2052,2047
2052,2061,2062,2038,1883,2030,2050,2051
2058,2068,2062,2051,1939,2036,2056,2042
2061,2060,2060,2052,1967,2015,2035,2032
2057,2060,2050,2045,1988,2002,2025,2038
2053,2059,2052,2039,2023,2001,2028,2036
2053,2062,2052,2037,2052,2000,2035,2033
2048,2057,2054,2043,2062,2016,2019,2025
2041,2051,2058,2049,2065,2034,2027,2030
2041,2051,2056,2049,2055,2038,2047,2030
2047,2052,2058,2049,2057,2061,2062,2033
2046,2050,2056,2053,2054,2075,2072,2024
2042,2037,2043,2042,2032,2057,2060,2020
2033,2029,2040,2036,2016,2056,2061,2033
2050,2059,2061,2054,2049,2067,2087,2043
2058,2062,2064,2055,2043,2060,2084,2044
2057,2060,2062,2047,2034,2053,2076,2041
2052,2052,2058,2040,2024,2048,2066,2030
2047,2052,2053,2035,2029,2051,2064,2036
2048,2055,2041,2044,2024,2052,2050,2040
2048,2061,2049,2042,2025,2047,2060,2040
2049,2063,2048,2045,2027,2036,2049,2052
2050,2057,2050,2055,2041,2043,2072,2057
2045,2057,2057,2060,2038,2054,2059,2058
2046,2062,2057,2060,2039,2052,2061,2071
2049,2058,2060,2052,2021,2043,2063,2076
2056,2059,2056,2058,2028,2049,2064,2078
2049,2057,2054,2052,2032,2041,2052,2082
2050,2059,2053,2052,2039,2022,2035,2063
2031,2034,2039,2032,2028,2013,2037,2054
2028,2025,2026,2029,2020,2019,2037,2066
2041,2049,2046,2041,2029,2033,2052,2064
2042,2055,2050,2039,2022,2033,2055,2069
2046,2056,2045,2035,2020,2037,2052,2062
2043,2049,2041,2044,2023,2041,2051,2057
2044,2056,2044,2042,2024,2043,2057,2041
2039,2051,2045,2043,2035,2048,2055,2041
2043,2048,2047,2042,2033,2057,2035,2041
2042,2053,2047,2043,2027,2064,2026,2039
2046,2053,2046,2047,2030,2064,2044,2041
2045,2055,2043,2042,2033,2064,2033,2038
2051,2051,2048,2045,2039,2067,2031,2043
2057,2054,2056,2050,2044,2069,2054,2042
2056,2052,2056,2054,2040,2064,2062,2035
2058,2060,2062,2052,2046,2062,2066,2046
2056,2058,2060,2042,2044,2052,2043,2036
2039,2036,2042,2036,2037,2043,2039,2032
2035,2033,2039,2045,2050,2058,2059,2043
2057,2063,2065,2047,2051,2079,2056,2044
2060,2063,2056,2045,2047,2094,2050,2043
2053,2059,2055,2050,2049,2113,2071,2045
2056,2054,2057,2047,2050,2112,2076,2048
2055,2059,2054,2048,2057,2117,2079,2052
2045,2055,2047,2053,2054,2062,2047,2052
2044,2049,2050,2047,2045,2020,2026,2051
2046,2052,2043,2052,2052,2035,2040,2056
2053,2053,2042,2051,2054,2064,2086,2073
2052,2050,2046,2054,2063,2078,2090,2077
2053,2056,2044,2060,2070,2087,2104,2088
2061,2057,2044,2059,2064,2080,2076,2085
2047,2048,2043,2057,2056,2064,2082,2088
2052,2051,2044,2051,2042,2013,2044,2090
2049,2036,2027,2025,2014,1974,2005,2072
2032,2030,2026,2025,2018,1982,2014,2073
2032,2036,2041,2041,2035,2013,2031,2086
2059,2062,2054,2050,2046,2040,2050,2079
2061,2066,2062,2048,2049,2050,2064,2072
2058,2062,2062,2054,2048,2041,2036,2054
2061,2067,2059,2053,2047,2040,2023,2045
2056,2068,2059,2047,2040,2059,2018,2043
2043,2060,2056,2047,2038,2048,2043,2043
2048,2059,2048,2053,2042,2029,2051,2043
2048,2062,2046,2047,2038,2029,2058,2035
2042,2053,2045,2050,2036,2059,2064,2031
2040,2048,2048,2036,2029,2066,2086,2032
2044,2047,2051,2046,2027,2046,2062,2026
2031,2049,2056,2036,2015,2047,2054,2031
2044,2047,2057,2040,2024,2053,2064,2037
2049,2056,2054,2042,2017,2042,2052,2026
2032,2034,2035,2024,1994,2012,2012,2013
2029,2025,2030,2020,1994,2019,2035,2019
2041,2051,2051,2036,2014,2052,2057,2024
2038,2048,2048,2042,2013,2052,2024,2027
2039,2052,2045,2036,2019,2041,2038,2025
2044,2046,2051,2049,2043,2045,2037,2035
2046,2049,2054,2059,2073,2045,2018,2042
2039,2051,2051,2054,2064,2040,2040,2038
2039,2048,2046,2045,2031,2035,2027,2045
2041,2045,2050,2039,2013,2037,2018,2051
2037,2043,2045,2024,1999,2036,2044,2051
2030,2043,2044,2028,2026,2067,2037,2054
2043,2038,2053,2037,2052,2083,2059,2061
2041,2035,2048,2048,2069,2080,2054,2064
2034,2032,2053,2059,2093,2084,2054,2067
2042,2036,2057,2060,2101,2065,2064,2073
2044,2041,2054,2047,2077,2034,2029,2055
2019,2010,2032,2033,2048,2024,2028,2053
2011,2015,2030,2037,2061,2031,2033,2054
2036,2044,2049,2048,2082,2049,2061,2060
2040,2048,2050,2047,2079,2060,2048,2055
2047,2043,2046,2044,2066,2077,2049,2043
2044,2052,2053,2041,2043,2057,2044,2047
2050,2050,2052,2036,2035,2060,2045,2038
2052,2052,2050,2035,2029,2098,2050,2037
2051,2054,2052,2039,2023,2132,2065,2037
2051,2062,2056,2044,2025,2099,2055,2037
2057,2062,2054,2043,2027,1988,2047,2035
2056,2064,2051,2043,2031,1957,2043,2037
2057,2061,2053,2043,2037,2005,2051,2031
2059,2062,2051,2046,2043,2033,2033,2031
2054,2062,2049,2045,2057,2048,2029,2031
2061,2068,2051,2054,2078,2050,2033,2039
2059,2050,2036,2042,2066,2029,2011,2019
2035,2030,2026,2037,2063,2008,2012,2011
2030,2034,2037,2047,2076,2006,2026,2027
2056,2054,2051,2056,2072,2017,2022,2035
2048,2051,2043,2047,2066,2031,2030,2038
2046,2048,2047,2047,2066,2054,2042,2038
2048,2047,2049,2050,2064,2063,2034,2049
2044,2045,2050,2054,2057,2062,2028,2046
2041,2047,2050,2048,2053,2061,2033,2046
2036,2050,2049,2054,2052,2056,2030,2060
2047,2052,2044,2050,2055,2061,2019,2057
2048,2053,2049,2047,2055,2065,2044,2062
2043,2049,2048,2053,2069,2058,2038,2071
2046,2051,2049,2049,2071,2061,2043,2068
2044,2043,2045,2053,2071,2059,2039,2073
2044,2051,2048,2051,2062,2053,2028,2077
2047,2049,2046,2052,2053,2047,2033,2069
2034,2025,2026,2034,2024,2026,2006,2055
2026,2022,2027,2030,2030,2022,2002,2065
2043,2049,2045,2047,2051,2037,2011,2068
2049,2053,2045,2047,2052,2043,2051,2061
2050,2051,2040,2047,2042,2044,2035,2055
2050,2050,2044,2042,2048,2047,2014,2050
2052,2048,2041,2039,2048,2063,2017,2043
2051,2053,2034,2040,2052,2081,2021,2045
