CH1,CH2,CH3,CH4,CH5,CH6,CH7,CH8
2058,2049,2052,2057,2056,2050,2018,2069
2059,2047,2061,2060,2066,2050,2026,2078
2052,2050,2062,2058,2063,2048,2024,2082
2050,2047,2068,2052,2036,2043,2030,2091
2045,2038,2063,2049,2029,2038,2014,2097
2041,2034,2068,2042,2023,2047,2041,2096
2044,2042,2072,2045,2027,2044,2039,2097
2037,2040,2067,2035,2026,2046,2042,2098
2039,2032,2056,2028,2026,2049,2039,2094
2044,2039,2055,2026,2026,2051,2044,2088
2046,2037,2060,2023,2027,2052,2037,2082
2048,2037,2064,2030,2027,2055,2038,2076
2046,2038,2066,2035,2033,2052,2054,2059
2044,2028,2058,2042,2051,2053,2024,2050
2049,2029,2052,2042,2070,2054,2023,2034
2044,2026,2045,2034,2080,2052,2054,2015
2041,2026,2041,2035,2076,2051,2049,1996
2043,2028,2041,2037,2064,2054,2050,1984
2042,2027,2043,2037,2041,2056,2045,1974
2040,2032,2043,2036,2031,2053,2040,1965
2029,2024,2037,2030,2033,2046,2044,1960
2031,2028,2034,2034,2033,2047,2048,1964
2050,2040,2043,2040,2045,2057,2057,1970
2052,2053,2054,2045,2073,2065,2056,1982
2049,2053,2052,2045,2076,2060,2043,1986
2055,2052,2047,2043,2074,2060,2045,2000
2057,2059,2054,2045,2075,2064,2047,2012
2058,2063,2066,2044,2065,2056,2055,2022
2059,2064,2076,2050,2080,2055,2041,2030
2054,2056,2075,2046,2064,2054,2032,2039
2058,2050,2069,2054,2065,2055,2040,2054
2051,2041,2059,2061,2084,2067,2037,2062
2046,2042,2049,2066,2111,2072,2046,2069
2046,2036,2045,2078,2129,2069,2017,2073
2037,2033,2042,2078,2137,2066,2049,2079
2042,2027,2041,2075,2120,2051,2037,2086
2031,2023,2026,2067,2104,2037,2019,2092
2034,2036,2032,2061,2059,2037,2028,2107
2045,2052,2039,2058,2004,2033,2035,2112
2052,2051,2034,2057,2017,2036,2023,2108
2053,2037,2020,2043,2021,2039,2041,2099
2054,2033,2005,2028,2022,2034,2029,2098
2048,2027,1997,2015,2006,2034,2060,2089
2052,2026,1993,2007,1974,2036,2040,2087
2052,2039,2003,2010,1985,2039,2044,2076
2058,2042,2009,2010,2032,2051,2054,2069
2058,2055,2036,2022,2090,2058,2043,2053
2056,2060,2061,2037,2114,2061,2042,2031
2056,2059,2079,2052,2123,2064,2041,2016
2055,2062,2081,2055,2144,2074,2049,2000
2044,2060,2072,2059,2157,2072,2041,1985
2037,2045,2060,2051,2143,2069,2036,1966
2034,2043,2046,2040,2128,2059,2036,1963
2036,2037,2048,2043,2104,2058,2065,1963
2046,2045,2054,2043,2046,2056,2067,1965
2046,2050,2064,2030,1952,2045,2046,1973
2045,2047,2073,2029,1982,2054,2057,1975
2033,2046,2077,2042,2018,2053,2056,1986
2033,2052,2089,2052,2031,2057,2057,1996
2039,2064,2085,2062,2027,2052,2043,2014
2046,2062,2082,2062,2041,2039,2036,2024
2054,2057,2070,2058,2029,2030,2044,2036
2049,2050,2074,2045,2010,2026,2049,2050
2041,2057,2072,2044,1995,2030,2037,2062
2043,2057,2072,2046,1990,2035,2037,2069
2044,2054,2065,2039,1995,2032,2042,2069
2039,2052,2059,2037,2003,2029,2050,2075
2038,2052,2061,2034,2006,2032,2035,2093
2043,2047,2062,2031,2021,2032,2033,2093
2041,2040,2058,2031,2029,2038,2038,2098
2041,2043,2069,2034,2045,2050,2056,2104
2048,2053,2058,2044,2051,2051,2044,2100
2043,2053,2052,2049,2053,2053,2048,2098
2049,2048,2049,2053,2057,2057,2055,2096
2046,2041,2050,2046,2047,2055,2047,2095
2049,2046,2050,2041,2045,2063,2042,2087
2044,2056,2060,2045,2045,2065,2052,2081
2053,2060,2056,2049,2035,2069,2056,2073
2050,2063,2058,2044,2040,2067,2054,2059
2050,2059,2056,2050,2054,2069,2061,2039
2047,2055,2054,2050,2052,2075,2058,2026
2046,2055,2055,2044,2043,2076,2051,2010
2049,2047,2064,2051,2036,2065,2064,1995
2048,2042,2050,2047,2030,2054,2056,1986
2051,2055,2059,2051,2026,2046,2031,1972
2040,2052,2050,2042,2017,2045,2045,1960
2037,2041,2049,2050,2003,2053,2055,1967
2048,2046,2055,2050,2045,2054,2069,1974
2044,2053,2063,2053,2064,2050,2062,1982
2052,2062,2066,2051,2060,2045,2060,1986
2050,2051,2052,2047,2067,2038,2027,1995
2044,2048,2047,2049,2047,2033,2013,2009
2047,2047,2043,2045,2028,2036,2042,2018
2043,2045,2044,2040,2033,2045,2032,2029
2046,2043,2042,2034,2047,2044,2042,2042
2049,2040,2043,2026,2018,2043,2003,2043
2040,2043,2044,2033,2022,2047,2021,2045
2042,2042,2040,2044,2038,2058,2011,2058
2043,2051,2046,2056,2059,2062,2021,2069
2044,2048,2051,2061,2073,2066,2027,2090
2052,2046,2057,2082,2103,2072,2034,2095
2047,2039,2058,2078,2097,2078,2035,2094
2035,2038,2051,2076,2096,2082,2045,2105
2043,2048,2051,2076,2097,2092,2040,2104
2050,2050,2057,2075,2078,2086,2053,2109
2054,2053,2062,2080,2071,2083,2068,2112
2056,2057,2058,2078,2062,2084,2057,2110
2060,2066,2060,2080,2062,2081,2056,2104
2060,2064,2058,2073,2086,2084,2059,2085
2056,2059,2050,2064,2089,2086,2052,2078
2058,2051,2043,2036,2076,2075,2064,2061
2053,2054,2044,2018,2047,2058,2045,2046
2046,2052,2047,2011,2042,2040,2042,2034
2045,2056,2044,2003,2057,2028,2041,2020
2055,2046,2046,2007,2047,2019,2051,2006
2054,2050,2039,2015,2053,2010,2064,1994
2054,2056,2036,2016,2069,2002,2053,1983
2051,2042,2026,2023,2070,2010,2039,1969
2042,2038,2029,2035,2071,2022,2039,1966
2045,2043,2039,2039,2069,2042,2031,1972
2055,2047,2045,2034,2057,2045,2032,1972
2051,2049,2045,2030,2050,2050,2020,1978
2050,2052,2045,2030,2048,2052,2027,1988
2057,2054,2044,2036,2053,2053,2046,2001
2053,2057,2042,2036,2055,2059,2039,2021
2060,2054,2051,2042,2059,2064,2034,2031
2060,2055,2051,2042,2059,2070,2047,2047
2055,2053,2061,2043,2059,2072,2053,2054
2059,2057,2062,2041,2053,2064,2043,2067
2058,2059,2061,2045,2050,2074,2048,2074
2063,2065,2069,2049,2051,2072,2053,2088
2065,2071,2068,2054,2049,2080,2056,2099
2064,2075,2072,2052,2049,2088,2063,2104
2063,2067,2080,2046,2042,2081,2043,2104
2054,2052,2069,2043,2027,2065,2035,2105
2056,2060,2067,2040,2022,2026,2036,2110
2062,2072,2066,2050,2031,2004,2032,2109
2061,2069,2065,2060,2040,2008,2042,2106
2056,2058,2051,2063,2038,2024,2056,2106
2054,2049,2042,2072,2040,2024,2038,2103
2049,2043,2047,2075,2045,2029,2038,2095
2043,2042,2043,2073,2043,2032,2054,2080
2045,2043,2040,2071,2043,2038,2050,2075
2041,2038,2042,2077,2054,2043,2040,2068
2039,2040,2042,2072,2071,2042,2038,2059
2044,2051,2045,2079,2093,2051,2042,2037
2048,2049,2048,2075,2091,2048,2026,2022
2047,2046,2051,2071,2073,2040,2033,2008
2048,2049,2058,2058,2062,2042,2051,1996
2046,2061,2056,2056,2063,2046,2061,1987
2048,2056,2056,2044,2048,2036,2018,1979
2039,2041,2043,2033,2039,2038,2016,1969
2040,2043,2035,2032,2041,2043,2056,1965
2040,2042,2034,2031,2032,2045,2024,1977
2045,2035,2027,2030,2025,2043,2024,1978
2050,2039,2029,2027,2032,2040,2029,1985
2043,2037,2028,2037,2042,2037,2034,2002
2041,2033,2010,2036,2041,2031,2027,2015
2049,2031,1997,2027,2042,2025,2043,2028
2046,2030,2000,2034,2055,2033,2051,2039
2041,2031,1995,2037,2061,2030,2047,2047
2040,2024,1993,2044,2054,2034,2049,2055
2035,2029,1995,2044,2051,2031,2020,2066
2044,2029,1991,2036,2046,2043,2039,2080
2044,2025,1992,2029,2046,2053,2053,2089
2045,2034,1996,2025,2052,2079,2039,2097
2046,2045,2010,2029,2046,2093,2035,2096
2039,2034,2010,2021,2035,2072,2043,2092
2038,2029,2012,2009,2026,2065,2047,2105
2051,2046,2026,2015,2035,2061,2058,2110
2059,2052,2037,2012,2036,2060,2047,2109
2062,2053,2047,2015,2040,2062,2057,2113
2064,2058,2064,2027,2039,2061,2066,2107
2064,2062,2083,2038,2038,2064,2062,2096
2066,2065,2107,2052,2046,2072,2054,2091
2066,2060,2105,2054,2032,2067,2053,2082
2067,2059,2102,2058,2033,2072,2054,2067
2063,2058,2085,2048,2032,2067,2058,2057
2057,2055,2075,2040,2031,2068,2041,2044
2050,2057,2078,2039,2033,2076,2050,2030
2054,2063,2088,2046,2031,2072,2053,2020
2053,2066,2085,2045,2028,2070,2063,2000
2045,2059,2080,2044,2009,2058,2032,1985
2037,2053,2074,2042,2001,2049,2030,1977
2031,2040,2066,2037,2015,2044,2027,1962
2031,2043,2065,2036,2037,2049,2032,1964
2037,2050,2057,2037,2053,2048,2030,1974
2042,2041,2047,2034,2039,2047,2033,1978
2041,2045,2048,2032,2036,2047,2029,1982
2048,2057,2060,2044,2029,2054,2018,2000
2054,2063,2060,2036,2034,2055,2025,2015
2058,2068,2062,2043,2040,2069,2054,2037
2062,2075,2071,2047,2045,2069,2047,2051
2061,2074,2060,2054,2059,2074,2037,2062
2058,2062,2050,2048,2059,2073,2047,2060
2051,2056,2032,2036,2053,2065,2039,2062
2046,2055,2033,2039,2062,2064,2048,2076
2050,2051,2026,2042,2057,2064,2025,2090
2050,2046,2023,2048,2065,2072,2036,2100
2049,2046,2020,2048,2075,2077,2021,2103
2056,2039,2013,2048,2085,2074,2044,2110
2041,2032,2009,2050,2078,2066,2045,2109
2040,2040,2013,2049,2058,2062,2041,2110
2049,2040,2015,2050,2035,2064,2058,2120
2046,2042,2021,2052,2034,2068,2040,2110
2050,2044,2021,2048,2023,2066,2055,2102
2052,2042,2025,2041,2002,2061,2054,2106
2056,2044,2032,2045,2014,2054,2052,2089
2055,2042,2033,2038,2034,2044,2047,2079
2055,2040,2033,2046,2059,2056,2051,2072
2049,2039,2040,2053,2076,2061,2024,2053
2048,2041,2056,2051,2072,2061,2048,2049
2050,2050,2067,2044,2064,2058,2063,2039
2058,2056,2072,2043,2043,2048,2050,2020
2046,2052,2063,2024,2008,2047,2021,2000
2043,2049,2067,2016,1996,2043,2031,1989
2040,2053,2074,2019,2005,2038,2029,1988
2049,2053,2062,2016,2001,2037,2048,1977
2044,2049,2050,2021,2008,2040,2042,1976
2045,2050,2053,2033,2015,2045,2046,1979
2046,2056,2053,2038,2026,2040,2042,1977
2045,2052,2053,2049,2044,2043,2041,1986
2049,2053,2062,2059,2104,2052,2051,1999
2059,2053,2056,2059,2145,2056,2038,2011
2061,2049,2050,2056,2156,2059,2040,2036
2062,2056,2059,2052,2157,2061,2037,2040
2068,2061,2056,2056,2155,2055,2039,2053
2058,2055,2050,2057,2154,2058,2032,2061
2060,2054,2057,2049,2153,2057,2036,2070
2055,2056,2045,2048,2126,2052,2041,2069
2057,2051,2045,2043,2088,2051,2046,2079
2046,2049,2044,2033,1982,2038,2051,2087
2047,2047,2034,2013,1840,2020,2053,2092
2047,2045,2035,2018,1872,2028,2048,2093
2039,2041,2036,2026,1931,2034,2043,2104
2042,2043,2038,2035,1986,2045,2046,2113
2045,2050,2046,2039,2019,2042,2053,2113
2053,2047,2043,2039,2031,2052,2026,2116
2053,2041,2033,2046,2037,2052,2020,2106
2047,2046,2036,2045,2042,2054,2020,2104
2052,2052,2044,2051,2048,2055,2018,2101
2056,2057,2036,2043,2046,2053,2054,2097
2062,2053,2032,2037,2045,2051,2032,2092
2054,2043,2041,2044,2049,2051,2036,2073
2054,2044,2051,2047,2049,2050,2035,2049
2054,2050,2055,2052,2043,2047,2029,2038
2042,2044,2064,2057,2033,2041,2021,2021
2039,2046,2060,2047,2014,2036,2031,2011
2038,2045,2045,2045,2011,2031,2007,1993
2039,2038,2036,2043,2012,2038,2038,1981
2037,2038,2030,2037,2015,2038,2028,1971
2030,2028,2034,2042,2021,2037,2045,1966
2028,2033,2036,2043,2026,2045,2037,1968
2034,2037,2034,2047,2022,2054,2035,1976
2040,2043,2043,2057,2038,2064,2037,1977
2039,2040,2032,2050,2042,2057,2029,1984
2040,2040,2034,2058,2048,2056,2033,1994
2040,2039,2032,2063,2047,2052,2033,2008
2040,2045,2035,2061,2051,2056,2026,2025
2049,2050,2040,2068,2047,2058,2037,2044
2054,2050,2042,2064,2046,2055,2038,2051
2052,2045,2042,2058,2044,2052,2056,2058
2040,2041,2050,2057,2057,2048,2044,2063
2044,2048,2053,2061,2054,2050,2040,2079
2046,2053,2059,2059,2038,2047,2026,2098
2046,2055,2054,2061,2038,2047,2032,2106
2056,2062,2065,2063,2045,2057,2035,2120
2063,2066,2057,2065,2042,2058,2043,2128
2056,2064,2055,2070,2044,2055,2041,2122
2054,2060,2057,2076,2049,2060,2030,2123
2061,2046,2044,2073,2050,2052,2041,2117
2053,2037,2043,2074,2039,2045,2032,2109
2050,2042,2038,2071,2046,2047,2044,2099
2050,2044,2040,2072,2045,2050,2050,2102
2041,2043,2041,2073,2047,2054,2048,2085
2046,2046,2043,2078,2045,2060,2052,2087
2040,2042,2036,2064,2040,2053,2049,2066
2044,2035,2029,2062,2044,2056,2044,2059
2042,2034,2033,2057,2045,2053,2058,2040
2036,2038,2029,2051,2042,2060,2059,2027
2041,2028,2034,2041,2043,2051,2045,2009
2039,2030,2024,2030,2044,2047,2044,1998
2039,2023,2015,2025,2033,2043,2049,1986
2036,2029,2015,2012,2037,2041,2040,1973
2029,2027,2010,2014,2037,2036,2046,1964
2038,2037,2018,2021,2041,2049,2039,1974
2047,2054,2037,2036,2048,2045,2056,1981
2042,2050,2034,2043,2045,2049,2043,1987
2052,2052,2027,2043,2052,2046,2040,1996
2057,2056,2028,2049,2046,2048,2047,2006
2055,2053,2030,2044,2045,2051,2037,2014
2053,2048,2029,2049,2049,2057,2020,2029
2053,2046,2033,2048,2051,2057,2027,2038
2053,2049,2032,2044,2048,2055,2028,2044
2046,2043,2029,2041,2049,2055,2036,2053
2046,2034,2026,2043,2038,2049,2032,2063
2046,2046,2043,2041,2033,2047,2002,2078
2053,2053,2052,2044,2020,2048,2015,2089
2055,2058,2063,2043,2020,2046,2028,2093
2065,2060,2063,2052,2023,2049,2049,2113
2057,2059,2063,2050,2021,2033,2054,2114
2044,2041,2047,2048,2022,2028,2035,2113
2041,2040,2047,2053,2037,2039,2036,2117
2054,2045,2053,2053,2042,2047,2054,2108
2050,2047,2058,2059,2042,2058,2047,2110
2051,2041,2055,2064,2046,2068,2052,2107
2048,2037,2052,2064,2042,2068,2037,2102
2037,2024,2040,2060,2050,2059,2052,2100
2039,2022,2032,2054,2079,2060,2025,2080
2039,2021,2027,2046,2090,2051,2042,2076
2029,2027,2027,2046,2080,2046,2028,2062
2032,2034,2044,2054,2056,2036,2031,2044
2038,2045,2048,2050,2045,2033,2025,2031
2041,2045,2046,2059,2053,2041,2038,2016
2042,2046,2047,2061,2062,2040,2047,2004
2047,2043,2044,2057,2041,2041,2030,1990
2037,2042,2047,2041,2020,2042,2032,1982
2037,2039,2036,2016,2004,2033,2027,1972
2036,2042,2043,2016,1990,2031,2042,1979
2040,2050,2054,2019,1989,2038,2017,1980
2041,2048,2065,2031,2012,2041,2037,1983
2045,2057,2069,2042,2043,2045,2039,1992
2042,2049,2065,2043,2062,2051,2047,2001
2044,2049,2058,2050,2062,2048,2025,2007
2051,2044,2055,2046,2040,2046,2023,2026
2052,2044,2045,2038,2018,2034,2036,2037
2044,2041,2049,2035,2012,2032,2024,2054
2049,2044,2050,2037,2019,2036,2023,2062
2047,2050,2054,2042,2022,2036,2039,2070
2043,2048,2035,2032,2007,2034,2046,2077
2046,2042,2020,2025,1992,2032,2037,2082
2042,2031,2000,2021,1983,2035,2031,2091
2039,2023,1985,2029,1981,2039,2038,2100
2041,2012,1972,2035,1981,2030,2014,2094
2030,2001,1965,2045,1988,2040,2029,2097
2033,2005,1972,2067,2019,2049,2027,2104
2038,2008,1983,2082,2067,2052,2037,2109
2040,2016,1999,2089,2090,2065,2056,2106
2037,2011,1993,2084,2086,2064,2055,2095
2032,2018,2013,2082,2076,2062,2044,2087
2030,2017,2009,2075,2064,2064,2038,2076
2038,2019,2007,2070,2060,2064,2027,2067
2038,2026,2009,2074,2072,2061,2037,2061
2043,2038,2042,2080,2099,2065,2033,2042
2044,2054,2067,2084,2105,2073,2032,2036
2043,2051,2082,2078,2090,2063,2049,2017
2042,2057,2097,2061,2072,2048,2045,2004
2048,2069,2105,2048,2058,2043,2040,2002
2053,2071,2096,2029,2023,2021,2028,1996
2062,2077,2082,2009,2006,2011,2017,1995
2062,2070,2068,2009,2042,2016,2046,1990
2059,2067,2071,2018,2042,2022,2042,1987
2064,2074,2069,2026,2012,2022,2033,1990
2069,2066,2063,2028,2066,2022,2052,1986
2060,2070,2061,2036,2102,2029,2034,1998
2056,2064,2069,2029,2087,2032,2036,2008
2055,2068,2066,2031,2067,2038,2045,2018
2052,2070,2071,2039,2055,2046,2070,2027
2056,2078,2084,2047,2058,2056,2065,2048
2068,2078,2076,2053,2063,2061,2069,2059
2061,2072,2066,2048,2052,2058,2073,2066
2052,2064,2058,2031,2010,2036,2061,2067
2052,2059,2055,2024,1990,2027,2054,2079
2060,2062,2064,2030,1999,2043,2052,2093
2058,2067,2068,2038,2009,2051,2067,2096
2050,2061,2061,2036,2009,2057,2062,2101
2042,2048,2047,2027,2015,2068,2064,2105
2053,2049,2047,2038,2030,2081,2070,2114
2057,2062,2053,2049,2045,2090,2064,2108
2051,2054,2050,2049,2051,2074,2070,2107
2052,2061,2061,2050,2048,2037,2061,2105
2057,2067,2060,2052,2046,2018,2062,2102
2050,2060,2045,2045,2045,2032,2061,2098
2050,2051,2049,2046,2076,2042,2072,2086
2049,2053,2052,2043,2087,2042,2066,2076
2052,2054,2063,2046,2082,2039,2068,2065
2049,2056,2062,2053,2070,2033,2067,2047
2056,2058,2064,2051,2075,2041,2069,2036
2054,2061,2062,2055,2089,2043,2057,2024
2054,2065,2068,2059,2093,2047,2058,2013
2050,2065,2064,2056,2085,2044,2066,1994
2048,2055,2065,2060,2088,2047,2036,1989
2051,2052,2058,2054,2098,2046,2050,1977
2046,2050,2062,2054,2104,2044,2026,1966
2052,2054,2057,2056,2084,2044,2041,1972
2048,2054,2049,2052,2066,2045,2044,1968
2057,2051,2045,2049,2092,2043,2045,1977
2056,2054,2042,2044,2097,2042,2037,1987
2056,2053,2037,2042,2091,2043,2043,2006
2058,2054,2038,2045,2086,2044,2042,2019
2061,2058,2047,2045,2065,2048,2043,2036
2060,2052,2049,2033,1999,2042,2051,2050
2057,2058,2046,2031,2001,2048,2040,2064
2061,2057,2040,2036,2014,2050,2059,2069
2060,2050,2038,2034,2028,2044,2041,2080
2047,2040,2032,2033,2032,2037,2051,2078
2046,2036,2024,2037,2028,2028,2050,2088
2043,2033,2031,2042,2027,2019,2044,2092
2038,2032,2040,2040,2015,2017,2047,2097
2032,2031,2048,2046,2018,2021,2036,2098
2036,2034,2066,2061,2025,2030,2043,2106
2044,2036,2073,2065,2035,2030,2046,2109
2046,2036,2068,2065,2045,2038,2042,2105
2042,2042,2053,2068,2062,2036,2045,2099
2050,2047,2048,2071,2067,2036,2044,2096
2047,2046,2048,2067,2073,2040,2058,2086
2049,2052,2045,2072,2077,2046,2059,2088
2048,2044,2040,2071,2075,2040,2060,2073
2042,2036,2036,2069,2083,2040,2053,2047
2036,2032,2036,2064,2081,2037,2050,2032
2029,2030,2030,2058,2084,2045,2062,2022
2032,2030,2022,2047,2079,2041,2059,2011
2043,2031,2022,2031,2051,2040,2046,1994
2033,2023,2017,2022,2005,2035,2057,1984
2035,2024,2025,2018,2010,2025,2060,1960
2038,2018,2033,2017,2040,2025,2048,1966
2032,2021,2033,2033,2053,2037,2045,1972
2038,2030,2034,2035,2047,2035,2048,1969
2039,2030,2038,2035,2054,2039,2041,1976
2042,2036,2037,2026,2052,2038,2047,1981
2044,2034,2035,2021,2050,2038,2031,1998
2038,2027,2032,2015,2044,2032,2023,2007
2043,2032,2036,2010,2036,2034,2047,2026
2044,2029,2033,2013,2030,2035,2059,2037
2044,2032,2045,2025,2037,2040,2035,2050
2051,2041,2049,2030,2040,2044,2043,2063
2048,2039,2048,2033,2039,2039,2054,2072
2050,2046,2055,2029,2030,2040,2049,2079
2053,2041,2056,2026,2026,2039,2047,2085
2052,2040,2056,2025,2022,2032,2038,2089
2049,2037,2057,2030,2028,2039,2023,2091
2045,2031,2057,2029,2030,2033,2019,2102
2052,2036,2061,2033,2041,2039,2042,2107
2056,2037,2053,2046,2050,2042,2047,2108
2055,2034,2048,2045,2059,2042,2056,2106
2052,2026,2042,2043,2064,2043,2056,2102
2059,2032,2047,2044,2056,2045,2041,2099
2062,2039,2042,2052,2070,2044,2050,2092
2061,2042,2050,2060,2069,2049,2058,2077
2058,2036,2051,2056,2067,2046,2048,2073
2050,2040,2054,2061,2066,2054,2046,2062
2061,2040,2057,2070,2056,2051,2068,2047
2054,2035,2048,2066,2059,2051,2052,2032
2050,2026,2039,2062,2056,2050,2035,2016
2051,2023,2037,2060,2054,2053,2054,2003
2048,2023,2033,2056,2050,2056,2063,1990
2044,2017,2040,2048,2049,2057,2061,1981
2045,2015,2042,2030,2043,2056,2055,1970
2047,2016,2056,2027,2046,2054,2061,1970
2054,2031,2068,2031,2049,2054,2064,1976
2055,2037,2069,2030,2032,2046,2059,1981
2062,2037,2067,2033,2039,2056,2056,1987
2053,2032,2062,2037,2032,2068,2058,1993
2056,2030,2054,2034,2037,2074,2055,2002
2048,2033,2051,2044,2043,2080,2033,2021
2056,2034,2046,2045,2085,2086,2046,2035
2058,2036,2052,2053,2100,2086,2042,2052
2054,2033,2046,2061,2109,2082,2070,2055
2054,2037,2054,2058,2111,2081,2056,2068
2049,2030,2050,2046,2104,2074,2052,2076
2048,2031,2057,2047,2089,2068,2054,2081
2055,2043,2062,2048,2078,2058,2047,2088
2053,2036,2054,2040,2052,2030,2050,2096
2047,2036,2052,2027,1990,1993,2044,2091
2041,2019,2046,2023,1888,1967,2021,2096
2048,2027,2049,2035,1879,1971,2045,2103
2054,2035,2054,2044,1941,1989,2044,2105
2056,2030,2058,2042,1981,2000,2035,2096
2057,2034,2057,2054,2010,2024,2050,2099
2057,2033,2059,2068,2033,2039,2055,2091
2056,2038,2058,2065,2041,2042,2044,2076
2050,2030,2048,2055,2044,2044,2045,2072
2055,2023,2037,2055,2049,2042,2050,2055
2046,2022,2032,2050,2061,2044,2060,2042
2041,2015,2035,2057,2068,2050,2054,2030
2041,2001,2029,2052,2063,2047,2046,2017
2035,2000,2020,2050,2058,2037,2048,1994
2029,2001,2017,2040,2061,2035,2067,1985
2035,2006,2024,2039,2063,2038,2059,1970
2029,2018,2037,2037,2051,2039,2062,1965
2029,2011,2032,2025,2039,2035,2065,1958
2030,2011,2024,2031,2043,2038,2047,1959
2039,2022,2038,2037,2047,2050,2072,1971
2053,2034,2057,2045,2049,2051,2077,1973
2052,2033,2061,2047,2018,2038,2062,1988
2050,2027,2062,2048,1999,2024,2037,1991
2041,2017,2048,2037,2002,2016,2058,2004
2041,2014,2030,2030,2004,2026,2060,2026
2040,2006,2014,2024,2020,2025,2027,2033
2046,2005,2024,2022,2032,2029,2028,2041
2054,2019,2048,2029,2052,2044,2013,2056
2060,2028,2061,2031,2055,2048,2021,2067
2057,2031,2059,2030,2060,2041,2049,2077
2067,2036,2067,2036,2066,2046,2044,2087
2069,2041,2068,2040,2075,2047,2051,2100
2061,2036,2066,2035,2068,2045,2042,2102
2053,2023,2060,2038,2064,2041,2021,2104
2055,2015,2061,2034,2060,2053,2034,2113
2061,2034,2069,2039,2049,2051,2033,2112
2068,2043,2074,2042,2038,2056,2029,2116
2068,2046,2080,2043,2051,2053,2041,2113
2064,2039,2076,2047,2055,2054,2034,2104
2065,2043,2075,2053,2051,2062,2042,2098
2061,2033,2075,2040,2056,2054,2031,2083
2054,2029,2078,2042,2055,2048,2054,2070
2057,2034,2076,2042,2065,2053,2046,2057
2056,2036,2077,2042,2066,2056,2054,2051
2058,2032,2062,2047,2055,2053,2042,2024
2058,2028,2060,2050,2066,2053,2032,2011
2056,2028,2061,2053,2081,2053,2036,2004
2059,2031,2061,2053,2078,2051,2060,1996
2060,2028,2055,2040,2059,2031,2054,1980
2053,2012,2041,2029,2038,2023,2034,1960
2046,2010,2036,2028,2038,2015,2059,1968
2049,2027,2050,2030,2036,2013,2052,1972
2056,2028,2054,2039,2022,2022,2050,1981
2054,2037,2059,2049,2030,2050,2060,1992
2051,2039,2061,2062,2065,2062,2067,2002
2061,2028,2058,2067,2081,2058,2050,2008
2055,2029,2050,2071,2101,2061,2045,2025
2058,2018,2045,2078,2127,2053,2040,2028
2050,2010,2041,2075,2143,2050,2049,2043
2052,2015,2050,2079,2149,2055,2050,2051
2050,2025,2058,2087,2130,2044,2060,2061
2047,2026,2059,2096,2097,2042,2046,2072
2053,2019,2048,2096,2068,2045,2044,2079
2047,2018,2042,2089,2019,2044,2017,2088
2058,2022,2049,2069,1905,2043,2046,2096
2051,2019,2044,2061,1911,2034,2047,2090
2050,2014,2039,2059,1946,2037,2041,2100
2047,2019,2023,2064,1976,2046,2054,2098
2051,2016,2016,2069,1985,2040,2058,2097
2049,2019,2032,2071,1991,2036,2040,2093
2046,2020,2048,2074,2010,2042,2047,2096
2054,2025,2054,2084,2055,2052,2068,2091
2054,2027,2048,2096,2110,2056,2058,2085
2054,2036,2049,2096,2151,2076,2049,2067
2064,2034,2059,2095,2145,2080,2055,2055
2065,2037,2064,2091,2125,2083,2076,2045
2062,2035,2064,2085,2105,2076,2076,2030
2065,2034,2065,2064,2089,2062,2060,2016
2064,2028,2047,2046,2074,2057,2061,2004
2045,2021,2025,2029,2052,2052,2063,1988
2046,2009,2014,2006,2020,2041,2048,1970
2038,2002,2010,1986,2010,2030,2044,1961
2043,2003,2026,1982,2015,2028,2032,1959
2048,2021,2051,1984,2034,2036,2038,1959
2048,2033,2058,1977,2040,2045,2053,1975
2056,2032,2041,1971,2039,2045,2057,1990
2056,2030,2041,1967,2043,2046,2060,1993
2060,2031,2040,1979,2041,2044,2052,1999
2060,2025,2049,1995,2033,2037,2043,2008
2049,2016,2047,2004,2033,2036,2042,2022
2042,2018,2053,2012,2043,2038,2050,2029
2043,2019,2050,2012,2048,2043,2052,2041
2045,2019,2049,2016,2049,2036,2059,2052
2052,2025,2064,2022,2051,2046,2061,2068
2055,2039,2064,2028,2053,2046,2054,2082
2060,2042,2069,2025,2053,2050,2039,2093
2058,2040,2061,2028,2053,2052,2041,2096
2059,2041,2061,2034,2042,2044,2023,2095
2042,2023,2046,2030,2049,2036,2038,2091
2040,2021,2031,2030,2042,2036,2020,2101
2043,2024,2038,2035,2056,2044,2060,2099
2041,2026,2042,2039,2058,2049,2058,2102
2047,2032,2051,2044,2064,2046,2048,2093
2047,2031,2066,2048,2072,2050,2043,2094
2046,2036,2065,2055,2072,2053,2045,2091
2041,2031,2058,2057,2073,2055,2059,2078
2046,2032,2046,2051,2063,2053,2051,2073
2045,2035,2044,2056,2060,2056,2063,2061
2049,2035,2036,2054,2058,2063,2061,2049
2049,2034,2032,2050,2053,2061,2046,2037
2057,2027,2030,2055,2057,2056,2055,2024
2046,2020,2023,2050,2050,2054,2051,2001
2046,2019,2020,2048,2041,2046,2038,1987
2047,2014,2019,2046,2038,2047,2059,1978
2041,2010,2020,2040,2036,2039,2058,1962
2038,2001,2020,2044,2048,2035,2053,1959
2038,2000,2021,2049,2072,2042,2038,1964
2039,1996,2006,2036,2084,2037,2056,1962
2034,1999,2006,2032,2065,2035,2032,1972
2036,2006,2026,2025,2052,2035,2055,1979
2043,2019,2048,2029,2061,2046,2032,1993
2038,2025,2052,2033,2061,2054,2040,2014
2046,2027,2058,2043,2087,2055,2026,2022
2046,2028,2054,2043,2095,2064,2038,2038
2044,2026,2048,2048,2088,2064,2051,2046
2049,2028,2060,2051,2072,2059,2038,2052
2050,2030,2052,2040,2042,2046,2041,2066
2044,2026,2045,2025,2004,2047,2056,2072
2045,2029,2047,2027,2037,2047,2038,2084
2049,2044,2058,2037,2063,2058,2048,2101
2052,2052,2071,2052,2108,2084,2060,2101
2051,2043,2051,2051,2100,2080,2052,2114
2058,2050,2042,2060,2113,2089,2081,2121
2054,2048,2048,2063,2132,2093,2079,2122
2059,2049,2060,2071,2146,2089,2068,2116
2069,2056,2077,2078,2121,2087,2073,2114
2066,2057,2090,2084,2114,2096,2076,2104
2067,2053,2094,2076,2112,2088,2068,2089
2064,2047,2090,2059,2071,2073,2050,2076
2056,2036,2071,2027,1935,2027,2046,2058
2046,2027,2058,2001,1831,1992,2034,2050
2043,2034,2057,2026,1881,2000,2047,2040
2051,2039,2068,2037,1946,2019,2052,2018
2056,2040,2068,2047,1997,2034,2063,2007
2050,2039,2067,2046,2034,2043,2044,1996
2052,2035,2069,2047,2043,2047,2066,1986
2042,2029,2065,2046,2020,2041,2045,1966
2045,2030,2066,2048,2032,2043,2045,1970
2051,2036,2068,2060,2013,2052,2054,1972
2040,2026,2059,2064,2013,2061,2054,1974
2051,2036,2061,2071,2028,2068,2034,1980
2052,2031,2058,2091,2040,2071,2055,1995
2047,2031,2062,2096,2034,2068,2060,2008
2054,2043,2065,2093,2018,2056,2056,2027
2064,2050,2073,2082,2007,2023,2071,2047
2064,2048,2072,2065,1990,2010,2058,2049
2055,2024,2053,2035,1985,2004,2039,2051
2053,2020,2047,2024,2018,2015,2048,2058
2051,2025,2049,2024,2024,2024,2028,2067
2047,2020,2039,2023,2024,2043,2030,2070
2041,2015,2040,2048,2106,2065,2047,2076
2044,2022,2040,2058,2120,2070,2049,2083
2040,2018,2039,2040,2092,2054,2028,2087
2038,2016,2049,2025,2062,2064,2041,2101
2052,2035,2067,2039,2063,2084,2065,2110
2065,2035,2063,2044,2060,2098,2060,2115
2064,2036,2052,2044,2065,2104,2069,2111
2062,2030,2042,2045,2060,2098,2054,2107
2059,2031,2036,2046,2053,2066,2042,2086
2056,2022,2034,2042,2037,2031,2051,2072
2048,2023,2037,2043,2041,2034,2048,2074
2050,2025,2044,2047,2056,2051,2084,2063
2060,2032,2054,2057,2062,2060,2070,2046
2053,2027,2053,2060,2071,2057,2054,2034
2046,2023,2050,2058,2066,2054,2055,2011
2042,2017,2045,2047,2060,2042,2043,1996
2033,2019,2050,2053,2063,2042,2047,1979
2035,2031,2060,2057,2069,2049,2046,1973
2042,2031,2057,2057,2060,2039,2034,1964
2038,2029,2059,2062,2055,2047,2025,1966
2051,2039,2061,2055,2064,2053,2032,1968
2049,2026,2052,2052,2059,2051,2037,1970
2042,2027,2043,2045,2050,2045,2037,1979
2046,2030,2029,2041,2045,2047,2044,1995
2048,2031,2026,2047,2044,2053,2044,2010
2050,2026,2030,2052,2053,2052,2043,2021
2048,2026,2031,2054,2042,2045,2038,2029
2046,2023,2031,2055,2041,2043,2056,2038
2050,2025,2040,2050,2036,2040,2038,2062
2048,2025,2041,2052,2044,2033,2056,2067
2051,2026,2037,2053,2055,2036,2046,2085
2044,2025,2036,2050,2056,2049,2046,2079
2043,2022,2033,2054,2058,2050,2039,2091
2040,2026,2038,2043,2055,2046,2029,2093
2040,2019,2040,2045,2039,2040,2030,2097
2039,2020,2051,2036,2046,2039,2033,2105
2045,2033,2058,2040,2044,2045,2051,2112
2059,2037,2074,2044,2056,2051,2047,2114
2056,2042,2082,2049,2054,2048,2056,2115
2062,2042,2088,2059,2057,2054,2050,2107
2055,2047,2092,2064,2055,2059,2069,2101
2049,2044,2084,2056,2062,2064,2055,2092
2047,2042,2068,2052,2058,2057,2038,2077
2048,2036,2055,2046,2062,2054,2035,2062
2048,2031,2054,2038,2052,2052,2020,2050
2049,2031,2052,2042,2056,2050,2046,2037
2049,2026,2042,2038,2055,2044,2039,2012
2037,2022,2046,2049,2055,2042,2039,1993
2038,2025,2046,2049,2057,2050,2044,1981
2043,2027,2048,2059,2056,2049,2046,1982
2042,2021,2048,2059,2048,2041,2041,1963
2038,2014,2051,2064,2048,2050,2044,1962
2045,2027,2056,2082,2056,2052,2040,1967
2044,2028,2052,2086,2052,2051,2049,1971
2042,2020,2041,2086,2066,2050,2043,1984
2042,2021,2041,2079,2064,2051,2044,1982
2043,2020,2039,2089,2065,2051,2033,1999
2038,2014,2041,2092,2059,2048,2047,2006
2033,2012,2036,2089,2067,2046,2046,2014
2028,2010,2035,2086,2068,2056,2030,2024
2031,2013,2040,2058,2076,2059,2033,2039
2037,2016,2042,2052,2090,2065,2041,2056
2028,2013,2036,2075,2117,2071,2030,2067
2039,2014,2037,2091,2106,2061,2038,2074
2045,2019,2034,2091,2089,2049,2036,2088
2048,2026,2042,2086,2075,2041,2041,2102
2053,2030,2042,2080,2077,2043,2043,2114
2058,2039,2041,2054,2031,2041,2044,2116
2058,2046,2037,2032,1962,2027,2048,2114
2055,2034,2024,2003,1898,2015,2050,2102
2046,2019,2014,1996,1909,2016,2046,2108
2042,2018,2013,1999,1959,2028,2030,2097
2048,2024,2012,2021,2003,2039,2034,2094
2054,2041,2016,2024,2033,2044,2054,2082
2063,2044,2009,2025,2024,2040,2064,2078
2062,2046,2009,2010,2014,2038,2028,2061
2060,2050,2006,2004,2026,2046,2061,2050
2058,2044,2009,1994,2036,2043,2063,2030
2058,2042,2012,2001,2057,2040,2050,2011
2054,2037,2006,2000,2050,2037,2036,1996
2050,2035,2010,2007,2064,2038,2048,1988
2043,2028,2021,2027,2110,2047,2037,1978
2037,2027,2027,2042,2131,2050,2046,1970
2046,2033,2037,2058,2134,2056,2044,1978
2056,2042,2051,2073,2117,2057,2052,1986
2058,2052,2066,2082,2125,2064,2052,1996
2059,2061,2082,2073,2100,2061,2058,1995
2063,2061,2086,2062,2054,2051,2040,2008
2066,2058,2093,2045,2007,2035,2038,2014
2059,2054,2103,2050,2024,2030,2028,2031
2054,2048,2115,2049,1964,2022,2055,2043
2055,2051,2108,2040,1936,2018,2062,2054
2049,2056,2105,2058,1978,2031,2051,2068
2052,2064,2119,2070,2017,2036,2067,2074
2054,2064,2116,2073,2024,2030,2056,2086
2060,2064,2103,2074,2005,2010,2044,2102
2065,2058,2098,2062,1979,2004,2035,2109
2060,2049,2082,2056,1960,1995,2027,2106
2045,2040,2064,2045,1956,1997,2024,2116
2055,2040,2072,2047,1984,2014,2046,2116
2061,2054,2080,2066,2028,2035,2061,2122
2053,2051,2082,2054,2054,2053,2067,2105
2045,2043,2071,2042,2044,2064,2071,2102
2043,2038,2072,2048,2033,2056,2066,2100
2047,2037,2065,2055,2031,2059,2068,2094
2047,2042,2067,2053,2034,2062,2075,2084
2045,2039,2063,2056,2054,2058,2068,2072
2045,2037,2061,2068,2088,2062,2051,2056
2041,2033,2059,2065,2114,2065,2043,2044
2038,2033,2062,2063,2111,2070,2071,2025
2039,2028,2059,2058,2065,2055,2061,2011
2042,2036,2058,2050,2026,2034,2050,1990
2042,2030,2052,2029,1996,2000,2030,1975
2036,2032,2048,2026,2017,1987,2029,1964
2032,2024,2047,2043,2069,2013,2060,1965
2033,2019,2046,2058,2074,2029,2062,1964
2039,2024,2057,2058,2060,2043,2054,1964
2032,2029,2057,2065,2074,2057,2035,1974
2034,2024,2054,2062,2093,2059,2034,1981
2040,2026,2047,2063,2091,2069,2049,1991
2035,2024,2043,2070,2074,2073,2062,1999
2037,2028,2048,2078,2066,2076,2061,2013
2036,2026,2051,2087,2061,2078,2061,2027
2041,2031,2057,2087,2055,2077,2050,2043
2046,2041,2060,2085,2035,2074,2057,2048
2040,2034,2053,2072,2008,2067,2056,2056
2039,2034,2051,2058,2002,2072,2064,2070
2040,2040,2056,2064,2005,2075,2062,2080
2037,2040,2057,2068,2002,2070,2062,2088
2037,2044,2064,2075,2006,2070,2074,2096
2051,2041,2060,2064,2022,2046,2074,2105
2046,2040,2059,2073,2061,2029,2083,2107
2053,2050,2058,2062,2066,2017,2077,2106
2046,2048,2052,2055,2053,2004,2069,2111
2051,2049,2056,2046,2025,2002,2063,2107
2055,2051,2060,2046,1996,2006,2058,2104
2062,2059,2053,2040,1982,2019,2044,2102
2065,2062,2048,2028,1987,2028,2044,2088
2060,2052,2034,2016,1995,2032,2050,2071
2046,2030,2016,2028,2026,2043,2040,2056
2042,2039,2032,2040,2043,2054,2067,2040
2044,2042,2040,2042,2056,2057,2077,2034
2054,2048,2036,2060,2090,2072,2060,2006
2047,2045,2033,2057,2118,2073,2077,1990
2043,2044,2033,2061,2121,2074,2051,1988
2045,2038,2038,2059,2121,2068,2050,1966
2041,2031,2023,2052,2119,2055,2057,1960
2036,2032,2026,2058,2128,2062,2078,1963
2043,2053,2035,2048,2103,2057,2078,1970
2041,2047,2035,2043,2085,2051,2060,1978
2044,2042,2045,2034,2058,2037,2058,1982
2043,2042,2061,2017,1952,2025,2044,1999
2042,2046,2065,2022,1924,2042,2056,2010
2050,2048,2065,2040,1964,2052,2050,2020
2052,2053,2051,2046,1989,2052,2042,2042
2051,2045,2043,2042,1990,2054,2060,2051
2049,2039,2035,2037,1988,2049,2075,2059
2047,2036,2032,2044,1998,2051,2055,2072
2049,2038,2041,2047,2000,2056,2062,2080
2054,2052,2061,2065,2027,2061,2070,2093
2062,2064,2059,2079,2046,2060,2083,2100
2056,2064,2052,2071,2015,2032,2071,2108
2055,2056,2054,2062,1986,2008,2055,2113
2055,2052,2053,2074,2039,2013,2039,2104
2057,2052,2062,2091,2136,2041,2058,2091
2042,2039,2068,2080,2147,2043,2051,2092
2037,2039,2061,2073,2087,2044,2051,2098
2049,2050,2079,2081,2034,2046,2063,2090
2051,2048,2093,2071,1968,2047,2048,2088
2054,2046,2091,2078,1972,2048,2028,2078
2046,2035,2078,2085,2009,2043,2039,2063
2042,2033,2081,2093,2031,2048,2060,2049
2044,2044,2085,2102,2031,2050,2042,2034
2041,2042,2087,2112,2036,2053,2038,2021
2036,2042,2092,2116,2036,2051,2072,1994
2033,2038,2099,2121,2040,2047,2070,1988
2040,2043,2088,2123,2042,2046,2042,1982
2038,2041,2077,2105,2056,2047,2066,1973
2039,2040,2054,2091,2065,2046,2057,1962
2037,2025,2032,2071,2066,2042,2050,1956
2034,2031,2027,2056,2058,2046,2052,1970
2037,2038,2017,2033,2048,2047,2054,1973
2040,2034,2015,2010,2037,2045,2050,1977
2044,2036,2011,1999,2032,2040,2048,1998
2050,2038,2003,1999,2033,2034,2052,2011
2048,2033,1997,2002,2030,2032,2060,2029
2050,2042,2006,2011,2031,2038,2064,2033
2041,2041,2024,2022,2027,2045,2050,2040
2034,2031,2024,2030,2026,2043,2049,2047
2035,2033,2032,2040,2026,2040,2054,2070
2040,2049,2047,2053,2035,2049,2058,2078
2045,2066,2071,2066,2052,2054,2064,2086
2052,2072,2086,2077,2059,2058,2065,2091
2047,2069,2090,2076,2050,2054,2058,2099
2043,2055,2080,2069,2054,2047,2061,2099
2045,2050,2076,2064,2084,2046,2055,2106
2043,2063,2075,2052,2092,2051,2057,2102
2043,2062,2076,2029,2072,2059,2057,2110
2048,2059,2068,2015,2089,2071,2062,2102
2053,2054,2067,2019,2101,2081,2062,2093
2045,2056,2063,2028,2088,2080,2069,2088
2048,2056,2056,2033,2046,2066,2046,2080
2038,2049,2056,2030,1990,2046,2044,2064
2032,2042,2047,2019,1899,2013,2046,2053
2039,2042,2049,2023,1904,2001,2052,2039
2045,2047,2058,2034,1968,2022,2058,2022
2050,2041,2051,2027,1975,2025,2060,2008
2042,2040,2051,2028,2001,2042,2052,1996
2037,2042,2049,2042,2046,2056,2068,1983
2040,2047,2052,2054,2076,2060,2074,1974
2038,2034,2048,2047,2075,2054,2056,1964
2036,2041,2049,2049,2066,2063,2070,1959
2050,2058,2058,2057,2068,2056,2077,1967
2049,2058,2053,2055,2068,2060,2070,1977
2048,2048,2046,2052,2060,2065,2062,1986
2043,2040,2041,2045,2049,2061,2062,1986
2040,2039,2037,2049,2034,2070,2066,2001
2043,2045,2046,2045,2029,2069,2065,2016
2048,2048,2048,2049,2030,2066,2066,2029
2052,2049,2049,2047,2037,2059,2064,2045
2042,2044,2042,2040,2033,2009,2063,2047
2038,2043,2037,2041,2034,1981,2039,2059
2036,2039,2043,2043,2064,1993,2041,2063
2033,2034,2040,2051,2075,1997,2027,2076
2038,2034,2033,2047,2076,2003,2048,2078
2038,2037,2040,2041,2052,2009,2045,2082
2038,2037,2039,2036,2031,2014,2057,2085
2044,2030,2031,2033,2035,2034,2062,2099
2045,2031,2036,2038,2036,2062,2071,2108
2048,2040,2038,2030,2028,2078,2072,2092
2039,2035,2035,2030,2040,2063,2054,2092
2040,2035,2041,2035,2052,2065,2061,2089
2048,2042,2047,2039,2051,2074,2064,2085
2046,2036,2046,2042,2051,2090,2071,2082
2053,2037,2046,2040,2041,2088,2070,2070
2053,2042,2046,2037,2036,2084,2061,2062
2053,2042,2044,2031,2029,2069,2064,2037
2036,2034,2040,2035,2040,2035,2053,2019
2037,2043,2054,2054,2057,2029,2060,2005
2044,2038,2049,2052,2052,2031,2041,1985
2041,2041,2047,2040,2034,2040,2041,1974
2051,2053,2050,2045,2043,2037,2043,1966
2049,2055,2045,2046,2048,2038,2048,1962
2046,2052,2046,2048,2052,2054,2058,1967
2051,2056,2058,2052,2063,2054,2058,1965
2051,2059,2058,2052,2060,2049,2050,1976
2056,2058,2055,2046,2054,2049,2043,1980
2050,2062,2060,2047,2050,2049,2045,1990
2056,2064,2058,2047,2057,2047,2051,2007
2052,2067,2057,2055,2061,2048,2057,2022
2054,2062,2057,2062,2077,2048,2064,2028
2054,2057,2059,2058,2078,2049,2050,2034
2052,2057,2050,2055,2081,2048,2061,2048
2050,2053,2050,2047,2079,2044,2058,2058
2046,2048,2046,2052,2075,2047,2044,2062
2046,2046,2049,2051,2074,2050,2042,2082
2043,2048,2048,2051,2074,2050,2049,2083
2046,2058,2050,2052,2068,2047,2051,2086
2031,2039,2040,2045,2060,2046,2043,2088
2036,2044,2040,2042,2059,2044,2036,2090
2033,2041,2043,2041,2056,2041,2048,2089
2040,2045,2049,2046,2048,2042,2057,2090
2035,2036,2041,2042,2047,2043,2046,2083
2039,2033,2033,2038,2041,2045,2053,2080
2031,2035,2038,2033,2047,2046,2059,2075
2033,2034,2042,2038,2058,2047,2049,2056
2029,2040,2039,2044,2056,2047,2054,2048
2026,2037,2032,2047,2047,2051,2053,2041
2029,2037,2030,2043,2042,2043,2052,2030
2027,2047,2028,2046,2037,2043,2059,2024
2039,2046,2024,2051,2038,2047,2045,2008
2041,2042,2010,2051,2034,2042,2042,1994
2044,2041,2003,2047,2038,2049,2042,1975
2045,2040,1998,2058,2039,2051,2061,1969
2040,2036,1992,2053,2044,2052,2048,1959
2045,2037,1989,2056,2040,2054,2040,1960
2053,2051,1992,2073,2036,2060,2025,1967
2054,2050,1995,2071,2029,2060,2030,1966
2047,2040,1983,2066,2051,2063,2028,1973
2043,2027,1977,2049,2079,2060,2027,1980
2035,2032,1988,2039,2044,2045,2010,1995
2038,2040,1999,2029,2021,2035,2020,2020
2043,2049,2019,2031,2031,2025,2039,2025
2047,2061,2042,2044,2038,2017,2012,2041
2042,2064,2050,2057,2039,2028,1993,2044
2037,2061,2051,2063,2035,2029,2020,2057
2040,2055,2050,2049,2024,2033,2027,2067
2044,2053,2057,2051,2033,2034,2021,2070
2039,2048,2058,2047,2056,2035,2036,2087
2046,2050,2051,2032,2055,2030,2032,2091
2037,2033,2033,2019,2043,2024,2027,2100
2039,2035,2026,2013,2037,2032,2033,2107
2055,2056,2051,2021,2048,2042,2045,2113
2061,2072,2083,2026,2047,2049,2042,2118
2067,2085,2102,2028,2034,2042,2044,2102
2062,2078,2107,2041,2030,2042,2042,2099
2059,2072,2103,2043,2042,2042,2044,2091
2054,2069,2093,2046,2046,2036,2040,2080
2060,2071,2093,2048,2059,2041,2034,2074
2055,2064,2088,2066,2072,2051,2050,2059
2051,2068,2084,2083,2080,2055,2064,2045
2045,2072,2081,2088,2079,2059,2071,2034
2053,2073,2080,2079,2066,2061,2050,2008
2050,2077,2074,2063,2052,2057,2052,1990
2050,2071,2080,2064,2051,2054,2069,1983
2049,2069,2075,2060,2041,2045,2034,1974
2051,2066,2070,2049,2039,2035,2030,1961
2053,2070,2075,2050,2045,2029,2034,1971
2063,2090,2092,2061,2047,2026,2024,1978
2074,2084,2092,2069,2058,2030,2035,1982
2064,2082,2079,2064,2066,2037,2064,1982
2060,2077,2072,2064,2062,2045,2048,1994
2058,2072,2073,2057,2067,2045,2063,2007
2055,2083,2070,2068,2068,2051,2064,2019
2059,2080,2070,2075,2075,2047,2033,2041
2061,2080,2068,2081,2076,2034,2040,2051
2058,2078,2064,2097,2066,2038,2050,2059
2058,2072,2067,2107,2064,2042,2049,2062
2058,2066,2060,2110,2064,2049,2051,2069
2054,2064,2057,2107,2059,2031,2048,2065
2043,2051,2059,2104,2070,2032,2044,2067
2040,2047,2056,2108,2076,2029,2041,2077
2041,2036,2045,2089,2064,2028,2013,2084
2034,2035,2038,2076,2077,2026,2029,2087
2035,2045,2053,2075,2080,2035,2029,2092
2043,2048,2045,2065,2094,2038,2022,2089
2041,2045,2040,2055,2111,2044,2029,2091
2034,2040,2032,2039,2078,2039,2035,2080
2033,2044,2026,2012,2026,2033,2051,2072
2040,2043,2036,2028,2067,2055,2067,2068
2037,2050,2047,2048,2087,2069,2074,2065
2041,2053,2051,2038,2094,2069,2067,2054
2042,2056,2035,2010,2076,2059,2066,2042
2047,2065,2036,2007,2048,2057,2065,2031
2049,2067,2030,1995,1964,2048,2063,2010
2052,2068,2024,2008,1988,2051,2074,1996
2064,2080,2044,2030,2047,2056,2066,1989
2069,2085,2050,2035,2083,2052,2061,1973
2062,2078,2054,2035,2069,2046,2061,1968
2059,2080,2059,2041,2044,2049,2065,1973
2060,2083,2063,2035,2005,2041,2063,1976
2053,2074,2053,2011,1957,2033,2065,1979
2053,2071,2048,2002,1904,2020,2042,1989
2048,2055,2039,1993,1847,2005,2025,1995
2042,2054,2034,2003,1914,2021,2049,2010
2052,2060,2037,2018,1996,2039,2054,2022
2053,2061,2040,2027,2051,2057,2051,2033
2058,2064,2034,2036,2075,2058,2049,2035
2045,2059,2036,2038,2065,2040,2036,2044
2034,2052,2035,2030,2011,2053,2031,2046
2039,2058,2047,2026,2000,2054,2039,2059
2038,2053,2041,2015,1989,2064,2025,2065
2027,2056,2034,2025,1981,2084,2036,2073
2036,2061,2039,2033,1978,2068,2014,2081
2043,2060,2036,2032,1973,2024,2033,2093
2050,2063,2039,2057,2028,2033,2046,2110
2058,2074,2049,2079,2114,2043,2043,2112
2057,2072,2050,2077,2166,2051,2044,2113
2053,2065,2047,2073,2171,2077,2052,2111
2045,2058,2049,2072,2147,2081,2050,2100
2051,2062,2061,2063,2135,2055,2053,2084
2055,2064,2062,2060,2118,2027,2042,2079
2052,2067,2072,2057,2108,2006,2054,2070
2053,2068,2069,2058,2104,2003,2067,2057
2055,2066,2073,2055,2102,2015,2064,2040
2055,2066,2058,2056,2097,2027,2066,2022
2052,2061,2057,2051,2088,2043,2063,2004
2043,2060,2048,2050,2086,2051,2060,1984
2043,2057,2048,2041,2060,2056,2062,1980
2041,2057,2051,2045,2061,2061,2063,1969
2044,2048,2045,2047,2066,2054,2046,1961
2040,2049,2045,2053,2072,2055,2056,1967
2051,2057,2048,2052,2087,2060,2060,1969
2054,2059,2041,2059,2094,2058,2058,1977
2049,2057,2047,2058,2083,2056,2059,1983
2052,2065,2050,2061,2096,2060,2060,1999
2046,2069,2041,2056,2087,2063,2059,2007
2045,2057,2038,2060,2074,2064,2053,2022
2047,2060,2027,2052,2077,2063,2064,2036
2039,2047,2021,2044,2069,2061,2059,2052
2036,2043,2010,2042,2064,2057,2059,2057
2042,2038,2009,2036,2060,2056,2053,2070
2037,2042,2007,2035,2060,2054,2042,2081
2043,2040,2008,2039,2061,2046,2041,2086
2042,2040,2009,2040,2064,2036,2046,2091
2039,2040,2009,2036,2053,2025,2039,2094
2035,2036,2011,2040,2052,2033,2032,2098
2036,2035,2022,2048,2058,2047,2045,2105
2044,2053,2049,2054,2056,2050,2051,2107
2048,2066,2056,2054,2055,2049,2047,2098
2053,2066,2055,2054,2048,2052,2054,2097
2050,2058,2052,2056,2053,2056,2049,2099
2043,2053,2051,2057,2073,2062,2054,2080
2047,2045,2043,2063,2089,2069,2041,2079
2049,2052,2050,2069,2110,2081,2055,2066
2050,2060,2056,2071,2118,2085,2047,2058
2057,2063,2063,2071,2122,2087,2058,2046
2050,2065,2065,2072,2126,2085,2058,2030
2052,2073,2063,2068,2114,2083,2065,2018
2057,2066,2059,2066,2096,2075,2046,2007
2053,2067,2053,2061,2101,2079,2056,2000
2053,2070,2052,2059,2089,2071,2054,1990
2045,2060,2048,2040,2052,2055,2047,1982
2048,2070,2049,2046,2023,2053,2066,1980
2044,2080,2057,2048,2015,2043,2049,1985
2044,2073,2056,2046,2014,2037,2050,1993
2052,2065,2049,2055,2009,2041,2054,2003
2047,2065,2055,2056,1995,2040,2057,2014
2051,2058,2049,2047,1982,2020,2028,2019
2041,2048,2035,2046,2007,2024,2017,2041
2042,2045,2040,2062,2069,2043,2035,2044
2045,2050,2043,2064,2086,2050,2034,2061
2046,2055,2041,2060,2061,2042,2027,2069
2039,2046,2037,2051,2041,2041,2013,2068
2034,2048,2040,2046,2032,2043,2014,2078
2038,2053,2039,2044,2038,2042,2034,2081
2041,2053,2034,2050,2060,2049,2035,2090
2041,2055,2036,2062,2088,2055,2029,2102
2043,2049,2040,2071,2087,2054,2045,2114
2046,2061,2051,2070,2087,2056,2031,2122
2043,2065,2048,2070,2088,2051,2040,2115
2046,2068,2045,2072,2089,2050,2039,2111
2052,2062,2047,2072,2082,2057,2044,2114
2052,2062,2042,2070,2076,2058,2051,2111
2049,2072,2037,2069,2060,2055,2041,2090
2039,2066,2034,2060,2034,2050,2035,2080
2042,2067,2034,2056,2017,2044,2022,2069
2038,2059,2038,2051,2012,2045,2022,2056
2041,2064,2037,2041,2008,2049,2039,2035
2038,2059,2037,2035,2023,2055,2058,2015
2034,2056,2036,2042,2041,2059,2041,2001
2044,2059,2045,2042,2033,2060,2045,1996
2045,2065,2039,2042,2044,2061,2053,1989
2044,2058,2037,2047,2050,2062,2040,1979
2038,2062,2032,2040,2046,2059,2038,1973
2046,2066,2037,2042,2047,2079,2044,1978
2048,2064,2040,2044,2050,2087,2033,1976
2042,2056,2040,2039,2044,2093,2029,1978
2030,2050,2029,2035,2041,2091,2012,1988
2029,2047,2034,2042,2038,2059,2012,2005
2032,2053,2039,2040,2038,2036,2004,2018
2031,2061,2031,2045,2040,2032,2023,2039
2031,2058,2034,2045,2048,2046,2027,2048
2038,2061,2037,2047,2048,2048,2019,2053
2034,2059,2030,2046,2048,2051,2017,2060
2036,2060,2028,2042,2041,2046,2016,2064
2032,2060,2027,2047,2041,2044,2021,2076
2022,2049,2034,2049,2047,2048,2024,2084
2028,2058,2042,2057,2052,2051,2032,2091
2027,2055,2042,2060,2041,2046,1993,2093
2023,2054,2041,2068,2041,2047,2006,2095
2028,2056,2050,2070,2049,2053,2012,2106
2032,2057,2045,2064,2045,2051,2025,2106
2037,2059,2047,2061,2044,2047,2017,2103
2047,2059,2044,2062,2050,2044,2016,2100
2047,2060,2040,2064,2042,2050,2045,2100
2049,2060,2038,2067,2050,2047,2050,2080
2048,2057,2032,2062,2046,2046,2034,2082
2047,2054,2027,2049,2040,2042,2008,2065
2048,2059,2032,2043,2033,2041,2010,2048
2046,2068,2038,2041,2034,2042,2017,2033
2053,2073,2063,2044,2041,2039,2038,2020
2056,2073,2071,2048,2053,2042,2036,2011
2057,2079,2067,2047,2053,2042,2054,1999
2056,2090,2075,2057,2055,2036,2045,1985
2056,2081,2063,2050,2040,2021,2031,1977
2049,2070,2054,2044,2040,2022,2032,1974
2045,2073,2057,2048,2044,2020,2035,1976
2044,2075,2062,2052,2044,2019,2032,1979
2038,2059,2053,2045,2037,2020,2024,1981
2035,2062,2056,2047,2041,2028,2035,1988
2044,2071,2061,2047,2022,2048,2022,2002
2046,2059,2056,2043,2021,2077,2032,2017
2048,2061,2048,2042,2024,2096,2038,2031
2043,2056,2039,2042,2019,2088,2025,2048
2042,2060,2053,2051,2026,2071,2034,2063
2043,2065,2051,2054,2035,2074,2053,2065
2042,2063,2049,2054,2037,2075,2048,2082
2053,2069,2054,2056,2034,2074,2030,2090
2058,2069,2054,2057,2027,2076,2030,2101
2051,2069,2052,2048,2017,2081,2013,2100
2041,2054,2045,2041,2022,2077,2004,2098
2036,2052,2040,2044,2048,2089,2024,2104
2044,2059,2047,2044,2069,2096,2042,2116
2042,2067,2047,2049,2057,2080,2044,2114
2040,2067,2055,2049,2048,2047,2058,2111
2047,2068,2055,2056,2046,2056,2056,2105
2041,2064,2045,2059,2047,2065,2050,2100
2045,2069,2054,2056,2057,2067,2045,2097
2052,2068,2058,2061,2071,2074,2055,2084
2047,2063,2067,2061,2079,2088,2056,2075
2048,2068,2065,2067,2087,2098,2065,2060
2054,2069,2064,2072,2110,2096,2044,2046
2051,2071,2077,2079,2135,2093,2044,2029
2047,2076,2077,2076,2138,2086,2042,2015
2047,2075,2080,2073,2133,2077,2034,2001
2039,2073,2067,2074,2116,2064,2027,1990
2045,2068,2062,2058,2089,2051,2032,1982
2037,2059,2057,2058,2084,2052,2046,1973
2039,2061,2057,2061,2083,2048,2030,1978
2043,2066,2055,2059,2116,2044,2037,1976
2044,2058,2046,2039,2099,2028,2037,1980
2040,2062,2031,2034,2052,2024,2030,1998
2045,2056,2030,2028,2078,2031,2035,2007
2046,2061,2039,2036,2120,2037,2036,2026
2045,2071,2047,2044,2123,2046,2031,2046
2055,2079,2051,2050,2128,2059,2045,2053
2040,2068,2039,2042,2091,2065,2043,2064
2043,2070,2044,2037,2026,2066,2041,2067
2043,2068,2039,2024,1909,2053,2036,2077
2047,2068,2043,2028,1916,2059,2047,2090
2048,2065,2043,2039,1964,2057,2040,2099
2044,2063,2043,2051,1986,2044,2047,2101
2041,2065,2044,2039,1913,2006,2021,2098
2038,2060,2038,2041,1896,1985,2013,2100
2034,2054,2034,2046,1913,1998,2010,2097
2027,2047,2028,2039,1928,2037,2017,2098
2024,2045,2029,2038,1968,2054,2029,2090
2021,2047,2024,2020,1981,2062,2011,2088
2030,2049,2025,2024,2027,2086,2030,2090
2041,2061,2039,2052,2094,2068,2055,2095
2045,2065,2049,2061,2146,2061,2047,2090
2049,2062,2045,2064,2137,2084,2053,2073
2044,2062,2044,2066,2103,2082,2048,2057
2046,2056,2051,2058,2074,2074,2058,2042
2047,2059,2049,2057,2059,2068,2053,2019
2046,2055,2047,2054,2044,2069,2051,2010
2039,2058,2049,2057,2051,2072,2043,1992
2036,2058,2051,2054,2060,2070,2041,1980
2039,2058,2048,2054,2078,2061,2041,1977
2040,2057,2049,2054,2079,2050,2026,1971
2037,2062,2049,2056,2089,2043,2033,1971
2041,2058,2036,2046,2093,2032,2006,1973
2034,2060,2029,2055,2089,2030,2017,1981
2035,2057,2042,2072,2078,2026,2028,2000
2042,2065,2056,2085,2061,2026,2020,2006
2042,2064,2052,2080,2045,2013,2015,2008
2044,2059,2060,2092,2052,2006,2012,2027
2036,2056,2058,2090,2062,2001,2020,2042
2045,2066,2063,2096,2070,2008,2016,2048
2041,2062,2047,2082,2068,2030,2037,2057
2037,2061,2038,2084,2062,2044,2024,2061
2041,2062,2027,2077,2056,2059,2038,2062
2037,2059,2014,2070,2058,2061,2043,2066
2037,2045,2004,2064,2051,2071,2045,2073
2035,2055,2002,2057,2056,2064,2043,2077
2033,2049,1988,2039,2046,2064,2037,2086
2030,2050,1983,2039,2051,2063,2064,2097
2036,2061,1987,2035,2052,2065,2050,2097
2041,2060,1982,2016,2045,2056,2047,2101
2050,2062,1992,2011,2046,2055,2045,2102
2053,2070,2010,2015,2056,2058,2047,2092
2052,2078,2034,2026,2060,2068,2055,2094
2052,2076,2046,2039,2071,2070,2048,2085
2054,2068,2047,2037,2075,2069,2045,2072
2052,2059,2048,2048,2069,2073,2041,2067
2050,2060,2051,2041,2068,2075,2048,2050
2051,2074,2076,2058,2085,2077,2057,2036
2054,2086,2097,2073,2089,2081,2054,2022
2049,2078,2092,2066,2088,2078,2044,2001
2037,2071,2085,2052,2083,2073,2052,1993
2033,2057,2076,2040,2075,2055,2063,1980
2028,2053,2074,2040,2068,2047,2044,1974
2032,2052,2069,2043,2065,2041,2049,1979
2039,2060,2056,2041,2067,2033,2054,1984
2037,2052,2041,2043,2059,2033,2052,1991
2040,2057,2048,2052,2058,2032,2026,1994
2041,2067,2065,2057,2064,2049,2043,2012
2048,2074,2069,2063,2070,2051,2049,2024
2048,2073,2064,2063,2069,2049,2027,2032
2044,2062,2058,2058,2065,2050,2052,2046
2044,2068,2060,2047,2059,2059,2025,2059
2047,2066,2055,2041,2061,2065,2055,2071
2052,2070,2054,2041,2062,2067,2049,2084
2045,2058,2060,2046,2054,2062,2050,2081
2043,2052,2042,2036,2051,2054,2024,2090
2029,2048,2042,2032,2044,2039,2037,2100
2040,2057,2057,2040,2044,2041,2037,2098
2042,2060,2066,2042,2038,2037,2049,2098
2045,2057,2064,2044,2046,2045,2039,2114
2054,2066,2067,2043,2045,2040,2053,2110
2058,2070,2066,2046,2042,2044,2041,2105
2055,2067,2065,2049,2043,2044,2050,2109
2049,2068,2062,2045,2050,2047,2040,2110
2059,2076,2068,2051,2043,2046,2044,2094
2059,2075,2074,2053,2039,2041,2065,2088
2064,2080,2079,2053,2044,2048,2046,2072
2060,2085,2091,2063,2052,2062,2053,2070
2061,2092,2102,2064,2057,2083,2056,2052
2058,2073,2086,2056,2049,2088,2046,2035
2052,2069,2075,2055,2049,2089,2041,2014
2050,2061,2061,2051,2039,2086,2035,1997
2044,2055,2054,2046,2038,2080,2043,1985
2050,2060,2049,2050,2049,2086,2028,1975
2039,2058,2049,2050,2047,2075,2010,1973
2036,2058,2050,2050,2047,2073,2041,1967
2039,2066,2061,2059,2057,2072,2045,1977
2042,2071,2053,2055,2057,2063,2042,1981
2038,2059,2040,2052,2055,2046,2040,1986
2035,2060,2039,2050,2059,2019,2040,1995
2050,2067,2047,2048,2058,2009,2049,2008
2042,2056,2036,2044,2061,1992,2030,2015
2041,2054,2040,2044,2052,1981,2022,2026
2033,2059,2045,2045,2042,1991,2011,2031
2034,2063,2051,2045,2038,2001,2020,2036
2037,2065,2059,2052,2038,2020,2036,2052
2032,2067,2070,2051,2039,2030,2033,2067
2038,2066,2061,2047,2035,2035,2031,2074
2030,2068,2062,2046,2038,2040,2029,2085
2040,2069,2063,2050,2046,2039,2056,2097
2041,2072,2069,2057,2050,2033,2046,2093
2037,2062,2053,2045,2047,2033,2053,2099
2028,2059,2048,2049,2046,2037,2053,2103
2035,2064,2050,2049,2041,2039,2075,2100
2046,2066,2052,2051,2039,2042,2060,2105
2045,2071,2061,2052,2045,2037,2060,2102
2048,2072,2058,2060,2051,2040,2059,2101
2041,2072,2062,2059,2052,2047,2060,2092
2045,2068,2066,2062,2061,2044,2068,2089
2047,2077,2073,2056,2059,2042,2064,2077
2043,2077,2074,2064,2060,2046,2036,2066
2036,2073,2072,2058,2060,2044,2056,2046
2039,2074,2057,2053,2056,2044,2060,2035
2039,2070,2059,2049,2050,2039,2062,2014
2038,2068,2050,2051,2061,2036,2068,1997
2039,2067,2053,2050,2060,2035,2062,1982
2040,2065,2045,2043,2059,2037,2066,1978
2040,2062,2042,2039,2052,2032,2057,1971
2042,2069,2048,2040,2054,2035,2061,1974
2053,2079,2053,2045,2050,2040,2066,1971
2058,2086,2060,2050,2056,2047,2066,1982
2061,2089,2064,2047,2053,2044,2066,1988
2067,2089,2068,2058,2059,2048,2067,2000
2065,2096,2065,2057,2057,2052,2077,2012
2066,2096,2064,2052,2056,2053,2081,2027
2056,2094,2065,2050,2054,2052,2078,2033
2057,2087,2065,2058,2060,2047,2072,2040
2053,2086,2064,2058,2060,2043,2061,2045
2047,2082,2066,2059,2059,2050,2061,2060
2049,2081,2064,2054,2062,2049,2057,2070
2048,2075,2068,2057,2056,2036,2068,2076
2048,2077,2065,2053,2045,2034,2059,2085
2053,2083,2068,2050,2047,2031,2060,2096
2056,2086,2075,2054,2039,2026,2029,2107
2059,2082,2074,2046,2037,2018,2032,2101
2044,2071,2063,2042,2042,2034,2037,2109
2046,2079,2060,2050,2051,2042,2054,2105
2048,2078,2066,2045,2044,2045,2063,2110
2052,2084,2063,2048,2045,2041,2048,2117
2060,2085,2069,2045,2030,2032,2062,2110
2059,2088,2062,2041,2015,2032,2044,2093
2056,2079,2054,2042,2025,2027,2038,2080
2042,2073,2052,2038,2041,2032,2028,2061
2039,2077,2052,2049,2058,2041,2029,2054
2046,2074,2050,2049,2066,2043,2055,2051
2050,2078,2054,2050,2062,2042,2051,2029
2047,2077,2059,2053,2062,2044,2052,2017
2045,2077,2060,2048,2062,2042,2057,2008
2044,2081,2063,2052,2053,2042,2056,1992
2052,2082,2064,2049,2060,2047,2057,1988
2052,2080,2059,2045,2047,2041,2055,1974
2048,2075,2054,2049,2049,2040,2056,1966
2048,2078,2054,2058,2052,2047,2065,1974
2051,2081,2057,2061,2055,2055,2051,1979
2052,2081,2059,2062,2052,2052,2057,1987
2055,2088,2055,2064,2057,2056,2051,1998
2060,2088,2057,2068,2059,2051,2061,2006
2056,2078,2052,2060,2049,2047,2059,2021
2063,2085,2053,2055,2049,2049,2060,2040
2060,2081,2058,2060,2055,2050,2064,2049
2060,2077,2058,2060,2060,2053,2054,2063
2058,2081,2062,2066,2056,2052,2068,2073
2056,2080,2056,2063,2062,2052,2056,2090
2050,2073,2053,2054,2056,2047,2054,2081
2046,2066,2043,2049,2049,2039,2039,2086
2045,2066,2049,2049,2050,2044,2045,2096
2046,2072,2045,2046,2044,2037,2047,2098
2041,2061,2039,2043,2044,2039,2041,2106
2043,2062,2041,2052,2050,2043,2057,2110
2054,2072,2046,2056,2050,2040,2052,2110
2048,2068,2051,2049,2047,2037,2050,2100
2044,2072,2056,2056,2039,2037,2046,2104
2043,2073,2054,2059,2044,2039,2048,2103
2048,2076,2052,2057,2046,2039,2047,2090
2051,2070,2047,2054,2045,2038,2044,2082
2043,2072,2043,2058,2047,2033,2049,2066
2046,2075,2051,2058,2053,2042,2051,2059
2049,2075,2052,2062,2060,2052,2063,2046
2048,2072,2051,2060,2064,2048,2060,2034
2044,2072,2049,2060,2071,2048,2052,2011
2039,2076,2053,2063,2072,2056,2060,1999
2040,2075,2056,2060,2076,2064,2060,1993
2044,2073,2051,2063,2079,2063,2063,1975
2038,2061,2045,2056,2076,2054,2055,1972
2043,2063,2041,2050,2074,2052,2045,1967
2042,2072,2040,2049,2071,2051,2051,1973
2048,2069,2044,2037,2068,2047,2066,1979
2043,2067,2037,2036,2050,2034,2040,1984
2038,2066,2042,2028,2033,2026,2052,1995
2042,2069,2042,2028,2033,2029,2037,2009
2043,2070,2040,2030,2034,2023,2045,2026
2048,2078,2046,2042,2040,2031,2057,2042
2051,2087,2047,2044,2042,2038,2050,2047
2051,2086,2048,2047,2042,2039,2048,2063
2044,2085,2048,2040,2034,2036,2023,2069
2043,2079,2040,2047,2034,2032,2036,2080
2048,2077,2040,2040,2036,2030,2042,2092
2053,2080,2040,2039,2045,2044,2062,2110
2064,2084,2048,2047,2052,2051,2042,2109
2066,2083,2051,2039,2037,2053,2066,2114
2053,2073,2047,2040,2042,2062,2043,2116
2050,2075,2048,2049,2046,2071,2065,2118
2061,2085,2054,2045,2056,2074,2058,2113
2055,2073,2043,2040,2045,2047,2056,2110
2047,2065,2043,2041,2040,2011,2039,2106
2043,2064,2037,2040,2036,2006,2049,2102
2044,2060,2035,2042,2047,2019,2052,2086
2043,2063,2040,2048,2047,2027,2063,2081
2040,2064,2037,2042,2050,2030,2039,2072
2044,2062,2030,2046,2053,2032,2022,2052
2039,2060,2025,2043,2055,2026,2038,2045
2030,2057,2034,2049,2060,2028,2040,2022
2034,2059,2027,2055,2060,2028,2031,2005
2033,2061,2027,2053,2064,2043,2029,1992
2035,2058,2024,2057,2065,2064,2039,1978
2032,2060,2027,2056,2070,2084,2036,1967
2021,2046,2020,2056,2067,2090,2045,1958
2026,2052,2021,2060,2067,2088,2049,1954
2032,2055,2022,2071,2072,2080,2061,1965
2028,2060,2014,2063,2062,2068,2059,1973
2035,2057,2020,2063,2061,2071,2061,1983
2036,2071,2028,2062,2066,2063,2033,2007
2046,2079,2029,2065,2073,2064,2058,2027
2056,2080,2041,2066,2073,2064,2059,2037
2064,2081,2051,2064,2074,2071,2069,2052
2061,2083,2058,2068,2069,2058,2059,2068
2060,2082,2056,2063,2067,2053,2063,2077
2062,2078,2052,2055,2065,2043,2059,2074
2051,2071,2041,2049,2054,2031,2047,2079
2041,2066,2035,2041,2047,2019,2049,2091
2036,2056,2020,2032,2035,2022,2036,2098
2034,2063,2030,2029,2035,2029,2042,2109
2041,2067,2036,2022,2027,2022,2034,2112
2032,2061,2033,2024,2018,2014,2001,2117
2034,2061,2035,2032,2020,2016,2026,2112
2033,2067,2050,2035,2022,2020,2020,2120
2043,2074,2058,2045,2026,2030,2023,2122
2046,2080,2061,2049,2042,2035,2032,2124
2051,2087,2060,2048,2041,2039,2030,2119
2051,2083,2054,2049,2042,2041,2046,2101
2052,2091,2063,2057,2046,2046,2031,2095
2057,2089,2069,2062,2048,2053,2047,2082
2053,2079,2066,2056,2049,2058,2062,2068
2051,2082,2059,2061,2061,2063,2053,2054
2055,2084,2061,2063,2068,2068,2060,2038
2056,2079,2063,2057,2068,2065,2058,2016
2048,2076,2066,2055,2065,2058,2048,2006
2049,2076,2060,2050,2060,2056,2039,1992
2038,2063,2046,2037,2053,2047,2013,1977
2028,2052,2038,2038,2048,2048,2024,1977
2032,2057,2031,2045,2050,2055,2024,1982
2039,2060,2027,2050,2051,2062,2058,1986
2043,2063,2026,2061,2053,2064,2050,1997
2039,2063,2027,2063,2052,2067,2038,2003
2037,2053,2032,2071,2048,2064,2048,2017
2038,2055,2034,2070,2039,2060,2048,2024
2038,2054,2021,2068,2043,2057,2043,2039
2039,2045,2016,2066,2038,2052,2054,2045
2035,2049,2011,2065,2046,2053,2042,2059
2036,2052,2010,2064,2047,2049,2040,2061
2036,2046,1994,2057,2045,2039,2036,2075
2035,2046,1996,2058,2032,2031,2039,2087
2039,2047,1993,2060,2033,2023,2032,2100
2037,2052,2018,2073,2048,2027,2033,2104
2040,2058,2028,2065,2049,2024,2019,2099
2031,2050,2029,2055,2040,2024,2022,2103
2025,2053,2036,2049,2046,2029,2024,2110
2037,2065,2051,2042,2047,2031,2029,2108
2041,2070,2042,2042,2043,2032,2030,2114
2039,2062,2036,2040,2044,2033,2034,2106
2042,2066,2040,2042,2040,2026,2040,2105
2041,2060,2058,2058,2046,2031,2041,2098
2035,2068,2076,2068,2052,2035,2044,2077
2039,2067,2077,2061,2056,2032,2033,2073
2030,2058,2045,2045,2042,2030,2024,2062
2028,2049,2033,2030,2033,2033,2019,2046
2027,2052,2023,2014,2037,2033,2048,2028
2027,2050,2014,2006,2035,2044,2040,2009
2033,2066,2032,2012,2053,2060,2045,2007
2042,2076,2051,2027,2056,2068,2058,1997
2044,2086,2055,2034,2065,2064,2066,1991
2054,2087,2059,2040,2060,2059,2066,1988
2056,2087,2064,2039,2050,2056,2034,1994
2059,2094,2072,2040,2046,2053,2057,1994
2058,2084,2069,2039,2045,2050,2048,2005
2054,2088,2088,2055,2043,2054,2052,2009
2058,2091,2092,2057,2052,2060,2049,2016
2062,2089,2084,2060,2049,2066,2040,2031
2060,2090,2080,2063,2049,2067,2054,2046
2064,2093,2085,2065,2059,2071,2058,2060
2058,2084,2076,2061,2061,2072,2064,2070
2054,2075,2069,2059,2068,2070,2071,2079
2052,2069,2064,2046,2066,2072,2061,2088
2050,2065,2058,2037,2052,2058,2043,2090
2050,2070,2056,2036,2038,2050,2056,2091
2043,2067,2054,2030,2033,2045,2066,2112
2050,2065,2054,2031,2032,2043,2047,2110
2039,2056,2050,2031,2035,2042,2050,2109
2043,2056,2052,2023,2036,2044,2045,2113
2050,2069,2058,2030,2039,2043,2046,2116
2051,2071,2058,2034,2039,2043,2035,2120
2052,2069,2058,2035,2038,2038,2041,2115
2056,2066,2053,2032,2026,2031,2028,2104
2046,2062,2049,2036,2035,2037,2042,2101
2054,2065,2050,2046,2036,2046,2045,2089
2049,2071,2055,2047,2041,2058,2067,2084
2052,2070,2057,2052,2046,2068,2065,2069
2058,2068,2057,2056,2056,2067,2059,2054
2051,2070,2056,2057,2057,2064,2070,2042
2051,2073,2059,2057,2061,2063,2060,2031
2057,2072,2060,2058,2066,2065,2052,2024
2059,2075,2054,2059,2065,2077,2059,2014
2063,2071,2058,2059,2061,2088,2042,1995
2057,2069,2050,2049,2051,2090,2047,1983
2048,2066,2043,2049,2051,2089,2046,1983
2056,2074,2048,2051,2053,2090,2037,1993
2058,2072,2050,2051,2055,2094,2057,1996
2053,2066,2051,2044,2051,2090,2067,2001
2055,2070,2051,2043,2045,2092,2060,2014
2053,2070,2059,2041,2030,2083,2061,2024
2053,2070,2058,2042,2033,2078,2068,2036
2049,2070,2046,2040,2040,2068,2064,2044
2047,2062,2042,2035,2034,2046,2048,2055
2045,2062,2042,2042,2027,2032,2056,2074
2049,2056,2047,2049,2028,2012,2044,2078
2043,2042,2041,2042,2027,2002,2054,2088
2046,2048,2037,2043,2030,2005,2052,2100
2046,2048,2034,2044,2022,2026,2051,2104
2045,2050,2043,2047,2025,2034,2037,2100
2043,2041,2036,2045,2023,2039,2036,2109
2040,2046,2037,2036,2018,2040,2014,2120
2045,2057,2045,2048,2029,2044,2020,2121
2042,2060,2055,2052,2029,2031,2024,2116
2040,2058,2048,2050,2031,2020,2025,2128
2047,2062,2046,2046,2035,2024,2033,2120
2048,2057,2046,2045,2036,2030,2035,2114
2048,2058,2038,2046,2029,2038,2039,2106
2046,2054,2042,2041,2029,2046,2026,2097
2045,2046,2038,2044,2030,2050,2035,2079
2045,2046,2045,2040,2035,2054,2038,2068
2043,2056,2058,2043,2035,2064,2065,2057
2041,2058,2068,2050,2046,2062,2043,2047
2052,2061,2068,2054,2051,2052,2036,2029
2051,2068,2066,2041,2045,2056,2037,2018
2050,2063,2062,2042,2049,2057,2049,2005
2049,2060,2060,2040,2039,2047,2058,1998
2047,2052,2051,2037,2030,2049,2053,1992
2044,2054,2045,2035,2021,2047,2056,1983
2036,2047,2042,2034,2020,2043,2040,1985
2034,2042,2043,2037,2013,2036,2034,1995
2037,2043,2041,2032,2025,2026,2042,2004
2037,2048,2037,2038,2022,2020,2055,2024
2044,2049,2037,2044,2028,2029,2049,2042
2038,2044,2041,2044,2026,2021,2058,2046
2036,2042,2037,2047,2035,2013,2046,2067
2041,2044,2032,2043,2029,2015,2058,2065
2033,2040,2030,2047,2020,2016,2051,2071
2027,2035,2025,2038,2020,2014,2041,2074
2022,2036,2023,2037,2019,2020,2039,2084
2025,2040,2028,2037,2027,2035,2050,2092
2027,2041,2035,2043,2035,2058,2040,2111
2035,2045,2036,2041,2037,2062,2031,2113
2030,2044,2037,2038,2029,2064,2054,2124
2040,2056,2045,2046,2032,2065,2060,2130
2041,2057,2046,2052,2029,2069,2062,2127
2049,2067,2050,2053,2030,2063,2046,2121
2045,2066,2041,2050,2030,2060,2038,2128
2039,2069,2041,2046,2036,2053,2048,2115
2049,2072,2053,2054,2046,2065,2054,2114
2054,2070,2058,2058,2055,2063,2063,2110
2049,2069,2060,2066,2058,2066,2055,2098
2054,2071,2062,2071,2057,2065,2069,2087
2046,2069,2062,2071,2058,2051,2080,2070
2044,2063,2063,2073,2058,2055,2078,2055
2043,2060,2062,2081,2061,2060,2064,2037
2040,2059,2062,2077,2051,2056,2046,2020
2040,2057,2058,2083,2046,2051,2038,2011
2038,2059,2057,2077,2047,2054,2047,1999
2031,2051,2046,2071,2047,2067,2058,1999
2028,2062,2051,2069,2056,2080,2054,2002
2037,2064,2052,2069,2061,2090,2058,2010
2043,2061,2049,2065,2061,2093,2052,2017
2040,2063,2052,2064,2059,2073,2061,2030
2048,2066,2050,2062,2051,2036,2027,2039
2047,2067,2047,2044,2031,2012,2029,2062
2042,2055,2037,2030,2008,2001,2007,2066
2035,2045,2036,2012,1994,2003,2035,2085
2035,2047,2036,2011,2007,2011,2035,2103
2040,2046,2036,2024,2008,2014,2035,2114
2036,2049,2039,2023,2008,2013,2033,2124
2039,2051,2045,2030,2009,2005,2025,2133
2048,2054,2046,2031,2024,2010,2046,2141
2040,2054,2042,2031,2031,2013,2027,2152
2037,2052,2036,2029,2031,2018,2035,2154
2039,2040,2040,2028,2035,2030,2009,2161
2036,2047,2043,2032,2038,2044,2041,2162
2043,2056,2045,2042,2033,2039,2048,2162
2037,2056,2051,2041,2040,2058,2043,2164
2047,2058,2041,2037,2045,2070,2053,2172
2043,2058,2052,2042,2043,2067,2041,2163
2045,2058,2048,2041,2046,2074,2058,2152
2044,2060,2050,2039,2040,2098,2058,2141
2043,2060,2045,2041,2043,2097,2072,2126
2047,2059,2051,2046,2043,2087,2092,2112
2037,2060,2055,2052,2041,2078,2059,2096
2036,2053,2052,2047,2056,2098,2073,2085
2033,2052,2044,2041,2045,2107,2069,2066
2041,2054,2037,2047,2032,2084,2073,2047
2041,2048,2039,2039,2045,2076,2079,2038
2033,2048,2032,2030,2036,2068,2052,2017
2027,2034,2031,2026,2026,2073,2056,2017
2032,2044,2040,2031,2028,2085,2039,2017
2028,2053,2040,2032,2026,2079,2023,2014
2028,2043,2027,2032,2026,2052,2035,2021
2033,2045,2035,2039,2025,2013,2054,2051
2045,2055,2036,2051,2039,2003,2064,2071
2046,2049,2044,2053,2039,2011,2043,2077
2047,2055,2046,2056,2040,2017,2045,2097
2047,2053,2047,2061,2050,2015,2046,2106
2040,2046,2038,2055,2051,2025,2051,2117
2037,2041,2036,2053,2055,2032,2047,2125
2032,2034,2037,2049,2057,2035,2058,2133
2030,2038,2027,2044,2059,2041,2069,2147
2024,2030,2026,2040,2056,2039,2076,2158
2033,2031,2022,2032,2052,2041,2058,2168
2022,2029,2023,2022,2034,2041,2046,2156
2022,2021,2020,2022,2029,2044,2051,2164
2025,2037,2033,2032,2045,2068,2058,2165
2032,2041,2031,2036,2045,2085,2035,2161
2032,2047,2026,2033,2047,2106,2052,2156
2036,2045,2028,2039,2063,2140,2025,2149
2043,2050,2034,2036,2068,2163,2036,2149
2041,2041,2032,2038,2072,2150,2025,2133
2041,2042,2028,2036,2063,2112,2034,2124
2038,2043,2030,2038,2055,2036,2025,2119
2034,2041,2027,2039,2049,2011,2028,2101
2024,2032,2021,2034,2039,2032,2035,2082
2020,2028,2019,2029,2051,2043,2034,2069
2019,2027,2023,2025,2042,2042,2038,2054
2021,2025,2015,2027,2043,2040,2050,2054
2020,2019,2021,2023,2039,2029,2031,2044
2021,2020,2009,2016,2038,2020,2025,2038
2019,2023,2012,2020,2040,2022,2037,2034
2026,2035,2002,2024,2045,2017,2046,2036
2028,2027,1995,2022,2045,2013,2039,2044
2027,2021,1988,2010,2033,2017,2029,2045
2028,2016,1979,2008,2028,2012,2034,2053
2031,2018,1988,2009,2032,2006,2042,2064
2037,2041,2017,2013,2033,2036,2038,2088
2045,2050,2036,2028,2048,2053,2041,2102
2056,2059,2031,2026,2047,2060,2043,2107
2054,2052,2029,2022,2046,2088,2057,2110
2039,2048,2023,2022,2056,2117,2061,2121
2031,2053,2041,2030,2064,2137,2079,2146
2041,2063,2053,2038,2069,2136,2083,2156
2033,2060,2058,2040,2062,2120,2073,2169
2035,2067,2065,2040,2058,2133,2077,2174
2046,2069,2071,2038,2037,2122,2085,2183
2046,2075,2072,2032,2019,2100,2079,2192
2051,2080,2082,2039,2000,2064,2064,2189
2058,2076,2072,2032,1977,2020,2060,2184
2046,2067,2056,2016,1961,1977,2012,2171
2046,2067,2059,2027,1989,1962,2029,2163
2045,2066,2066,2032,2026,1961,2044,2154
2045,2062,2065,2035,2064,1985,2049,2152
2036,2063,2076,2050,2106,2006,2056,2149
2042,2061,2070,2049,2101,1997,2046,2140
2038,2057,2066,2046,2081,1987,2073,2121
2046,2068,2065,2043,2057,1986,2068,2096
2050,2075,2067,2045,2046,1981,2064,2070
2047,2067,2066,2043,2040,1993,2055,2058
2040,2061,2069,2039,2046,2030,2048,2045
2043,2068,2075,2041,2043,2067,2056,2032
2033,2058,2062,2036,2031,2079,2051,2020
2031,2053,2057,2034,2023,2084,2040,2011
2037,2054,2050,2033,2029,2018,2050,2021
2039,2054,2046,2035,2033,1990,2068,2024
2039,2054,2046,2038,2031,2016,2043,2030
2042,2052,2041,2038,2032,2031,2040,2037
2038,2049,2040,2040,2033,2029,2034,2053
2033,2042,2038,2042,2039,2026,2033,2065
2036,2044,2036,2042,2044,2034,2028,2083
2039,2044,2031,2050,2059,2035,2047,2090
2044,2044,2042,2059,2061,2041,2040,2107
2047,2047,2056,2052,2065,2041,2048,2113
2043,2044,2063,2055,2057,2040,2044,2125
2046,2043,2057,2047,2052,2051,2048,2137
2043,2043,2056,2042,2046,2052,2057,2146
2048,2050,2054,2045,2043,2067,2064,2143
2033,2035,2043,2037,2036,2066,2066,2145
2033,2040,2044,2034,2034,2072,2053,2158
2037,2045,2053,2036,2032,2071,2060,2160
2038,2042,2046,2030,2037,2054,2049,2156
2038,2037,2044,2027,2045,2043,2040,2143
2037,2041,2048,2021,2043,2039,2052,2140
2041,2041,2046,2019,2036,2051,2066,2139
2046,2048,2046,2025,2028,2059,2052,2128
2044,2041,2048,2017,2029,2056,2051,2120
2045,2032,2038,2011,2015,2042,2037,2094
2037,2030,2027,2009,2016,2031,2008,2081
2028,2031,2021,2006,2029,2000,2009,2079
2036,2030,2022,2020,2041,1999,2012,2053
2031,2030,2011,2023,2045,2021,2035,2037
2031,2028,2005,2011,2042,2037,2036,2021
2020,2024,2001,2012,2035,2021,2043,2006
2024,2025,2000,2006,2029,1986,2031,1996
2022,2023,1999,2008,2028,1991,2054,2002
2035,2039,2017,2020,2043,2034,2070,2014
2038,2042,2019,2032,2047,2066,2059,2018
2043,2040,2029,2033,2042,2102,2047,2015
2028,2032,2029,2023,2024,2112,2038,2021
2028,2038,2031,2018,2007,2100,2039,2029
2030,2042,2041,2024,2004,2082,2054,2044
2035,2045,2058,2024,2005,2062,2038,2061
2028,2036,2068,2031,2001,2035,2020,2081
2029,2039,2064,2037,2031,2020,2025,2099
2034,2042,2073,2052,2060,2029,2048,2100
2041,2048,2075,2053,2065,2040,2027,2117
2043,2049,2069,2049,2060,2048,2015,2124
2050,2050,2059,2044,2049,2044,2035,2135
2042,2038,2052,2044,2035,2044,2038,2142
2049,2043,2058,2037,2030,2041,2035,2140
2049,2047,2071,2043,2035,2047,2051,2150
2060,2068,2092,2057,2042,2045,2071,2157
2054,2062,2088,2053,2037,2039,2058,2157
2054,2059,2084,2045,2040,2040,2055,2147
2045,2055,2081,2038,2025,2032,2046,2136
2046,2064,2075,2037,2023,2031,2047,2120
2037,2058,2067,2026,2029,2026,2049,2106
2030,2043,2057,2018,2033,2034,2057,2101
2039,2048,2057,2021,2039,2034,2050,2103
2046,2056,2060,2029,2039,2024,2030,2086
2047,2053,2060,2027,2020,2022,2041,2072
2043,2052,2058,2026,2013,2029,2061,2045
2049,2048,2058,2030,2004,2033,2058,2026
2041,2034,2042,2010,1995,2028,2038,2006
2029,2021,2026,2000,2008,2044,2037,1995
2034,2026,2034,2020,2049,2054,2054,1995
2043,2042,2051,2037,2092,2071,2069,1994
2043,2049,2057,2049,2116,2085,2061,2003
2044,2049,2057,2048,2110,2086,2059,2008
2048,2048,2056,2043,2089,2068,2046,2008
2040,2034,2048,2034,2066,2051,2055,2007
2031,2027,2044,2031,2047,2036,2040,2025
2037,2033,2044,2030,2043,2027,2041,2032
2035,2040,2050,2031,2032,2020,2039,2049
2037,2035,2048,2033,2033,2024,2034,2064
2042,2040,2052,2044,2040,2046,2040,2069
2044,2047,2051,2051,2043,2046,2044,2074
2049,2042,2043,2051,2048,2052,2051,2094
2044,2037,2036,2052,2055,2041,2029,2108
2045,2036,2032,2054,2050,2044,2040,2112
2036,2033,2022,2042,2041,2028,2051,2119
2032,2019,2011,2035,2035,2018,2042,2124
2029,2014,2015,2033,2040,2020,2033,2127
2042,2028,2020,2039,2049,2025,2045,2131
2048,2035,2025,2037,2049,2027,2051,2135
2047,2040,2032,2034,2045,2025,2075,2140
2050,2040,2043,2036,2045,2026,2067,2140
2052,2042,2049,2030,2053,2037,2078,2130
2047,2039,2038,2031,2066,2047,2086,2117
2055,2046,2036,2026,2068,2050,2075,2098
2050,2043,2039,2024,2069,2046,2072,2082
2049,2047,2044,2019,2063,2067,2042,2053
2038,2043,2042,2011,2049,2111,2045,2043
2044,2041,2053,2007,2047,2093,2021,2019
2036,2040,2066,2008,2027,2084,2027,1999
2032,2032,2051,2005,2015,2098,2056,1988
2025,2037,2046,2014,2018,2089,2030,1989
2032,2032,2044,2030,2021,2071,2049,1981
2033,2033,2036,2024,2039,2055,2057,1975
2032,2034,2030,2022,2024,2030,2045,1969
2036,2030,2038,2013,2013,2031,2042,1971
2038,2040,2049,2021,2036,2060,2045,1989
2045,2053,2078,2036,2072,2089,2052,2011
2054,2062,2086,2041,2085,2090,2042,2018
2049,2057,2072,2036,2086,2042,2024,2026
2042,2049,2060,2039,2081,1972,2029,2038
2041,2044,2057,2035,2091,1998,2030,2048
2046,2053,2059,2041,2095,2019,2033,2067
2048,2054,2060,2050,2110,2028,2046,2069
2049,2054,2067,2061,2148,2037,2027,2081
2051,2051,2072,2064,2152,2039,2030,2089
2049,2061,2073,2065,2136,2040,2041,2093
2058,2061,2072,2067,2075,2041,2031,2096
2049,2048,2055,2045,1957,2031,2017,2093
2044,2035,2049,2039,1910,2026,2039,2107
2044,2035,2053,2038,1944,2042,2049,2100
2047,2031,2050,2044,1990,2048,2045,2101
2045,2043,2058,2045,2016,2049,2048,2091
2038,2045,2062,2035,2012,2041,2039,2084
2038,2043,2061,2018,1952,2025,2048,2075
2032,2047,2059,2020,1977,2032,2057,2067
2041,2051,2060,2026,2024,2031,2058,2056
2039,2042,2057,2035,2041,2028,2053,2037
2030,2039,2053,2026,2030,2029,2048,2028
2029,2031,2053,2025,2011,2030,2049,2006
2034,2029,2043,2021,1998,2030,2029,1990
2029,2025,2035,2019,1993,2032,2039,1967
2020,2019,2031,2011,2007,2042,2038,1955
2026,2027,2046,2022,2033,2057,2060,1950
2031,2024,2042,2032,2037,2055,2065,1946
2029,2023,2041,2035,2040,2043,2030,1955
2038,2030,2048,2037,2031,2044,2043,1959
2042,2036,2049,2028,2025,2049,2045,1954
2036,2037,2046,2029,2023,2059,2047,1963
2032,2040,2044,2028,2042,2056,2032,1969
2038,2041,2043,2033,2048,2045,2033,1980
2042,2041,2048,2039,2047,2054,2046,2006
2038,2046,2046,2037,2045,2073,2045,2009
2044,2046,2037,2024,2030,2075,2037,2017
2037,2034,2030,2025,2026,2064,2036,2030
2035,2042,2026,2032,2029,2056,2034,2040
2033,2032,2028,2029,2013,2041,2033,2033
2029,2029,2027,2036,2001,2042,2022,2047
2028,2037,2028,2040,2008,2048,2059,2061
2038,2043,2040,2045,2009,2035,2052,2068
2039,2037,2035,2035,1995,2007,2017,2072
2040,2045,2040,2036,2001,1995,2027,2085
2054,2062,2049,2047,2007,1981,2032,2090
2053,2064,2054,2040,1990,1952,2021,2078
2048,2068,2053,2040,2000,1946,2020,2068
2046,2063,2057,2053,2032,1973,2020,2054
2040,2071,2072,2054,2061,1996,2047,2044
2044,2072,2066,2056,2075,2006,2018,2029
2046,2065,2057,2043,2088,2007,2039,2030
2035,2056,2049,2039,2092,2022,2047,2026
2045,2053,2056,2036,2084,2046,2050,2010
2040,2050,2065,2037,2113,2072,2042,1987
2043,2047,2062,2056,2160,2102,2049,1965
2040,2047,2060,2052,2143,2124,2043,1955
2037,2051,2061,2042,2094,2108,2048,1935
2032,2049,2052,2031,2055,2085,2044,1925
2023,2034,2038,2018,2017,2049,2020,1911
2024,2034,2038,2016,2021,2038,2030,1901
2027,2042,2048,2021,2021,2090,2028,1904
2023,2052,2053,2029,2013,2113,2041,1912
2025,2054,2053,2032,2006,2096,2028,1924
2032,2054,2053,2030,1992,2063,2036,1935
2037,2061,2060,2031,2027,2039,2035,1963
2040,2057,2061,2037,2083,2035,2049,1980
2042,2054,2053,2042,2110,2050,2062,1988
2044,2056,2055,2046,2135,2065,2050,2002
2047,2056,2058,2049,2145,2073,2046,2008
2057,2053,2062,2055,2152,2066,2056,2015
2053,2060,2062,2061,2165,2060,2061,2024
2047,2050,2057,2061,2156,2044,2038,2022
2041,2051,2054,2062,2143,2039,2045,2033
2042,2047,2050,2051,2109,2042,2034,2036
2032,2038,2036,2047,2076,2040,2021,2043
2035,2029,2030,2038,2027,2041,2055,2042
2033,2038,2035,2024,1927,2046,2054,2039
2029,2033,2025,2005,1847,2060,2036,2032
2032,2028,2019,1995,1814,2065,2041,2026
2031,2020,2019,2004,1928,2069,2054,2021
2034,2024,2024,2019,1976,2060,2036,2013
2028,2024,2021,2017,1993,2036,2045,2010
2030,2019,2028,2030,2038,2032,2049,2000
2030,2020,2019,2048,2080,2053,2061,1990
2028,2020,2021,2050,2077,2077,2052,1975
2020,2022,2030,2052,2070,2083,2060,1963
2033,2028,2043,2055,2050,2082,2059,1944
2036,2032,2040,2055,2033,2074,2071,1942
2038,2042,2036,2040,2016,2071,2076,1927
2035,2037,2030,2016,1967,2059,2062,1916
2030,2030,2019,2008,1984,2060,2055,1900
2031,2032,2014,2007,2004,2059,2047,1894
2028,2029,2015,2019,2042,2060,2044,1899
2027,2036,2023,2028,2078,2030,2033,1888
2029,2050,2029,2023,2078,2001,2029,1897
2039,2062,2045,2028,2070,1990,2018,1913
2036,2058,2049,2038,2070,2021,2043,1936
2037,2051,2049,2040,2062,2053,2031,1959
2028,2044,2038,2040,2048,2061,2041,1961
2031,2046,2034,2033,2026,2043,2035,1976
2031,2038,2024,2029,2022,2021,2029,1985
2031,2038,2027,2027,2027,2015,2033,1993
2037,2050,2040,2030,2013,1996,2022,2011
2044,2064,2046,2037,2029,2048,2058,2023
2043,2058,2046,2040,2028,2083,2058,2028
2043,2052,2037,2035,2033,2089,2050,2032
2037,2045,2039,2037,2047,2063,2065,2041
2044,2059,2056,2044,2056,2067,2067,2045
2049,2072,2072,2047,2051,2057,2071,2033
2046,2072,2079,2049,2037,1960,2027,2023
2047,2076,2074,2049,2045,1900,2037,2027
2042,2063,2060,2047,2048,1951,2039,2025
2045,2066,2058,2046,2055,2017,2036,2010
2041,2052,2055,2048,2057,2042,2042,2000
2035,2043,2046,2040,2056,2046,2045,1996
2032,2041,2046,2042,2066,2057,2034,1978
2029,2040,2049,2052,2062,2059,2065,1964
2023,2041,2051,2048,2008,2058,2063,1952
2028,2042,2055,2048,1970,2054,2055,1934
2033,2053,2061,2051,1962,2063,2057,1930
2042,2059,2060,2054,1970,2059,2073,1918
2049,2065,2059,2054,1980,2050,2061,1904
2038,2049,2049,2034,1957,2030,2052,1890
2031,2042,2052,2035,1960,2030,2065,1896
2038,2057,2059,2033,1964,2027,2054,1902
2037,2056,2060,2031,1984,2022,2054,1899
2028,2050,2055,2022,1995,2026,2051,1902
2035,2048,2064,2028,1994,2020,2056,1914
2041,2045,2063,2040,2021,2032,2061,1934
2040,2034,2055,2054,2102,2038,2048,1939
2030,2036,2070,2071,2158,2044,2052,1952
2033,2046,2074,2073,2141,2037,2060,1970
2036,2042,2071,2072,2094,2034,2049,1987
2028,2044,2058,2063,2065,2037,2015,2001
2034,2049,2045,2051,2052,2038,2017,2010
2045,2052,2044,2044,2034,2032,2033,2023
2050,2057,2043,2035,2022,2021,2049,2028
2058,2052,2047,2041,2024,2016,2037,2029
2049,2049,2056,2049,2027,2012,2042,2035
2041,2046,2060,2051,2041,1994,2041,2039
2042,2047,2052,2027,2057,1988,2020,2027
2030,2041,2039,2026,2087,2013,2023,2040
2040,2047,2036,2027,2116,2016,2037,2039
2043,2042,2025,2029,2150,2020,2054,2035
2042,2039,2023,2032,2176,2043,2040,2019
2034,2041,2035,2040,2190,2052,2046,2008
2037,2044,2036,2042,2206,2054,2039,2005
2039,2035,2030,2043,2228,2064,2062,1996
2042,2041,2048,2066,2262,2079,2064,1990
2057,2068,2066,2080,2263,2089,2081,1968
2053,2065,2062,2073,2159,2096,2070,1948
2046,2053,2053,2053,2059,2107,2095,1927
2036,2041,2044,2029,2062,2128,2095,1919
2022,2030,2030,2014,2099,2128,2074,1903
2024,2036,2053,2023,2123,2124,2071,1905
2043,2060,2084,2012,2048,2098,2086,1895
2045,2078,2096,1988,1906,2067,2060,1901
2045,2089,2096,1979,1856,2063,2064,1908
2045,2069,2072,1981,1860,2048,2061,1911
2041,2053,2052,1992,1909,2037,2042,1922
2043,2041,2042,2014,2064,2030,2054,1933
2048,2038,2041,2040,2119,2039,2050,1958
2049,2040,2035,2033,2100,2035,2052,1979
2056,2045,2036,2038,2098,2032,2055,1989
2057,2048,2033,2037,2077,2026,2041,1991
2036,2028,2029,2041,2063,2031,2048,2002
2043,2036,2044,2054,2093,2039,2067,2015
2040,2044,2056,2064,2099,2047,2053,2024
2042,2051,2058,2065,2113,2053,2053,2041
2033,2056,2061,2061,2134,2052,2059,2047
2033,2045,2052,2064,2143,2078,2063,2056
2046,2047,2055,2082,2184,2084,2074,2068
2057,2059,2057,2083,2196,2089,2075,2069
2056,2058,2052,2082,2186,2089,2067,2064
2053,2062,2053,2090,2186,2098,2079,2062
2061,2054,2052,2087,2185,2111,2079,2061
2058,2050,2054,2082,2170,2125,2075,2048
2060,2044,2041,2046,2092,2116,2058,2019
2040,2022,2010,1987,1904,2066,2037,1996
2027,2012,2008,1984,1959,2004,2008,1980
2020,2010,2016,2022,2038,1966,2035,1971
2035,2020,2041,2024,1988,2001,2057,1968
2050,2041,2065,2032,1956,2034,2070,1970
2061,2053,2074,2026,1895,2013,2054,1962
2063,2047,2058,2001,1791,1995,2063,1950
2056,2053,2054,2005,1773,2004,2038,1926
2041,2054,2053,2027,1797,2032,2050,1893
2024,2056,2066,2043,1819,2044,2038,1905
2034,2054,2064,2037,1818,2049,2046,1931
2045,2054,2059,2045,1819,2050,2034,1933
2037,2060,2053,2049,1858,2057,2020,1934
2030,2055,2049,2056,1897,2037,2039,1946
2038,2057,2051,2056,1933,2003,2066,1970
2049,2062,2051,2075,2023,2011,2065,1993
2051,2066,2040,2072,2082,2038,2053,2000
2042,2043,2011,2044,2104,2050,2053,2000
2024,2029,1992,2029,2107,2033,2027,2003
2021,2025,1996,2013,2110,2012,2032,2014
2032,2030,1988,2008,2114,1996,2046,2025
2035,2028,2002,1996,2116,2007,2042,2026
2034,2030,2018,1996,2119,2024,2058,2035
2032,2032,2022,1997,2119,2017,2036,2035
2021,2021,2019,1980,2029,2041,2030,2024
2013,2020,2023,1998,2039,2069,2037,2042
2023,2034,2034,2035,2139,2063,2039,2056
2036,2038,2047,2059,2200,2083,2063,2047
2024,2033,2041,2053,2205,2077,2059,2042
2017,2020,2038,2057,2229,2057,2047,2052
2024,2026,2042,2060,2224,2061,2056,2047
2030,2029,2046,2060,2218,2066,2065,2037
2028,2034,2051,2064,2218,2072,2072,2032
2035,2047,2047,2063,2203,2074,2071,2016
2026,2040,2038,2057,2216,2068,2072,1989
2016,2022,2028,2054,2193,2071,2036,1952
2011,2021,2031,2051,2144,2065,2043,1939
2020,2022,2034,2028,2015,2033,2029,1929
2018,2024,2031,2023,1970,2017,2015,1936
2034,2034,2036,2022,1994,2023,2024,1937
2043,2040,2044,2022,2012,2040,2037,1935
2051,2044,2055,2037,2025,2068,2056,1943
2045,2044,2066,2049,2014,2105,2054,1944
2037,2045,2074,2058,1983,2115,2055,1949
2036,2044,2088,2056,1941,2112,2052,1961
2037,2053,2097,2064,1977,2104,2042,1970
2041,2049,2104,2075,2029,2075,2029,1991
2052,2059,2115,2091,2080,2057,2049,2020
2062,2064,2117,2115,2132,2072,2048,2036
2065,2060,2117,2122,2138,2070,2066,2047
2069,2071,2109,2136,2156,2076,2059,2053
2073,2057,2087,2127,2170,2062,2063,2039
2051,2031,2063,2126,2193,2048,2053,2056
2042,2026,2061,2127,2202,2050,2050,2070
2044,2018,2056,2125,2200,2062,2033,2068
2033,2016,2056,2123,2182,2080,2027,2061
2023,2018,2039,2122,2194,2113,2054,2070
2021,2016,2026,2108,2166,2127,2076,2080
2025,2021,2018,2072,2088,2095,2063,2074
2039,2017,2005,2030,1961,2056,2049,2084
2046,2030,1998,2015,1965,2043,2066,2081
2053,2040,1994,2006,2013,2043,2075,2082
2066,2056,1999,1992,2061,2047,2060,2060
2059,2046,1989,1991,2087,2031,2012,2049
2041,2024,1984,1992,2034,2001,2028,2033
2032,2012,1994,1995,1963,1987,2034,2011
2028,2020,2018,2002,1983,2003,2027,1995
2036,2037,2038,2020,2016,2011,2050,1990
2042,2049,2064,2025,2026,1986,2038,1961
2028,2043,2058,2020,2047,2010,2055,1945
2033,2044,2050,2029,2053,2035,2062,1941
2030,2033,2031,2021,2033,2045,2057,1934
2027,2021,2020,2007,1995,2038,2052,1923
2025,2026,2032,2014,1993,2071,2052,1929
2031,2027,2039,2026,1996,2070,2059,1936
2033,2021,2043,2037,1989,2055,2059,1961
2045,2010,2033,2039,1982,2048,2064,1976
2037,2005,2026,2039,1980,2028,2038,1972
2030,1998,2024,2047,1988,2020,2042,1972
2032,2015,2042,2081,2033,2041,2042,1986
2032,2023,2048,2098,2057,2053,2053,2004
2027,1996,2028,2082,2054,2060,2036,2020
2030,1988,2026,2076,2060,2061,2054,2036
2038,1995,2020,2068,2044,2044,2051,2040
2026,1995,2008,2060,2048,2039,2039,2046
2023,2001,2004,2058,2042,2036,2045,2046
2019,2003,2000,2059,2047,2045,2036,2061
2023,2005,1982,2058,2100,2064,2025,2067
2015,2002,1964,2053,2133,2071,2042,2063
2019,2017,1960,2060,2120,2059,2059,2074
2026,2019,1966,2062,2097,2056,2057,2067
2028,2028,1970,2062,2081,2044,2034,2067
2035,2023,1975,2067,2061,2039,2046,2067
2045,2034,1980,2067,2074,2049,2065,2074
2052,2040,1991,2067,2070,2051,2082,2069
2056,2043,1983,2054,2059,2048,2068,2059
2057,2042,1993,2050,2060,2040,2059,2044
2054,2042,2016,2054,2061,2034,2063,2030
2048,2057,2053,2048,2055,2040,2050,2011
2051,2059,2065,2037,2050,2040,2057,1988
2045,2052,2058,2006,2043,2034,2070,1978
2036,2050,2080,2004,2034,2037,2053,1964
2044,2063,2107,2008,2031,2038,2054,1958
2051,2063,2107,1994,2031,2036,2050,1953
2050,2060,2118,2004,2039,2046,2059,1951
2048,2078,2144,2026,2056,2054,2063,1958
2060,2087,2150,2035,2064,2061,2059,1964
2060,2084,2131,2034,2068,2062,2061,1974
2057,2074,2119,2029,2069,2061,2062,1983
2060,2068,2110,2049,2080,2068,2055,1995
2060,2072,2107,2076,2091,2063,2061,2006
2060,2064,2099,2092,2084,2062,2056,2015
2038,2046,2080,2086,2077,2054,2042,2029
2045,2042,2076,2073,2082,2064,2042,2034
2048,2047,2073,2074,2076,2068,2053,2041
2047,2040,2076,2064,2073,2062,2042,2047
2045,2041,2070,2061,2067,2061,2065,2058
2044,2039,2059,2062,2073,2058,2046,2070
2040,2040,2059,2054,2067,2057,2061,2073
2041,2034,2054,2045,2032,2040,2045,2076
2029,2033,2061,2042,2024,2038,2047,2079
2029,2039,2062,2042,2020,2027,2026,2080
2039,2042,2059,2047,2013,2030,2032,2079
2042,2037,2058,2058,2039,2049,2083,2086
2046,2042,2067,2076,2061,2057,2090,2086
2053,2045,2070,2085,2090,2061,2086,2075
2056,2052,2067,2093,2106,2079,2086,2073
2054,2047,2065,2098,2102,2085,2084,2059
2055,2033,2049,2089,2083,2074,2073,2050
2048,2040,2048,2086,2081,2071,2069,2027
2043,2037,2054,2083,2071,2065,2081,2023
2035,2037,2054,2081,2077,2066,2084,1997
2032,2035,2061,2079,2082,2067,2082,1982
2050,2048,2066,2089,2081,2071,2086,1972
2047,2049,2052,2082,2082,2063,2080,1957
2044,2035,2028,2062,2061,2038,2043,1940
2035,2019,2011,2052,2048,2021,2037,1935
2030,2027,2013,2061,2055,2026,2052,1942
2047,2033,2015,2072,2065,2031,2038,1951
2051,2034,2022,2076,2058,2046,2072,1958
2052,2036,2021,2060,2057,2050,2067,1965
2055,2034,2013,2060,2056,2056,2066,1966
2045,2016,1989,2056,2054,2054,2070,1984
2047,2018,1997,2062,2059,2049,2062,1995
2052,2028,2012,2060,2070,2053,2073,2004
2052,2036,2041,2067,2080,2050,2065,2015
2053,2038,2051,2067,2079,2056,2061,2031
2053,2043,2044,2062,2072,2052,2065,2045
2053,2035,2031,2051,2058,2049,2060,2044
2051,2032,2032,2054,2054,2046,2055,2052
2051,2041,2062,2071,2067,2053,2074,2068
2060,2054,2080,2062,2057,2045,2057,2065
2052,2051,2085,2057,2044,2041,2058,2074
2056,2047,2075,2046,2039,2046,2067,2088
2056,2044,2067,2044,2040,2046,2060,2088
2050,2029,2061,2046,2040,2055,2057,2084
2050,2034,2060,2049,2051,2056,2067,2079
2055,2035,2082,2039,2058,2060,2076,2082
2052,2048,2109,2041,2059,2067,2078,2068
2052,2053,2126,2054,2059,2065,2056,2047
2043,2050,2134,2065,2067,2069,2049,2047
2053,2052,2134,2080,2064,2069,2057,2042
2054,2046,2126,2080,2061,2061,2031,2015
2054,2041,2109,2082,2065,2059,2055,1998
2053,2033,2092,2083,2060,2058,2069,1981
2055,2031,2076,2082,2065,2058,2036,1975
2049,2033,2068,2085,2069,2059,2032,1963
2056,2032,2052,2072,2061,2044,2052,1950
2033,2015,2021,2054,2058,2041,2042,1942
2028,2001,1995,2029,2050,2043,2046,1945
2028,1998,1965,2019,2054,2043,2049,1950
2043,2000,1966,2032,2054,2038,2045,1956
2045,1995,1972,2035,2050,2031,2055,1959
2039,2003,1980,2037,2043,2025,2021,1963
2032,2011,1982,2038,2038,2026,2043,1983
2040,2021,2003,2048,2046,2029,2038,2000
2045,2034,2010,2051,2053,2036,2036,2011
2048,2032,2003,2052,2050,2044,2039,2027
2056,2035,1980,2038,2045,2038,2040,2035
2059,2037,1977,2038,2052,2046,2039,2055
2060,2030,1979,2050,2047,2046,2049,2066
2063,2027,1983,2045,2042,2050,2042,2069
2055,2027,1991,2052,2043,2046,2040,2072
2051,2031,2000,2037,2031,2037,2031,2073
2040,2023,2004,2020,2016,2031,2048,2077
2042,2027,2029,2016,2020,2028,2028,2084
2046,2041,2064,2015,2028,2026,2032,2088
2053,2061,2097,2021,2029,2029,2035,2090
2049,2062,2097,2029,2034,2047,2034,2094
2047,2061,2082,2032,2048,2064,2055,2096
2056,2063,2075,2041,2061,2073,2061,2096
2066,2066,2080,2065,2078,2080,2060,2087
2070,2070,2090,2078,2091,2087,2082,2079
2079,2078,2105,2080,2089,2093,2081,2062
2072,2078,2097,2073,2088,2088,2068,2046
2074,2072,2083,2063,2068,2086,2059,2031
2067,2060,2075,2048,2060,2063,2046,2000
2060,2049,2069,2043,2060,2050,2049,1984
2052,2050,2069,2040,2056,2050,2040,1970
2048,2041,2064,2021,2050,2037,2040,1953
2034,2029,2067,2026,2046,2019,2032,1953
2036,2031,2091,2046,2069,2034,2052,1958
2045,2039,2071,2045,2063,2043,2048,1964
2038,2029,2057,2043,2062,2047,2042,1968
2038,2033,2049,2045,2051,2041,2047,1977
2038,2031,2049,2045,2042,2039,2044,1991
2044,2039,2070,2056,2046,2044,2042,2013
2055,2047,2090,2069,2056,2047,2043,2030
2056,2054,2087,2064,2058,2057,2042,2037
2050,2049,2072,2062,2058,2058,2051,2054
2054,2043,2064,2061,2057,2056,2071,2068
2054,2047,2059,2058,2060,2045,2071,2072
2050,2038,2046,2048,2053,2040,2064,2082
2056,2043,2044,2053,2061,2044,2073,2092
2061,2047,2054,2062,2068,2040,2054,2101
2065,2055,2053,2055,2072,2036,2043,2101
2061,2044,2042,2060,2068,2028,2074,2108
2058,2041,2033,2059,2069,2032,2080,2112
2068,2051,2024,2061,2081,2034,2066,2117
2067,2047,2019,2064,2074,2040,2064,2117
2071,2036,2012,2066,2073,2037,2062,2111
2062,2038,2006,2057,2066,2043,2043,2101
2052,2027,2003,2046,2053,2036,2058,2093
2046,2042,2017,2047,2051,2041,2061,2082
2057,2043,2022,2053,2049,2042,2065,2072
2051,2043,2030,2059,2050,2051,2055,2053
2044,2042,2028,2075,2063,2062,2062,2041
2040,2031,2021,2086,2062,2064,2064,2024
2051,2020,2013,2081,2059,2061,2060,2005
2043,2022,1996,2084,2049,2056,2073,2002
2047,2029,2011,2084,2045,2058,2079,1988
2062,2042,2027,2086,2046,2042,2057,1976
2045,2036,2026,2072,2038,2042,2025,1967
2040,2036,2037,2056,2029,2058,2067,1975
2042,2036,2035,2056,2035,2064,2074,1980
2046,2038,2040,2055,2040,2077,2080,1986
2052,2046,2070,2066,2062,2083,2080,1996
2057,2070,2096,2085,2076,2074,2062,2002
2064,2068,2091,2075,2069,2063,2069,2008
2050,2057,2090,2085,2066,2061,2056,2023
2050,2049,2085,2095,2060,2064,2073,2035
2054,2044,2078,2098,2064,2064,2074,2055
2054,2037,2076,2085,2059,2054,2064,2062
2044,2033,2076,2067,2037,2038,2073,2077
2041,2034,2082,2047,2013,2030,2057,2083
2032,2029,2094,2032,2001,2031,2036,2094
2038,2031,2099,2029,2005,2036,2054,2106
2040,2040,2099,2035,2011,2046,2040,2101
2044,2037,2086,2029,2010,2045,2026,2108
2050,2036,2077,2034,2026,2050,2061,2114
2058,2047,2078,2045,2041,2039,2069,2126
2053,2043,2074,2043,2046,2037,2056,2121
2052,2048,2074,2045,2039,2031,2063,2124
2042,2050,2083,2050,2037,2033,2071,2116
2060,2072,2103,2050,2044,2039,2072,2118
2066,2077,2104,2055,2051,2045,2071,2103
2061,2071,2084,2047,2057,2055,2081,2093
2057,2060,2068,2041,2056,2059,2082,2082
2064,2066,2078,2059,2056,2068,2087,2068
2067,2071,2079,2069,2080,2079,2087,2055
2066,2061,2077,2067,2086,2074,2091,2032
2051,2055,2070,2054,2083,2069,2070,2012
2047,2046,2067,2048,2070,2068,2053,2000
2049,2038,2067,2037,2053,2089,2053,1987
2045,2031,2054,2043,2064,2107,2052,1984
2041,2030,2058,2050,2074,2119,2066,1976
2043,2043,2058,2052,2067,2112,2056,1978
2039,2042,2059,2045,2064,2088,2040,1981
2051,2039,2049,2041,2058,2072,2036,1995
2042,2036,2044,2040,2057,2067,2039,2002
2046,2039,2047,2044,2050,2075,2040,2016
2041,2036,2044,2046,2052,2073,2049,2028
2044,2039,2044,2050,2064,2073,2055,2052
2052,2044,2052,2057,2066,2063,2066,2064
2058,2053,2054,2058,2067,2038,2050,2069
2061,2046,2052,2072,2072,1975,2024,2080
2065,2050,2048,2078,2074,1964,2039,2092
2061,2052,2046,2069,2061,1993,2039,2103
2060,2051,2046,2071,2052,2021,2027,2111
2059,2061,2048,2062,2048,2032,2037,2115
2051,2047,2038,2054,2037,2039,2024,2115
2049,2040,2038,2051,2038,2059,2038,2121
2058,2042,2038,2053,2031,2057,2038,2120
2055,2042,2037,2051,2032,2050,2028,2117
2059,2051,2041,2054,2045,2033,2028,2119
2063,2050,2043,2063,2056,1994,2028,2116
2069,2049,2037,2073,2074,1989,2040,2105
2070,2046,2038,2073,2070,2006,2037,2095
2065,2046,2036,2076,2076,2021,2045,2085
2068,2046,2040,2075,2072,2033,2057,2071
2068,2050,2040,2076,2081,2028,2028,2060
2065,2054,2032,2077,2074,2018,2043,2042
2060,2040,2024,2065,2075,2013,2042,2020
2054,2040,2033,2066,2078,2035,2031,2004
2053,2044,2035,2064,2070,2065,2039,1995
2057,2042,2038,2059,2063,2072,2049,1990
2053,2039,2037,2057,2066,2057,2033,1983
2054,2043,2035,2062,2069,2051,2050,1982
2058,2048,2046,2065,2069,2046,2059,1993
2074,2054,2057,2065,2067,2050,2046,2004
2080,2073,2081,2069,2079,2062,2042,2014
2074,2073,2095,2085,2078,2077,2058,2028
2079,2087,2110,2084,2084,2082,2041,2035
2077,2081,2101,2084,2080,2088,2050,2047
2072,2072,2083,2076,2076,2089,2048,2052
2069,2063,2074,2078,2071,2102,2065,2063
2056,2057,2073,2078,2078,2103,2072,2071
2058,2053,2074,2065,2075,2091,2054,2088
2062,2055,2071,2063,2077,2076,2042,2095
2058,2058,2066,2064,2082,2077,2049,2112
2061,2065,2074,2070,2091,2076,2065,2124
2060,2063,2064,2075,2073,2045,2054,2124
2054,2048,2054,2064,2066,2034,2045,2125
2048,2044,2053,2066,2055,2040,2051,2120
2063,2048,2051,2066,2050,2052,2075,2123
2059,2063,2062,2071,2048,2071,2064,2118
2058,2056,2062,2069,2061,2080,2068,2117
2054,2056,2052,2070,2059,2076,2069,2115
2059,2049,2056,2069,2052,2070,2078,2109
2059,2058,2058,2070,2056,2064,2056,2098
2060,2053,2051,2060,2055,2063,2072,2081
2052,2047,2042,2058,2060,2071,2086,2061
2055,2041,2043,2056,2060,2068,2070,2057
2053,2042,2039,2055,2053,2041,2054,2039
2050,2042,2041,2050,2048,2013,2063,2022
2050,2047,2039,2044,2045,2018,2043,2009
2053,2039,2037,2042,2038,2032,2052,2001
2049,2036,2028,2045,2038,2038,2042,1996
2054,2043,2032,2051,2042,2043,2050,1991
2058,2052,2045,2056,2043,2057,2037,1995
2059,2053,2049,2063,2051,2058,2064,1998
2061,2049,2050,2064,2050,2067,2055,2014
2064,2047,2044,2065,2052,2071,2056,2016
2066,2042,2040,2064,2058,2070,2032,2022
2058,2045,2043,2067,2044,2055,2053,2035
2059,2036,2041,2073,2034,2037,2038,2043
2053,2032,2043,2074,2035,2033,2028,2056
2046,2038,2049,2073,2034,2020,2020,2064
2051,2042,2049,2067,2030,2023,2011,2074
2054,2046,2053,2071,2035,2039,2039,2082
2055,2049,2045,2076,2039,2051,2042,2100
2058,2049,2039,2072,2044,2060,2024,2115
2061,2050,2035,2071,2046,2060,2033,2119
2055,2050,2025,2058,2041,2056,2019,2123
2055,2041,2024,2050,2037,2052,2054,2128
2057,2048,2031,2053,2047,2054,2066,2138
2060,2047,2030,2051,2045,2046,2026,2138
2064,2057,2025,2042,2051,2046,2039,2138
2071,2058,2035,2036,2051,2046,2029,2129
2070,2066,2049,2037,2052,2039,2052,2126
2074,2070,2064,2040,2054,2037,2063,2122
2073,2068,2066,2042,2052,2036,2046,2110
2070,2059,2054,2039,2055,2024,2056,2089
2069,2053,2042,2040,2055,2032,2049,2073
2061,2049,2042,2040,2053,2032,2043,2062
2058,2043,2039,2048,2050,2028,2053,2047
2064,2054,2050,2062,2047,2007,2037,2031
2064,2056,2056,2072,2051,2006,2051,2012
2058,2060,2062,2079,2060,2037,2055,2010
2061,2056,2053,2080,2053,2054,2059,1995
2047,2043,2043,2071,2053,2057,2058,1993
2050,2045,2041,2073,2055,2064,2063,1994
2063,2061,2057,2079,2047,2071,2054,2004
2066,2061,2049,2076,2045,2066,2065,2007
2068,2062,2046,2064,2035,2053,2047,2005
2061,2058,2039,2063,2023,2040,2044,2021
2062,2061,2040,2053,2028,2028,2045,2031
2060,2058,2039,2058,2026,2036,2047,2047
2068,2070,2052,2064,2041,2040,2059,2069
2072,2076,2056,2056,2042,2041,2049,2083
2064,2067,2053,2058,2047,2044,2045,2086
2068,2065,2047,2052,2038,2051,2053,2094
2066,2068,2052,2046,2037,2074,2051,2104
2070,2066,2047,2043,2038,2088,2064,2108
2064,2054,2039,2030,2032,2084,2046,2113
2053,2043,2046,2032,2019,2085,2042,2112
2049,2040,2055,2045,2033,2088,2050,2131
2060,2052,2069,2067,2056,2099,2063,2144
2073,2069,2073,2075,2058,2101,2039,2142
2076,2067,2060,2061,2018,2043,2020,2125
2070,2055,2043,2056,2056,1999,2040,2123
2064,2049,2039,2049,2097,2028,2022,2115
2059,2043,2031,2049,2107,2019,2020,2101
2052,2040,2035,2057,2123,2008,2043,2101
2055,2040,2039,2067,2148,2030,2047,2106
2059,2052,2047,2080,2159,2057,2030,2096
2065,2056,2049,2082,2147,2088,2057,2084
2072,2054,2056,2077,2130,2104,2065,2063
2060,2044,2048,2064,2086,2102,2054,2037
2054,2037,2049,2049,2010,2083,2061,2019
2053,2038,2063,2042,1948,2080,2044,2013
2054,2052,2077,2043,1896,2070,2053,1998
2054,2054,2073,2053,1926,2082,2069,1996
2062,2057,2076,2058,1983,2097,2046,2010
2073,2066,2074,2056,2016,2096,2055,2011
2074,2067,2071,2053,2030,2079,2062,2014
2077,2064,2064,2056,2033,2042,2060,2017
2066,2054,2047,2048,2037,2030,2053,2031
2066,2048,2043,2044,2056,2013,2036,2046
2067,2053,2058,2048,2052,1981,2032,2056
2067,2056,2061,2053,2034,1946,2032,2070
2065,2054,2051,2044,2016,1948,2036,2073
2063,2048,2047,2034,2006,1962,2030,2079
2052,2039,2039,2025,1999,1998,2021,2082
2055,2040,2034,2031,2014,2022,2025,2093
2053,2034,2031,2036,2021,2036,2040,2107
2056,2039,2031,2043,2004,2038,2033,2104
2057,2039,2030,2054,2015,2036,2020,2109
2053,2027,2024,2051,2025,2043,2034,2109
2044,2027,2021,2058,2058,2055,2052,2128
2057,2041,2029,2078,2085,2066,2046,2131
2070,2046,2032,2081,2109,2080,2056,2133
2066,2054,2037,2083,2121,2094,2053,2134
2068,2056,2038,2077,2108,2087,2046,2135
2080,2061,2044,2078,2080,2069,2067,2126
2076,2055,2040,2058,2069,2061,2066,2113
2064,2052,2032,2036,2041,2057,2063,2104
2062,2046,2030,2031,2015,2046,2044,2092
2061,2050,2033,2028,2011,2047,2047,2076
2056,2051,2054,2046,2045,2055,2061,2052
2058,2050,2073,2057,2053,2057,2059,2033
2054,2052,2076,2055,2039,2052,2040,2024
2061,2051,2066,2042,1994,2044,2059,2013
2063,2048,2069,2038,1967,2032,2035,2002
2053,2037,2051,2036,1934,2008,2048,1991
2058,2032,2035,2022,1942,2001,2039,1985
2061,2038,2037,2040,1966,2007,2047,1999
2054,2039,2044,2052,1987,2013,2031,2003
2060,2035,2037,2055,1996,2018,2055,2016
2061,2039,2036,2057,2023,2026,2049,2025
2068,2043,2042,2060,2050,2029,2050,2038
2060,2045,2037,2065,2065,2062,2056,2051
2054,2041,2036,2069,2089,2078,2045,2071
2066,2039,2040,2069,2113,2078,2062,2089
2070,2040,2041,2075,2134,2076,2037,2093
2066,2037,2038,2067,2132,2064,2038,2104
2061,2039,2035,2070,2111,2051,2030,2109
2061,2046,2044,2071,2094,2050,2029,2118
2066,2055,2063,2077,2088,2057,2028,2128
2073,2057,2077,2076,2079,2060,2043,2127
2069,2052,2062,2064,2077,2051,2044,2135
2058,2047,2058,2049,2070,2041,2034,2141
2072,2059,2065,2047,2072,2030,2024,2144
2070,2062,2075,2048,2077,2019,2039,2150
2080,2064,2075,2047,2078,2020,2031,2143
2077,2072,2070,2050,2084,2037,2042,2146
2070,2069,2067,2051,2078,2072,2049,2134
2071,2063,2062,2049,2076,2095,2059,2113
2070,2068,2068,2056,2082,2114,2064,2112
2070,2070,2071,2057,2075,2117,2070,2095
2076,2065,2062,2052,2060,2109,2072,2078
2073,2067,2064,2047,2057,2100,2072,2071
2072,2062,2055,2047,2056,2072,2054,2052
2069,2052,2052,2037,2042,2009,2036,2034
2070,2061,2053,2040,2041,1979,2030,2015
2065,2066,2062,2040,2033,1979,2028,2000
2061,2054,2059,2031,2014,1993,2041,1986
2051,2055,2056,2040,2004,2013,2054,1988
2052,2062,2070,2042,1999,2019,2054,1992
2064,2060,2064,2050,2007,2034,2059,1997
2063,2061,2063,2055,2031,2040,2064,2005
2055,2053,2052,2045,2031,2031,2064,2020
2054,2052,2048,2052,2029,2025,2054,2033
2052,2044,2044,2060,2031,2028,2060,2039
2055,2036,2047,2064,2049,2035,2068,2047
2059,2050,2061,2072,2057,2040,2069,2067
2061,2050,2064,2081,2065,2036,2062,2075
2062,2048,2056,2075,2060,2040,2065,2085
2056,2039,2049,2071,2050,2045,2073,2099
2055,2035,2034,2063,2049,2029,2062,2098
2053,2029,2022,2063,2040,2024,2054,2109
2051,2030,2028,2058,2048,2018,2042,2114
2046,2027,2017,2055,2046,2004,2034,2107
2034,2011,2001,2037,2020,1992,2034,2118
2045,2016,2008,2035,1985,2003,2033,2125
2054,2016,2000,2028,1986,2018,2052,2129
2055,2018,2002,2022,2009,2022,2065,2129
2057,2028,2005,2025,2033,2022,2072,2127
2063,2032,2004,2022,2051,2042,2070,2113
2058,2026,1993,2024,2058,2059,2070,2105
2060,2023,2000,2018,2050,2060,2071,2086
2050,2026,2013,2028,2052,2052,2064,2061
2043,2028,2029,2030,2057,2043,2068,2065
2056,2035,2052,2042,2060,2053,2061,2059
2052,2035,2062,2039,2058,2066,2058,2041
2056,2041,2064,2045,2059,2079,2037,2027
2050,2041,2071,2054,2061,2066,2064,2020
2060,2054,2088,2061,2062,2053,2058,2018
2067,2055,2086,2058,2054,2028,2056,2007
2062,2046,2071,2052,2034,2019,2063,1997
2058,2050,2070,2048,2021,2026,2060,1991
2058,2047,2065,2053,2028,2023,2043,1997
2056,2044,2059,2049,2035,2024,2048,2006
2058,2043,2053,2045,2026,2017,2028,2014
2055,2034,2048,2042,2009,2025,2033,2017
2052,2043,2048,2040,2004,2063,2050,2036
2056,2043,2052,2045,2013,2090,2064,2051
2074,2053,2059,2047,2019,2104,2040,2074
2074,2052,2054,2046,2017,2094,2043,2084
2075,2049,2050,2052,2016,2056,2059,2098
2070,2043,2054,2051,2031,2027,2064,2098
2061,2044,2052,2055,2024,2029,2063,2110
2056,2041,2047,2052,2001,2037,2059,2119
2056,2041,2041,2041,1996,2045,2046,2118
2054,2034,2035,2034,1994,2040,2029,2120
2041,2029,2031,2034,1998,2032,2042,2128
2058,2038,2042,2043,2016,2044,2061,2132
2060,2047,2050,2046,2048,2069,2072,2133
2065,2045,2052,2056,2076,2077,2075,2138
2064,2049,2055,2059,2072,2075,2078,2130
2071,2047,2064,2056,2057,2068,2067,2127
2071,2042,2063,2053,2049,2063,2079,2120
2074,2053,2065,2060,2042,2054,2074,2113
2068,2051,2060,2052,2039,2046,2080,2104
2068,2044,2054,2051,2036,2035,2078,2088
2061,2035,2047,2054,2039,2031,2072,2071
2067,2044,2046,2054,2055,2036,2065,2050
2061,2038,2034,2061,2050,2044,2079,2032
2056,2035,2039,2066,2054,2045,2048,2024
2057,2037,2043,2073,2061,2053,2062,2010
2061,2027,2041,2074,2059,2047,2052,1999
2057,2017,2039,2073,2057,2044,2061,1985
2042,2016,2039,2073,2056,2046,2053,1991
2055,2030,2039,2072,2049,2043,2066,2000
2055,2030,2038,2071,2054,2040,2065,2009
2061,2037,2031,2070,2048,2057,2053,2012
2060,2035,2016,2068,2044,2079,2059,2024
2054,2030,2015,2062,2046,2097,2058,2039
2054,2036,2011,2059,2045,2127,2052,2049
2056,2031,2011,2050,2037,2125,2059,2063
2054,2030,2009,2041,2034,2135,2071,2071
2056,2026,2008,2035,2035,2120,2042,2073
2049,2026,2014,2038,2042,2031,2046,2084
2049,2025,2022,2036,2038,1988,2035,2090
2040,2017,2021,2026,2041,2019,2044,2106
2037,2016,2016,2016,2040,2040,2043,2108
2045,2023,2037,2024,2053,2061,2050,2116
2048,2033,2067,2033,2058,2063,2033,2128
2054,2042,2084,2044,2065,2069,2051,2130
2055,2042,2076,2043,2061,2075,2062,2129
2049,2032,2056,2034,2058,2053,2062,2122
2050,2028,2050,2034,2047,2026,2046,2126
2055,2038,2049,2039,2032,2006,2041,2126
2060,2046,2050,2034,2029,2006,2035,2124
2059,2043,2057,2038,2023,2011,2066,2113
2058,2050,2059,2037,2023,2014,2056,2110
2057,2056,2069,2040,2029,2028,2060,2102
2064,2064,2078,2046,2044,2029,2066,2094
2065,2071,2085,2050,2052,2036,2069,2080
2073,2068,2079,2057,2057,2033,2074,2056
2074,2066,2086,2057,2055,2040,2077,2042
2070,2068,2081,2055,2053,2038,2062,2039
2069,2062,2078,2054,2056,2039,2060,2026
2069,2056,2073,2049,2044,2036,2053,2013
2063,2050,2075,2050,2039,2036,2048,2007
2072,2064,2078,2050,2039,2036,2038,2014
2069,2069,2074,2052,2036,2054,2030,2002
2068,2066,2073,2042,2035,2066,2053,2009
2066,2062,2059,2040,2037,2043,2046,2020
2066,2058,2058,2046,2033,2026,2038,2038
2066,2053,2052,2046,2029,2022,2028,2050
2060,2048,2051,2051,2038,2010,2027,2065
2063,2047,2049,2047,2035,2009,2033,2072
2059,2036,2032,2040,2026,2014,2024,2081
2054,2035,2032,2041,2031,2035,2036,2091
2053,2038,2028,2041,2037,2049,2052,2104
2056,2043,2035,2044,2041,2059,2037,2107
2056,2045,2042,2044,2035,2070,2030,2109
2052,2046,2042,2045,2032,2073,2015,2120
2042,2036,2037,2040,2023,2070,2016,2116
2037,2030,2030,2039,2057,2080,2017,2118
2051,2033,2029,2047,2094,2080,2047,2130
2046,2029,2033,2045,2105,2084,2054,2135
2049,2038,2045,2053,2106,2127,2042,2131
2060,2050,2061,2058,2099,2150,2058,2133
2059,2048,2062,2051,2062,2132,2054,2124
2058,2044,2057,2039,2044,2044,2045,2116
2052,2046,2062,2045,2033,1978,2046,2109
2053,2046,2062,2044,2028,1993,2054,2104
2052,2046,2062,2035,1992,2021,2051,2080
2051,2040,2053,2029,1989,2036,2048,2066
2047,2042,2050,2034,2012,2048,2047,2043
2047,2041,2050,2034,2025,2030,2043,2022
2056,2044,2049,2038,2037,2023,2045,2013
2042,2044,2038,2034,2042,2015,2053,2002
2049,2039,2024,2029,2020,1992,2055,1988
2034,2028,2024,2029,2011,1997,2064,1987
2045,2040,2031,2039,1996,2016,2055,1994
2047,2038,2026,2037,1981,2010,2040,1990
2046,2034,2020,2033,1979,1996,2016,1983
2042,2028,2018,2042,1991,2009,2013,1998
2042,2035,2037,2054,2013,2026,2022,2016
2046,2050,2051,2060,2005,2041,2025,2030
2056,2051,2055,2059,2003,2053,2006,2047
2060,2051,2059,2057,2001,2037,2038,2058
2057,2045,2068,2060,2016,2006,2037,2076
2061,2042,2070,2062,2036,1995,2024,2092
2055,2040,2059,2056,2056,2005,2017,2097
2046,2032,2057,2049,2052,2030,2029,2096
2044,2031,2061,2058,2054,2044,2010,2108
2044,2037,2063,2054,2050,2047,2031,2113
2042,2029,2045,2042,2035,2041,2027,2109
2044,2023,2047,2039,2037,2045,2026,2117
2042,2024,2047,2042,2083,2061,2035,2120
2047,2024,2049,2042,2109,2081,2027,2128
2043,2032,2051,2043,2121,2102,2035,2123
2047,2034,2040,2038,2114,2115,2035,2119
2051,2035,2041,2039,2116,2092,2037,2113
2058,2038,2055,2038,2109,2062,2033,2102
2052,2041,2060,2043,2105,2065,2035,2089
2056,2043,2067,2045,2093,2078,2049,2072
2044,2038,2066,2052,2075,2085,2056,2062
2046,2034,2054,2035,2041,2080,2054,2049
2046,2029,2044,2031,1961,2053,2049,2030
2056,2034,2046,2031,1932,2033,2043,2020
2055,2044,2054,2045,1964,2003,2050,2004
2056,2044,2053,2056,1985,1995,2032,1989
2045,2038,2041,2054,1994,1999,2044,1983
2043,2025,2038,2045,1995,2005,2035,1982
2044,2031,2037,2042,1967,2018,2020,1988
2042,2040,2036,2042,1948,2026,2047,1999
2042,2054,2040,2046,1950,1992,2045,2009
2046,2058,2033,2050,1953,1986,2060,2028
2061,2058,2039,2062,1999,2020,2043,2039
2057,2046,2034,2073,2042,2036,2046,2053
2056,2047,2035,2072,2069,2061,2062,2062
2051,2041,2037,2071,2093,2083,2064,2072
2052,2034,2027,2059,2078,2056,2051,2077
2035,2026,2020,2050,2064,2038,2041,2078
2032,2017,2011,2041,2055,2029,2040,2081
2026,2013,2011,2045,2052,2026,2036,2089
2032,2016,2018,2052,2045,2022,2043,2100
2036,2020,2041,2059,2064,2036,2032,2104
2041,2024,2044,2058,2062,2029,2020,2106
2034,2021,2048,2057,2054,2030,2031,2109
2040,2035,2045,2057,2064,2033,2041,2116
2037,2031,2033,2055,2054,2021,2023,2113
2037,2026,2023,2034,2050,2022,2033,2108
2040,2037,2034,2031,2047,2035,2028,2104
2049,2044,2059,2043,2048,2046,2038,2102
2044,2053,2065,2046,2056,2053,2053,2101
2054,2053,2064,2041,2059,2062,2057,2088
2056,2056,2056,2045,2064,2095,2059,2082
2051,2056,2051,2047,2062,2120,2062,2064
2050,2055,2045,2038,2049,2100,2056,2039
2043,2039,2024,2026,2045,2065,2029,2020
2049,2045,2028,2032,2051,2053,2051,2009
2047,2051,2046,2038,2056,2048,2041,2009
2052,2051,2053,2044,2063,2058,2048,1990
2041,2039,2049,2044,2063,2049,2012,1980
2050,2040,2048,2049,2061,2043,2023,1980
2046,2045,2051,2052,2065,2049,2018,1976
2050,2042,2050,2052,2060,2049,2022,1990
2043,2046,2049,2054,2054,2055,2036,1994
2052,2047,2052,2052,2054,2060,2053,2009
2055,2058,2051,2058,2059,2062,2047,2026
2058,2067,2061,2049,2058,2057,2040,2042
2063,2066,2070,2055,2056,2048,2026,2050
2064,2064,2072,2050,2052,2042,2025,2064
2059,2063,2072,2047,2054,2043,2016,2072
2052,2062,2067,2045,2048,2038,2015,2082
2062,2059,2068,2042,2050,2037,2021,2086
2058,2055,2063,2041,2044,2030,2001,2108
2065,2053,2055,2036,2036,2021,2007,2113
2059,2047,2045,2038,2034,2021,2024,2110
2055,2039,2036,2033,2025,2013,2020,2113
2052,2038,2046,2038,2016,2015,2026,2118
2049,2046,2060,2049,2006,2011,2020,2120
2053,2053,2061,2050,2003,2013,2022,2119
2061,2047,2058,2053,2010,2036,2036,2116
2063,2052,2061,2055,2018,2056,2060,2114
2067,2048,2063,2057,2025,2072,2061,2104
2071,2046,2059,2059,2031,2070,2043,2101
2067,2051,2057,2065,2044,2067,2050,2091
2058,2041,2054,2060,2064,2064,2049,2068
2053,2029,2050,2062,2079,2064,2063,2055
2048,2037,2048,2064,2075,2065,2069,2043
2064,2054,2059,2074,2071,2074,2052,2022
2065,2051,2067,2075,2074,2079,2064,2002
2055,2048,2067,2069,2092,2080,2069,1999
2053,2049,2058,2064,2102,2083,2074,1989
2044,2035,2042,2048,2086,2071,2072,1974
2037,2031,2032,2032,2046,2068,2075,1972
2044,2037,2030,2030,2014,2070,2080,1984
2046,2030,2020,2009,2012,2043,2060,1980
2035,2024,2015,1994,2018,2023,2057,1983
2042,2035,2022,2011,2025,2020,2043,1999
2054,2042,2035,2037,2036,2031,2058,2030
2052,2041,2041,2054,2058,2037,2064,2040
2053,2037,2040,2056,2059,2057,2068,2044
2043,2025,2035,2058,2059,2063,2044,2052
2046,2026,2039,2064,2058,2063,2049,2058
2052,2035,2045,2068,2070,2065,2055,2079
2057,2039,2050,2070,2066,2067,2068,2090
2053,2027,2035,2062,2049,2046,2056,2095
2054,2022,2032,2060,2038,2032,2060,2094
2045,2026,2038,2064,2025,2028,2056,2088
2040,2018,2024,2044,1991,2034,2045,2094
2035,2012,2026,2043,1994,2041,2046,2104
2048,2030,2040,2059,2020,2056,2050,2107
2042,2041,2051,2066,2041,2075,2064,2107
2050,2047,2069,2065,2045,2079,2058,2106
2046,2048,2072,2056,2040,2087,2065,2102
2055,2058,2084,2057,2043,2102,2070,2102
2059,2067,2098,2062,2058,2103,2076,2097
2064,2074,2108,2061,2058,2098,2084,2086
2061,2072,2095,2068,2061,2098,2082,2076
2060,2069,2085,2073,2063,2087,2060,2050
2056,2062,2076,2070,2071,2060,2058,2040
2052,2058,2075,2060,2062,2010,2058,2025
2056,2064,2076,2055,2049,2002,2061,2007
2058,2069,2080,2049,2045,2016,2065,1996
2048,2074,2077,2046,2048,2020,2042,1976
2038,2061,2058,2038,2051,2027,2056,1970
2043,2051,2037,2027,2042,2030,2039,1972
2045,2056,2032,2012,2032,2032,2063,1979
2042,2046,2026,1996,2027,2040,2056,1990
2049,2046,2026,1998,2024,2038,2033,1990
2049,2046,2032,2003,2018,2028,2029,1998
2053,2044,2047,2019,2016,2009,2036,2015
2056,2050,2046,2028,2038,1994,2033,2036
2053,2045,2048,2029,2050,1997,2043,2043
2051,2046,2056,2039,2064,2019,2057,2061
2056,2045,2055,2043,2048,2017,2023,2071
2059,2049,2057,2046,2029,2019,2037,2076
2053,2052,2055,2041,2024,2017,2034,2084
2055,2044,2048,2037,2025,2017,2035,2088
2052,2042,2046,2035,2032,2022,2029,2102
2058,2042,2048,2036,2028,2029,2034,2111
2054,2041,2044,2034,2021,2038,2036,2117
2057,2052,2058,2043,2038,2079,2040,2128
2067,2056,2066,2050,2085,2097,2019,2122
2055,2048,2059,2049,2107,2116,2044,2120
2055,2049,2050,2049,2110,2109,2034,2110
2040,2043,2047,2050,2112,2028,2038,2107
2050,2045,2056,2049,2081,2006,2046,2094
2050,2042,2049,2047,2051,2021,2044,2085
2049,2038,2044,2043,2029,2034,2028,2080
2049,2034,2044,2044,2029,2036,2032,2070
2044,2036,2049,2035,2009,2018,2012,2055
2048,2036,2047,2024,1975,2017,2029,2034
2042,2038,2052,2029,1979,2035,2042,2012
2037,2038,2048,2033,1997,2028,2041,2004
2041,2036,2045,2032,2018,2028,2035,1995
2044,2040,2046,2034,2025,2040,2040,1980
2041,2027,2034,2028,2027,2039,2007,1979
2047,2025,2030,2030,2025,2052,2039,1978
2051,2030,2030,2031,2030,2059,2037,1984
2053,2028,2028,2031,2028,2067,2009,1987
2048,2025,2026,2026,2028,2087,2017,1991
2043,2016,2018,2023,2028,2107,2029,1998
2038,2011,2001,2027,2028,2075,2016,2008
2038,2005,2003,2023,2027,1979,1978,2015
2032,2005,1995,2022,2019,1936,1994,2031
2030,2013,2000,2030,2026,1974,2024,2040
2034,2017,1998,2030,2038,2002,2011,2056
2035,2014,2005,2033,2038,2010,2037,2069
2041,2028,2012,2035,2035,2015,2036,2083
2044,2033,2023,2043,2034,2021,2027,2097
2050,2036,2029,2043,2040,2030,1995,2106
2059,2042,2028,2050,2035,2039,1992,2106
2046,2036,2022,2048,2040,2057,2035,2119
2050,2040,2016,2044,2043,2069,2031,2131
2057,2037,2011,2031,2029,2080,2024,2116
2048,2040,2025,2026,2006,2076,2030,2113
2049,2054,2042,2034,2016,2032,2049,2111
2053,2062,2060,2041,2024,2038,2061,2107
2052,2064,2081,2047,2030,2054,2049,2098
2048,2064,2090,2060,2036,2068,2066,2093
2054,2058,2093,2061,2038,2062,2058,2078
2058,2064,2099,2064,2042,2054,2056,2074
2069,2062,2091,2056,2042,2054,2037,2061
2072,2064,2091,2054,2042,2050,2063,2042
2068,2063,2084,2048,2038,2036,2060,2026
2060,2051,2073,2038,2032,2015,2051,2001
2049,2050,2059,2040,2032,2022,2040,1983
2040,2035,2054,2029,2032,2025,2019,1972
2031,2028,2055,2030,2030,2033,2006,1970
2037,2037,2055,2035,2030,2040,2021,1975
2035,2035,2064,2032,2022,2047,2033,1976
2041,2043,2071,2038,2028,2055,2040,1979
2040,2044,2075,2043,2035,2058,2051,1998
2043,2058,2081,2056,2046,2066,2054,2013
2052,2061,2083,2055,2050,2078,2066,2025
2051,2059,2073,2047,2049,2075,2061,2040
2055,2054,2074,2050,2047,2078,2059,2051
2049,2052,2067,2047,2043,2078,2050,2058
2048,2051,2066,2047,2039,2089,2060,2068
2050,2050,2062,2037,2037,2096,2043,2080
2044,2050,2064,2038,2038,2093,2046,2095
2052,2055,2060,2044,2044,2088,2053,2103
2058,2050,2057,2042,2039,2082,2070,2108
2050,2051,2057,2034,2026,2062,2049,2111
2039,2040,2050,2028,2032,2049,2056,2117
2050,2048,2059,2040,2050,2064,2068,2139
2054,2056,2059,2047,2042,2025,2065,2133
2059,2061,2059,2044,2038,1990,2052,2129
2046,2055,2045,2036,2036,1970,2041,2124
2052,2044,2036,2031,2037,1971,2039,2114
2046,2040,2030,2033,2042,1970,2036,2103
2038,2037,2027,2040,2053,1975,2057,2092
2048,2035,2022,2033,2065,2006,2044,2079
2048,2038,2010,2033,2062,2042,2047,2066
2052,2036,2009,2032,2056,2088,2066,2051
2041,2030,1999,2024,2055,2132,2084,2036
2042,2022,1988,2031,2058,2130,2078,2018
2051,2029,1997,2035,2058,2112,2076,1995
2044,2031,1992,2041,2054,2095,2071,1982
2036,2023,1995,2039,2042,2109,2074,1969
2035,2019,1997,2039,2041,2116,2076,1964
2031,2031,2018,2039,2023,2089,2053,1966
2036,2037,2027,2038,2005,2057,2046,1971
2033,2037,2036,2031,1982,2011,2026,1977
2034,2035,2023,2020,1954,2002,2018,1973
2033,2027,2030,2005,1927,1967,2012,1976
2025,2029,2043,2012,1922,1931,2010,1996
2028,2031,2072,2024,1958,1916,2015,2017
2035,2038,2080,2044,2003,1950,2022,2031
2039,2044,2085,2050,2051,2012,2036,2043
2040,2049,2097,2063,2076,2051,2034,2066
2046,2054,2103,2058,2095,2080,2044,2076
2051,2052,2103,2052,2104,2085,2035,2086
2044,2051,2107,2053,2081,2076,2056,2094
2042,2051,2099,2044,2064,2061,2041,2105
2045,2051,2084,2038,2048,2044,2037,2101
2042,2043,2065,2035,2040,2038,2020,2101
2040,2038,2064,2044,2048,2041,2015,2101
2043,2039,2066,2054,2049,2045,2015,2101
2039,2039,2069,2058,2042,2043,2028,2093
2040,2036,2066,2057,2044,2044,2036,2098
2040,2036,2077,2068,2087,2053,2021,2095
2047,2043,2080,2067,2103,2049,2034,2092
2042,2047,2074,2064,2097,2046,2058,2079
2043,2044,2073,2062,2089,2041,2046,2065
2048,2039,2066,2054,2095,2036,2045,2049
2048,2036,2054,2049,2104,2054,2049,2035
2046,2040,2055,2077,2136,2073,2052,2022
2050,2042,2063,2083,2137,2077,2058,2009
2040,2041,2054,2072,2114,2071,2051,1994
2040,2047,2051,2058,2088,2065,2057,1989
2045,2040,2044,2040,2002,2051,2044,1972
2038,2034,2041,2022,1927,2031,2048,1966
2042,2039,2038,2014,1946,2021,2037,1972
2047,2047,2031,2006,1982,2028,2026,1981
2045,2045,2037,2011,1997,2026,2045,1986
2045,2050,2033,2017,2008,2043,2024,1993
2050,2050,2034,2022,2022,2057,2047,2004
2046,2044,2038,2034,2027,2063,2041,2022
2047,2049,2046,2041,2030,2059,2046,2036
2053,2055,2041,2041,2033,2059,2046,2046
2049,2048,2041,2039,2026,2038,2035,2053
2045,2049,2042,2040,2029,2032,2028,2056
2049,2047,2049,2041,2031,2062,2046,2069
2050,2047,2049,2042,2029,2088,2042,2078
2056,2046,2045,2040,2019,2102,2039,2086
2049,2050,2040,2032,1995,2101,2047,2095
2052,2044,2034,2029,1987,2069,2040,2106
2056,2048,2033,2036,2016,2046,2040,2120
2058,2055,2042,2042,2018,2051,2043,2118
2064,2051,2040,2040,2015,2058,2031,2108
2060,2057,2034,2042,2023,2063,2054,2114
2064,2053,2044,2046,2032,2067,2064,2110
2061,2045,2036,2044,2033,2049,2049,2103
2055,2045,2040,2047,2036,2038,2047,2086
2046,2027,2043,2046,2041,2038,2046,2080
2046,2024,2043,2057,2046,2043,2021,2066
2040,2027,2047,2057,2061,2036,2025,2042
2036,2030,2041,2058,2069,2035,2006,2023
2029,2032,2031,2059,2090,2048,2003,2016
2037,2032,2029,2060,2109,2055,2017,1999
2042,2029,2031,2063,2102,2052,2045,1989
2038,2033,2031,2058,2091,2049,2041,1980
2045,2042,2048,2060,2082,2050,2033,1973
2038,2040,2050,2059,2085,2055,2038,1961
2038,2044,2042,2053,2089,2061,2049,1966
2040,2050,2061,2052,2093,2052,2062,1972
2036,2049,2057,2046,2059,2048,2038,1969
2040,2046,2053,2030,2013,2046,2034,1982
2035,2044,2049,2028,2014,2049,2034,1992
2043,2053,2053,2034,2038,2051,2037,2012
2046,2060,2065,2042,2052,2056,2028,2018
2051,2055,2064,2045,2059,2057,2027,2036
2054,2060,2072,2052,2053,2051,2035,2050
2055,2064,2071,2062,2056,2056,2033,2063
2050,2058,2064,2074,2088,2046,2038,2069
2046,2052,2055,2070,2108,2044,2022,2075
2049,2043,2051,2070,2116,2051,2039,2084
2049,2051,2055,2071,2130,2059,2047,2096
2047,2051,2046,2065,2114,2062,2036,2091
2041,2041,2029,2045,2087,2065,2040,2095
2036,2038,2018,2034,2060,2066,2059,2097
2043,2052,2022,2037,2055,2062,2051,2109
2054,2059,2022,2042,2033,2054,2042,2115
