CH1,CH2,CH3,CH4,CH5,CH6,CH7,CH8
2028,2038,2018,2014,2046,2019,2028,2015
2036,2041,2017,2016,2059,2017,2038,2033
2051,2052,2041,2023,2078,2038,2065,2036
2053,2055,2036,2012,2060,2036,2064,2031
2049,2048,2021,2002,2044,2032,2060,2039
2050,2044,2019,1998,2038,2030,2050,2041
2046,2055,2023,2009,2037,2035,2060,2046
2054,2053,2033,2018,2040,2036,2065,2055
2051,2057,2050,2027,2035,2043,2059,2056
2056,2068,2050,2027,2038,2043,2042,2056
2052,2061,2050,2030,2039,2045,2050,2061
2048,2050,2042,2032,2036,2049,2056,2063
2046,2048,2041,2032,2040,2053,2057,2064
2043,2042,2035,2034,2040,2054,2046,2065
2043,2037,2024,2040,2044,2047,2045,2066
2040,2037,2018,2040,2038,2045,2042,2066
2043,2037,2031,2038,2029,2030,2034,2068
2037,2040,2048,2043,2044,2035,2036,2073
2039,2052,2064,2060,2090,2064,2044,2080
2056,2064,2079,2074,2150,2076,2060,2076
2054,2060,2065,2073,2182,2086,2068,2072
2048,2046,2054,2068,2163,2077,2052,2062
2049,2040,2055,2073,2161,2072,2038,2056
2043,2033,2053,2062,2102,2059,2047,2056
2045,2041,2057,2056,2050,2056,2052,2050
2041,2046,2056,2059,2047,2056,2052,2044
2053,2045,2065,2056,2045,2045,2063,2036
2041,2039,2055,2029,1916,2015,2064,2038
2044,2035,2036,2026,1930,2015,2066,2030
2041,2027,2049,2047,1968,2030,2069,2038
2048,2031,2041,2061,2002,2046,2073,2031
2035,2027,2031,2065,2049,2049,2072,2031
2050,2028,2030,2065,2080,2051,2064,2041
2058,2031,2023,2061,2072,2050,2053,2036
2060,2035,2016,2057,2030,2040,2070,2037
2057,2033,2009,2038,1932,2027,2076,2044
2066,2035,2001,2010,1833,1997,2071,2051
2054,2021,1982,1983,1824,1988,2059,2039
2042,2014,1975,1985,1845,1989,2043,2035
2056,2041,1994,2003,1879,1981,2054,2037
2047,2036,1998,2019,1925,1988,2019,2030
2026,2030,2003,2029,1975,2013,2036,2036
2031,2043,2019,2043,2032,2044,2051,2045
2037,2052,2048,2057,2110,2085,2043,2054
2047,2067,2078,2062,2162,2118,2045,2061
2062,2072,2092,2043,2146,2112,2060,2063
2049,2065,2097,2030,2105,2118,2063,2059
2050,2062,2108,2018,2071,2116,2061,2063
2045,2058,2109,2011,2055,2099,2065,2060
2046,2047,2094,1996,2027,2080,2040,2056
2042,2041,2072,2001,2023,2050,2038,2060
2053,2059,2084,2048,2100,2012,2050,2090
2072,2076,2098,2060,2132,1986,2036,2087
2054,2063,2079,2046,2106,1979,2033,2075
2049,2061,2080,2055,2115,2021,2041,2064
2053,2064,2089,2066,2106,2055,2054,2057
2063,2075,2091,2062,2089,2060,2049,2043
2061,2066,2078,2051,2078,2047,2036,2037
2053,2062,2069,2042,2057,2035,2038,2039
2054,2060,2065,2040,2052,2033,2036,2040
2051,2054,2055,2032,2046,2030,2025,2028
2049,2035,2049,2037,2049,2031,2019,2021
2040,2032,2050,2043,2060,2045,2032,2023
2035,2045,2064,2054,2075,2061,2038,2030
2046,2053,2059,2050,2077,2053,2037,2031
2048,2046,2054,2042,2070,2052,2049,2034
2048,2042,2053,2036,2049,2050,2043,2031
2040,2036,2043,2029,2053,2043,2045,2028
2043,2043,2041,2041,2068,2049,2055,2034
2044,2052,2047,2040,2056,2055,2032,2035
2050,2054,2057,2042,2059,2056,2042,2037
2047,2054,2052,2042,2057,2063,2053,2033
2040,2040,2051,2042,2044,2056,2048,2030
2039,2038,2050,2041,2045,2049,2033,2028
2040,2038,2047,2042,2051,2051,2039,2037
2039,2039,2051,2046,2047,2049,2041,2037
2038,2047,2057,2047,2055,2056,2039,2045
2042,2055,2062,2044,2058,2055,2054,2053
2045,2048,2067,2052,2057,2055,2054,2057
2048,2048,2070,2050,2054,2056,2060,2060
2049,2048,2064,2047,2056,2057,2045,2058
2046,2052,2061,2040,2060,2055,2040,2057
2050,2051,2053,2038,2053,2050,2052,2060
2045,2039,2034,2031,2042,2043,2041,2060
2047,2028,2028,2027,2039,2042,2050,2060
2060,2037,2042,2033,2043,2045,2050,2045
2052,2036,2044,2037,2045,2042,2061,2036
2043,2039,2042,2036,2047,2046,2046,2047
2039,2038,2046,2036,2047,2044,2045,2053
2048,2038,2046,2042,2047,2061,2049,2045
2033,2037,2041,2041,2050,2071,2054,2042
2032,2042,2045,2048,2056,2090,2043,2035
2040,2044,2050,2046,2060,2081,2047,2028
2044,2043,2046,2042,2054,2079,2047,2032
2042,2033,2038,2046,2051,2076,2066,2038
2051,2037,2041,2042,2051,2070,2057,2033
2059,2042,2036,2036,2048,2057,2050,2040
2059,2039,2034,2040,2048,2062,2054,2038
2064,2030,2037,2040,2046,2057,2021,2035
2060,2026,2030,2041,2041,2039,2050,2020
2037,2011,2024,2036,2044,2034,2044,2028
2030,2002,2011,2032,2055,2031,2055,2031
2041,2017,2019,2032,2054,2027,2067,2031
2037,2010,2016,2030,2054,2009,2045,2027
2034,2029,2015,2037,2047,2015,2031,2023
2038,2038,2010,2047,2049,2020,2032,2026
2043,2042,2012,2042,2052,2030,2037,2032
2047,2043,2016,2041,2047,2052,2044,2045
2046,2045,2022,2044,2052,2045,2041,2048
2045,2042,2026,2042,2048,2039,2038,2042
2046,2041,2027,2039,2045,2035,2037,2053
2045,2039,2032,2041,2048,2038,2040,2059
2048,2036,2037,2040,2046,2035,2039,2058
2050,2040,2045,2043,2045,2040,2030,2054
2054,2047,2065,2042,2035,2044,2045,2059
2058,2052,2067,2037,2015,2051,2040,2056
2049,2056,2070,2042,1996,2046,2027,2051
2043,2059,2080,2038,1994,2047,2040,2055
2040,2060,2082,2039,1988,2034,2037,2049
2045,2057,2088,2051,2009,2005,2055,2051
2052,2069,2107,2066,2056,2013,2048,2060
2063,2069,2119,2076,2088,2040,2062,2057
2061,2072,2117,2080,2099,2067,2062,2054
2061,2075,2101,2084,2098,2080,2050,2054
2062,2075,2084,2074,2084,2080,2042,2043
2054,2065,2070,2064,2073,2067,2044,2036
2055,2057,2064,2055,2063,2056,2040,2040
2051,2052,2056,2060,2064,2054,2049,2037
2051,2055,2046,2054,2060,2055,2045,2031
2048,2051,2035,2052,2056,2051,2055,2033
2053,2055,2046,2041,2063,2050,2058,2035
2055,2049,2040,2051,2059,2046,2039,2033
2049,2043,2025,2035,2060,2039,2035,2017
2033,2021,2016,2019,2046,2036,2043,2024
2039,2019,2002,2017,2043,2047,2044,2029
2048,2028,2005,2019,2056,2048,2042,2032
2039,2029,2020,2033,2059,2053,2064,2038
2042,2031,2031,2043,2060,2059,2059,2039
2048,2040,2046,2053,2070,2065,2065,2035
2048,2041,2061,2055,2068,2063,2060,2036
2046,2049,2065,2047,2062,2052,2060,2044
2046,2041,2049,2043,2060,2045,2067,2043
2047,2040,2029,2043,2056,2046,2058,2051
2045,2034,2018,2041,2055,2043,2056,2056
2046,2031,2032,2051,2053,2049,2055,2060
2051,2046,2055,2059,2056,2050,2063,2062
2051,2049,2051,2060,2050,2047,2048,2066
2051,2042,2048,2057,2050,2043,2054,2064
2042,2040,2035,2048,2045,2044,2042,2072
2042,2031,2021,2034,2041,2044,2042,2064
2040,2022,2018,2032,2034,2036,2046,2067
2039,2042,2030,2040,2039,2041,2040,2068
2043,2049,2057,2057,2049,2049,2042,2061
2049,2063,2084,2064,2052,2045,2059,2054
2050,2065,2081,2065,2050,2043,2040,2061
2045,2060,2089,2066,2050,2044,2056,2060
2049,2058,2084,2071,2049,2046,2065,2049
2049,2053,2082,2071,2059,2050,2062,2042
2051,2052,2072,2066,2058,2045,2077,2044
2047,2050,2067,2063,2050,2046,2053,2041
2050,2048,2057,2054,2052,2041,2052,2042
2042,2051,2067,2059,2049,2039,2052,2037
2040,2047,2064,2061,2052,2044,2070,2039
2047,2057,2073,2066,2054,2050,2051,2041
2054,2064,2085,2082,2053,2049,2059,2042
2052,2059,2086,2074,2042,2041,2057,2037
2042,2044,2077,2052,2030,2039,2047,2036
2043,2047,2083,2041,2030,2047,2055,2039
2039,2058,2094,2049,2033,2053,2058,2032
2043,2061,2094,2060,2046,2057,2067,2037
2042,2058,2090,2067,2054,2066,2067,2040
2051,2062,2070,2062,2049,2059,2081,2048
2052,2054,2049,2071,2054,2057,2063,2052
2056,2049,2044,2075,2055,2062,2059,2049
2051,2053,2050,2078,2059,2068,2056,2045
2054,2048,2066,2086,2060,2061,2056,2042
2053,2054,2068,2078,2062,2055,2049,2045
2044,2043,2055,2057,2050,2054,2036,2041
2030,2034,2041,2036,2040,2044,2026,2047
2023,2029,2053,2037,2033,2036,2035,2057
2036,2037,2056,2036,2036,2035,2038,2071
2033,2053,2059,2040,2046,2045,2044,2072
2033,2047,2046,2035,2041,2054,2031,2080
2047,2053,2050,2052,2046,2057,2048,2074
2043,2058,2056,2059,2052,2056,2046,2075
2042,2051,2050,2068,2048,2052,2052,2071
2043,2049,2046,2060,2046,2048,2052,2062
2045,2043,2026,2050,2047,2046,2057,2061
2048,2046,2030,2045,2049,2052,2063,2057
2048,2039,2025,2033,2041,2048,2057,2049
2050,2038,2023,2023,2045,2044,2062,2041
2054,2044,2022,2013,2040,2049,2065,2044
2057,2045,2014,2003,2041,2053,2053,2052
2064,2044,2011,2017,2049,2050,2064,2056
2064,2043,2021,2034,2049,2052,2054,2057
2053,2039,2018,2034,2046,2047,2053,2040
2046,2035,2022,2036,2052,2052,2046,2040
2052,2038,2026,2042,2055,2054,2051,2037
2052,2039,2024,2040,2050,2041,2052,2035
2039,2029,2012,2031,2043,2044,2032,2027
2046,2027,2021,2032,2044,2045,2050,2036
2040,2033,2026,2028,2036,2043,2055,2049
2048,2028,2028,2018,2027,2046,2059,2051
2062,2037,2022,2015,2025,2046,2075,2067
2060,2041,2033,2019,2031,2042,2061,2057
2056,2043,2039,2028,2034,2046,2055,2054
2043,2038,2045,2037,2047,2058,2062,2044
2034,2044,2051,2039,2052,2056,2073,2051
2038,2044,2044,2040,2045,2055,2074,2059
2041,2037,2048,2034,2048,2052,2059,2073
2050,2040,2054,2037,2036,2053,2054,2072
2050,2044,2058,2040,2037,2052,2055,2068
2046,2055,2072,2044,2044,2056,2055,2075
2046,2056,2072,2053,2046,2058,2068,2071
2050,2057,2073,2055,2047,2053,2043,2069
2040,2044,2066,2057,2050,2050,2039,2068
2038,2038,2060,2057,2043,2046,2037,2070
2041,2054,2062,2063,2048,2041,2042,2066
2051,2047,2058,2058,2039,2035,2036,2066
2047,2049,2051,2055,2032,2018,2030,2069
2049,2051,2056,2051,2033,2014,2005,2061
2054,2055,2055,2057,2038,2012,1996,2060
2054,2054,2053,2054,2034,2006,2025,2059
2061,2055,2051,2052,2040,2004,2039,2056
2053,2056,2052,2061,2041,2008,2037,2052
2052,2052,2042,2055,2040,2013,2030,2044
2047,2037,2038,2052,2031,2023,2023,2035
2049,2041,2046,2051,2040,2036,2029,2040
2049,2045,2045,2045,2044,2052,2038,2039
2050,2049,2052,2053,2046,2059,2033,2040
2057,2057,2061,2064,2050,2076,2056,2038
2060,2058,2054,2055,2044,2083,2042,2032
2047,2038,2040,2050,2044,2089,2051,2032
2038,2034,2038,2046,2046,2097,2048,2038
2050,2046,2047,2064,2061,2101,2060,2041
2058,2065,2060,2069,2063,2056,2058,2048
2062,2050,2054,2064,2050,2021,2050,2050
2064,2046,2048,2059,2041,2028,2050,2054
2062,2047,2046,2053,2046,2055,2044,2057
2060,2048,2046,2053,2047,2068,2059,2051
2058,2042,2043,2055,2049,2078,2057,2047
2052,2046,2045,2052,2047,2078,2048,2044
2046,2050,2050,2057,2046,2071,2066,2043
2048,2044,2041,2052,2047,2064,2060,2049
2050,2034,2041,2043,2038,2052,2052,2058
2043,2030,2042,2047,2036,2041,2045,2064
2037,2037,2046,2049,2035,2043,2048,2073
2049,2049,2055,2058,2046,2047,2030,2075
2052,2052,2051,2054,2047,2035,2047,2070
2045,2051,2050,2054,2047,2033,2049,2068
2039,2056,2051,2062,2048,2050,2051,2060
2046,2053,2045,2050,2040,2066,2037,2057
2041,2048,2037,2044,2038,2077,2060,2051
2044,2048,2042,2044,2043,2084,2065,2050
2043,2051,2044,2041,2033,2079,2050,2040
2044,2045,2041,2043,2030,2058,2045,2039
2042,2052,2055,2054,2049,2027,2036,2049
2052,2057,2060,2058,2054,2039,2038,2046
2054,2051,2055,2060,2054,2054,2046,2043
2054,2055,2058,2059,2054,2058,2061,2046
2050,2056,2058,2065,2058,2060,2059,2040
2057,2058,2050,2057,2054,2063,2049,2041
2057,2053,2048,2047,2045,2061,2033,2029
2053,2051,2041,2048,2030,2063,2030,2032
2053,2046,2039,2046,2036,2070,2042,2030
2039,2033,2033,2035,2030,2052,2034,2024
2037,2031,2033,2033,2017,2022,2040,2027
2045,2045,2035,2029,1996,2024,2033,2037
2047,2049,2038,2019,1963,2024,2032,2033
2043,2043,2037,2021,1942,2021,2025,2028
2027,2030,2026,2001,1943,2024,2018,2022
2029,2031,2028,2018,1972,2008,2022,2038
2046,2049,2054,2065,2053,2002,2037,2059
2062,2057,2062,2076,2100,2034,2044,2058
2062,2059,2058,2084,2118,2055,2041,2071
2064,2056,2056,2081,2118,2069,2067,2066
2057,2057,2048,2072,2089,2059,2038,2062
2051,2048,2043,2060,2069,2047,2045,2061
2042,2046,2038,2056,2065,2041,2042,2060
2043,2051,2039,2058,2064,2042,2039,2062
2049,2049,2045,2057,2054,2052,2037,2062
2041,2050,2041,2046,2036,2043,2011,2056
2028,2031,2032,2041,2019,2048,2016,2053
2031,2035,2037,2045,2022,2068,2041,2058
2045,2048,2050,2050,2023,2064,2058,2067
2059,2059,2055,2049,2016,2022,2041,2070
2067,2052,2058,2054,2017,2012,2043,2075
2066,2048,2053,2057,2027,2022,2056,2061
2060,2057,2059,2054,2037,2034,2056,2053
2055,2054,2045,2053,2040,2047,2058,2049
2052,2046,2041,2041,2044,2053,2045,2044
2050,2038,2041,2039,2044,2052,2040,2030
2048,2039,2041,2041,2050,2055,2052,2037
2048,2048,2046,2043,2048,2053,2056,2043
2045,2054,2050,2051,2062,2046,2057,2046
2045,2065,2052,2059,2074,2044,2056,2048
2053,2066,2054,2064,2080,2050,2058,2044
2052,2054,2041,2064,2071,2045,2052,2037
2041,2044,2037,2048,2057,2033,2051,2025
2039,2042,2039,2040,2057,2051,2050,2019
2054,2040,2042,2048,2063,2065,2050,2019
2045,2044,2037,2050,2056,2070,2044,2037
2048,2041,2041,2049,2053,2079,2062,2044
2038,2047,2037,2052,2057,2079,2068,2050
2047,2049,2043,2056,2066,2079,2082,2050
2042,2048,2044,2057,2074,2087,2059,2051
2045,2043,2051,2054,2071,2087,2069,2054
2043,2047,2052,2056,2067,2074,2069,2046
2042,2039,2046,2056,2071,2064,2041,2055
2035,2032,2041,2049,2065,2049,2036,2048
2032,2039,2042,2054,2069,2035,2057,2055
2033,2043,2054,2051,2072,2026,2051,2052
2035,2052,2057,2051,2062,2012,2056,2060
2043,2053,2056,2053,2052,2006,2051,2071
2036,2041,2044,2042,2034,2006,2022,2060
2034,2036,2036,2042,2040,2007,2029,2067
2040,2042,2042,2038,2036,2031,2035,2065
2045,2050,2047,2042,2029,2041,2033,2061
2042,2050,2051,2042,2034,2043,2049,2056
2043,2047,2042,2041,2026,2046,2049,2053
2042,2042,2046,2030,2004,2051,2043,2046
2047,2041,2040,2027,1998,2047,2032,2038
2046,2051,2044,2030,1993,2048,2047,2040
2051,2052,2043,2036,1997,2017,2037,2039
2054,2052,2043,2042,2026,1994,2037,2043
2058,2047,2047,2044,2064,2009,2054,2042
2054,2047,2048,2054,2078,2024,2070,2051
2050,2052,2055,2060,2078,2046,2046,2051
2045,2052,2056,2061,2076,2053,2052,2048
2050,2055,2053,2053,2064,2047,2046,2046
2053,2050,2050,2040,2050,2037,2033,2040
2044,2042,2043,2041,2042,2043,2038,2037
2041,2038,2047,2043,2048,2050,2050,2042
2043,2046,2052,2042,2051,2045,2038,2045
2047,2054,2051,2047,2050,2048,2036,2045
2050,2055,2054,2047,2048,2050,2029,2041
2048,2053,2059,2054,2052,2051,2047,2043
2046,2053,2054,2049,2051,2049,2056,2043
2044,2042,2047,2043,2060,2051,2050,2058
2043,2046,2043,2051,2069,2049,2051,2060
2047,2049,2045,2050,2071,2060,2048,2058
2049,2046,2047,2050,2071,2056,2045,2063
2046,2043,2038,2043,2060,2056,2046,2068
2049,2042,2035,2039,2051,2046,2060,2079
2053,2041,2036,2042,2055,2045,2057,2075
2042,2041,2037,2043,2052,2049,2047,2070
2041,2038,2041,2052,2054,2052,2059,2070
2036,2024,2036,2041,2045,2057,2055,2071
2038,2023,2030,2041,2046,2049,2069,2073
2043,2042,2041,2046,2049,2050,2054,2072
2049,2048,2043,2041,2048,2034,2064,2060
2038,2043,2044,2042,2045,2035,2058,2060
2046,2050,2043,2040,2045,2032,2049,2052
2052,2051,2049,2040,2040,2036,2050,2054
2048,2054,2047,2043,2047,2045,2054,2053
2049,2058,2047,2048,2052,2045,2057,2044
2054,2055,2052,2048,2056,2054,2046,2050
2050,2054,2051,2052,2062,2053,2043,2041
2053,2053,2052,2049,2054,2057,2050,2035
2054,2050,2046,2044,2052,2069,2041,2036
2045,2047,2044,2038,2045,2077,2037,2044
2047,2042,2040,2038,2050,2060,2017,2044
2051,2044,2043,2039,2041,2052,2034,2046
2048,2034,2035,2029,2028,2042,2037,2042
2045,2034,2036,2038,2036,2045,2032,2045
2046,2049,2049,2040,2048,2044,2031,2052
2048,2048,2052,2039,2048,2043,2032,2047
2048,2056,2050,2038,2048,2042,2040,2047
2051,2056,2054,2040,2040,2035,2054,2053
2059,2049,2047,2041,2042,2032,2051,2060
2056,2054,2046,2039,2046,2026,2060,2057
2055,2047,2042,2038,2038,2023,2054,2057
2046,2048,2043,2038,2036,2020,2057,2062
2051,2047,2049,2043,2034,2031,2050,2063
2049,2052,2050,2042,2034,2037,2053,2063
2049,2047,2046,2037,2040,2052,2047,2057
2041,2041,2040,2046,2054,2065,2058,2065
2044,2044,2039,2048,2055,2067,2055,2064
2041,2038,2035,2043,2052,2064,2059,2066
2041,2038,2032,2036,2042,2056,2062,2062
2035,2035,2026,2033,2039,2056,2055,2067
2041,2043,2035,2039,2045,2062,2065,2060
2045,2041,2036,2044,2045,2066,2079,2056
2036,2036,2036,2040,2051,2060,2072,2054
2040,2037,2030,2038,2051,2055,2044,2049
2037,2036,2029,2040,2046,2056,2046,2043
2038,2039,2028,2038,2050,2055,2065,2036
2037,2037,2027,2047,2052,2062,2070,2034
2030,2040,2028,2051,2054,2057,2066,2031
2039,2042,2037,2051,2050,2043,2064,2030
2039,2044,2032,2041,2045,2030,2053,2027
2031,2038,2033,2043,2047,2034,2049,2026
2042,2040,2028,2039,2049,2035,2042,2027
2039,2042,2027,2055,2060,2040,2026,2023
2042,2042,2026,2049,2059,2041,2048,2027
2035,2035,2016,2035,2053,2038,2041,2015
2028,2030,2015,2032,2047,2045,2037,2015
2037,2037,2017,2034,2056,2054,2042,2015
2039,2037,2024,2036,2057,2058,2054,2015
2038,2039,2024,2033,2043,2053,2050,2019
2036,2039,2020,2026,2030,2048,2054,2019
2039,2044,2027,2032,2026,2048,2051,2029
2047,2048,2032,2034,2027,2044,2055,2033
2045,2049,2040,2030,2033,2041,2059,2039
2041,2054,2049,2032,2033,2046,2058,2046
2041,2054,2063,2039,2044,2053,2052,2060
2044,2054,2052,2043,2043,2047,2054,2064
2047,2054,2064,2041,2036,2047,2051,2064
2043,2046,2064,2038,2039,2058,2047,2060
2047,2056,2072,2046,2044,2067,2065,2071
2056,2061,2071,2049,2044,2072,2068,2073
2053,2050,2073,2042,2034,2064,2065,2068
2049,2048,2065,2044,2029,2044,2052,2070
2051,2053,2066,2042,2026,2038,2047,2073
2053,2061,2064,2049,2010,2018,2054,2072
2055,2061,2070,2048,2011,2015,2051,2074
2061,2058,2057,2041,2018,2033,2061,2061
2054,2047,2044,2034,2039,2059,2069,2051
2048,2050,2048,2046,2073,2083,2066,2050
2051,2054,2051,2054,2082,2078,2084,2062
2053,2054,2052,2051,2088,2074,2066,2051
2048,2047,2056,2050,2072,2074,2054,2037
2047,2051,2056,2047,2068,2089,2058,2038
2043,2049,2047,2042,2066,2091,2058,2040
2044,2047,2042,2041,2063,2095,2054,2033
2041,2044,2034,2039,2063,2096,2052,2028
2032,2041,2036,2036,2055,2094,2043,2012
2022,2027,2024,2034,2050,2040,1993,1990
1996,2030,2031,2034,2054,2016,1981,1987
1997,2035,2043,2051,2061,2035,1988,1979
1988,2039,2043,2040,2051,2039,2005,1954
1964,2034,2040,2033,2049,2035,2013,1917
1934,2026,2032,2034,2045,2040,2009,1898
1922,2026,2032,2037,2044,2038,2009,1902
1933,2023,2033,2039,2048,2046,2021,1910
1937,2030,2037,2037,2052,2041,2018,1917
1948,2026,2037,2040,2053,2051,2021,1932
1954,2030,2040,2039,2057,2048,2020,1933
1967,2029,2036,2037,2048,2045,2032,1937
1971,2028,2037,2035,2047,2035,2022,1943
1973,2023,2026,2024,2048,2028,2031,1963
1977,2008,2016,2018,2042,2032,2053,2003
1993,2004,2011,2022,2043,2032,2051,2024
2002,2003,2014,2021,2043,2023,2037,2034
2023,2008,2014,2020,2036,2031,2044,2052
2044,2025,2027,2025,2051,2046,2028,2084
2077,2033,2018,2023,2045,2048,2062,2103
2106,2044,2024,2027,2054,2040,2073,2111
2097,2051,2033,2038,2056,2040,2060,2107
2102,2062,2054,2049,2061,2037,2065,2118
2108,2075,2066,2047,2050,2024,2070,2124
2106,2071,2065,2047,2052,2024,2066,2132
2109,2081,2065,2046,2047,2039,2074,2123
2110,2076,2067,2048,2052,2050,2073,2109
2097,2073,2060,2052,2054,2053,2056,2083
2082,2067,2063,2052,2052,2056,2054,2066
2076,2070,2067,2049,2047,2063,2057,2059
2073,2068,2067,2049,2053,2062,2048,2058
2072,2071,2071,2054,2048,2069,2050,2044
2054,2059,2066,2046,2044,2056,2026,2029
2022,2054,2067,2047,2055,2065,2025,2000
1997,2060,2079,2054,2059,2083,2008,1955
1953,2064,2078,2052,2052,2071,2004,1905
1920,2064,2080,2055,2052,2075,1992,1882
1906,2056,2084,2061,2054,2073,1997,1870
1907,2048,2073,2057,2052,2073,1993,1858
1901,2050,2067,2049,2052,2067,1985,1869
1901,2049,2060,2041,2027,2036,1989,1885
1921,2040,2049,2035,1996,2021,1999,1906
1942,2038,2046,2036,1992,2008,2015,1913
1948,2040,2045,2027,1974,1992,2009,1945
1962,2031,2039,2020,1988,1986,2015,1975
1976,2033,2050,2044,2026,1993,2029,1976
1979,2040,2052,2052,2053,1986,2020,1994
1992,2033,2048,2050,2065,2010,2029,2014
2008,2035,2037,2049,2057,2024,2021,2024
2003,2022,2029,2036,2038,2027,2017,2036
2001,2030,2031,2039,2032,2042,2009,2029
1998,2035,2037,2037,2033,2045,2002,2045
1991,2034,2038,2046,2033,2053,1992,2043
1989,2039,2042,2047,2037,2066,2008,2030
1995,2051,2046,2045,2036,2069,2009,2023
2011,2042,2044,2039,2033,2087,2004,2003
2022,2048,2043,2036,2035,2086,1996,1996
2037,2053,2039,2048,2044,2058,2012,2008
2052,2057,2034,2052,2062,2056,2035,1989
2033,2045,2028,2052,2054,2044,2011,1988
2034,2042,2030,2049,2052,2026,2034,1985
2036,2044,2031,2045,2053,2031,2046,1983
2050,2035,2022,2045,2046,2050,2044,2027
2067,2031,2018,2036,2037,2058,2067,2043
2072,2022,2004,2022,2034,2044,2074,2063
2085,2015,1993,2018,2033,2050,2059,2066
2071,2015,2000,2024,2040,2059,2067,2050
2066,2013,1995,2020,2043,2050,2038,2049
2049,2014,2000,2029,2050,2059,2036,2034
2035,2031,2017,2034,2050,2059,2044,2037
2040,2030,2015,2027,2029,2072,2060,2055
2046,2071,2025,2027,2009,2068,2055,2091
2062,2099,2042,2031,1989,2059,2057,2112
2081,2104,2042,2021,1990,2031,2051,2119
2099,2097,2057,2028,1999,2004,2050,2119
2086,2094,2065,2041,2036,1997,2045,2089
2055,2072,2053,2049,2082,2028,2031,2083
2046,2070,2063,2054,2101,2066,2049,2086
2048,2068,2065,2065,2102,2106,2048,2087
2049,2063,2057,2056,2084,2103,2057,2074
2047,2038,2041,2036,2051,2060,2026,2067
2038,2018,2032,2027,2030,2048,2029,2060
2025,2006,2032,2029,2023,2082,2028,2032
2017,2005,2036,2027,2015,2097,2044,2004
2008,2002,2038,2026,2013,2075,2032,1982
1992,1990,2024,2031,2005,2051,2027,1978
1978,1972,2006,2026,2002,2026,2015,1981
1977,1972,2009,2037,2024,1991,2027,1986
1969,1972,1994,2040,2054,2016,2028,1953
1929,1951,1979,2032,2038,2063,2020,1913
1904,1923,1978,2022,2024,2067,2003,1934
1925,1926,1976,2017,1996,2062,2020,1959
1945,1923,1967,2011,1986,2036,2022,1992
1973,1938,1966,2013,1998,2002,2015,2003
1997,1953,1968,2022,2030,1998,2027,2007
2009,1965,1962,2030,2047,1997,2030,2014
2020,1981,1971,2020,2016,1997,2030,1987
2014,1982,1975,2017,1995,1980,2020,1981
2010,1992,1980,2016,1977,1972,2034,1991
2033,2006,1985,2008,1965,1968,2039,2004
2052,2019,1989,2012,1998,1998,2038,2033
2080,2033,2012,2036,2046,2026,2029,2053
2102,2060,2034,2066,2094,2034,2040,2065
2106,2073,2045,2073,2108,2037,2025,2078
2112,2073,2043,2063,2098,2047,2045,2096
2099,2067,2046,2049,2091,2069,2070,2110
2096,2072,2044,2043,2076,2072,2071,2133
2103,2092,2051,2042,2052,2054,2073,2141
2111,2106,2064,2038,2038,2057,2068,2155
2117,2105,2078,2044,2045,2073,2070,2180
2117,2103,2083,2046,2052,2080,2081,2201
2125,2104,2085,2051,2052,2094,2092,2193
2121,2090,2089,2053,2054,2084,2066,2192
2108,2078,2076,2043,2050,2081,2045,2189
2110,2074,2067,2042,2054,2093,2041,2182
2113,2082,2066,2050,2059,2103,2036,2158
2102,2078,2063,2055,2058,2095,2059,2136
2102,2112,2069,2053,2056,2087,2068,2124
2094,2109,2057,2059,2062,2088,2062,2116
2087,2114,2055,2055,2075,2079,2069,2120
2083,2111,2055,2051,2071,2069,2051,2110
2092,2108,2070,2056,2074,2072,2061,2105
2093,2102,2071,2056,2061,2074,2069,2097
2088,2089,2060,2055,2066,2067,2072,2079
2080,2082,2054,2045,2054,2068,2071,2074
2073,2067,2044,2035,2039,2056,2059,2072
2074,2044,2037,2029,2016,2035,2046,2074
2077,2026,2032,2025,2005,2025,2032,2094
2076,2020,2033,2022,2006,2005,2012,2086
2073,2007,2020,2017,2002,1986,2016,2086
2081,2016,2036,2038,2039,2006,2036,2093
2084,2025,2051,2060,2077,2036,2054,2096
2068,2026,2052,2064,2105,2067,2071,2095
2058,2017,2053,2060,2100,2071,2061,2082
2041,2006,2050,2041,2073,2058,2039,2073
2044,2011,2043,2030,2049,2039,2026,2068
2045,2015,2048,2022,2045,2038,2027,2073
2043,2027,2060,2028,2047,2049,2053,2078
2053,2039,2076,2031,2053,2057,2059,2076
2052,2044,2084,2030,2060,2060,2073,2084
2059,2041,2082,2033,2045,2056,2073,2096
2061,2033,2067,2028,2034,2037,2066,2104
2053,2028,2057,2031,2033,2035,2061,2099
2055,2049,2066,2040,2044,2041,2062,2108
2067,2071,2084,2046,2050,2044,2064,2095
2067,2072,2081,2046,2039,2041,2050,2083
2057,2079,2086,2043,2048,2056,2065,2076
2078,2089,2093,2049,2042,2066,2069,2073
2087,2091,2090,2042,2039,2064,2068,2077
2088,2085,2084,2037,2047,2065,2052,2068
2082,2087,2077,2040,2051,2071,2060,2076
2090,2090,2083,2045,2059,2083,2068,2074
2079,2089,2075,2043,2052,2082,2077,2062
2065,2086,2076,2043,2050,2078,2048,2057
2039,2078,2071,2040,2042,2083,2066,2034
2031,2071,2066,2035,2046,2083,2056,2019
2018,2073,2067,2036,2047,2081,2037,2005
2014,2079,2072,2045,2046,2033,2022,1995
2005,2076,2066,2046,2047,2028,2027,1985
2005,2069,2065,2039,2047,2051,2046,1988
2012,2070,2063,2032,2048,2075,2035,2001
2026,2051,2044,2028,2032,2069,2024,2016
2030,2051,2043,2028,2026,2058,2017,2020
2042,2064,2053,2042,2048,2035,2017,2021
2050,2069,2054,2043,2053,2052,2046,2035
2073,2066,2052,2039,2026,2053,2055,2049
2089,2071,2049,2031,2009,2053,2054,2060
2097,2076,2052,2029,1993,2039,2036,2061
2093,2065,2034,2022,1990,2021,2041,2085
2100,2055,2036,2025,2028,2007,2043,2118
2107,2057,2042,2045,2066,2046,2067,2124
2106,2061,2046,2044,2076,2058,2051,2124
2100,2062,2059,2046,2072,2056,2053,2134
2109,2079,2069,2060,2077,2036,2055,2137
2112,2084,2080,2065,2079,2046,2059,2123
2098,2081,2075,2053,2063,2066,2060,2113
2090,2066,2060,2040,2061,2071,2063,2103
2067,2054,2049,2036,2050,2073,2057,2094
2063,2047,2041,2023,2033,2108,2055,2071
2067,2052,2045,2016,1993,2100,2037,2071
2064,2048,2036,2012,1963,2069,2028,2061
2052,2040,2032,1999,1954,2082,2025,2037
2042,2048,2042,2013,1962,2044,2036,2028
2049,2061,2054,2035,2001,2000,2046,2026
2053,2064,2066,2061,2069,2019,2064,2026
2056,2063,2062,2068,2108,2064,2068,2017
2044,2054,2057,2058,2110,2091,2056,2012
2041,2045,2044,2051,2108,2107,2063,2015
2047,2046,2040,2039,2083,2089,2070,2018
2051,2047,2046,2031,2059,2062,2070,2008
2042,2056,2053,2032,2048,2049,2060,1992
2032,2055,2056,2045,2048,2031,2051,1990
2025,2050,2056,2042,2057,2019,2047,2001
2019,2043,2041,2033,2051,2009,2048,1990
2012,2034,2035,2030,2072,1996,2028,1985
2018,2048,2040,2040,2086,2010,2039,1974
2030,2050,2044,2042,2083,2031,2029,1986
2032,2052,2052,2039,2073,2043,2033,1989
2035,2048,2043,2037,2063,2047,2008,2011
2037,2038,2044,2030,2047,2063,2018,2025
2043,2039,2041,2025,2025,2068,2037,2037
2054,2041,2043,2015,2002,2055,2020,2043
2055,2042,2046,2017,1984,2038,2030,2046
2050,2038,2032,2010,1994,2009,2009,2038
2052,2039,2035,2014,2018,1956,2034,2062
2067,2044,2052,2037,2072,1957,2047,2093
2066,2040,2045,2036,2082,1999,2036,2087
2070,2047,2052,2047,2132,2056,2062,2085
2070,2044,2053,2057,2168,2077,2058,2098
2074,2043,2050,2058,2176,2085,2047,2113
2073,2046,2044,2066,2164,2093,2088,2123
2068,2041,2030,2054,2109,2093,2066,2106
2061,2030,2024,2029,2011,2081,2053,2085
2056,2018,2015,2004,1897,2069,2037,2074
2049,2020,2018,1994,1913,2059,2030,2076
2059,2035,2027,2012,1965,2066,2054,2076
2069,2042,2031,2020,2009,2041,2068,2085
2067,2044,2024,2034,2059,2034,2045,2086
2071,2036,2016,2043,2078,2045,2059,2082
2074,2036,2013,2038,2073,2046,2052,2064
2062,2033,2010,2042,2075,2058,2053,2046
2051,2041,2017,2040,2068,2058,2049,2044
2062,2050,2032,2037,2065,2050,2057,2043
2056,2048,2028,2037,2050,2044,2066,2043
2052,2052,2046,2053,2081,2040,2064,2038
2055,2051,2061,2055,2107,2040,2074,2032
2048,2044,2067,2061,2090,2032,2076,2036
2040,2041,2060,2064,2088,2035,2077,2049
2054,2045,2058,2062,2085,2054,2098,2052
2058,2045,2052,2050,2055,2061,2081,2055
2058,2047,2062,2040,2023,2054,2070,2064
2055,2050,2070,2042,2008,2060,2069,2060
2060,2061,2081,2038,2018,2062,2033,2052
2067,2065,2084,2029,1982,2040,2051,2049
2066,2059,2088,2019,2019,2033,2036,2044
2061,2049,2081,2033,2063,2058,2031,2044
2064,2052,2085,2048,2078,2077,2036,2052
2064,2054,2079,2051,2068,2102,2057,2059
2072,2058,2072,2046,2067,2084,2041,2070
2066,2050,2069,2046,2059,2041,2030,2059
2047,2047,2066,2040,2054,2038,2024,2052
2028,2040,2065,2041,2060,2049,2043,2034
2025,2042,2062,2044,2052,2053,2029,2028
2018,2037,2059,2034,2045,2048,2030,2030
2027,2045,2059,2037,2039,2045,2016,2040
2030,2050,2064,2041,2034,2051,2039,2034
2029,2051,2062,2040,2033,2060,2025,2024
2029,2045,2064,2035,2030,2050,2019,2044
2039,2038,2054,2025,2017,2040,2040,2050
2046,2035,2047,2025,2019,2054,2034,2046
2052,2039,2057,2028,2014,2070,2048,2025
2051,2047,2056,2033,2004,2054,2052,2012
2054,2045,2058,2027,1982,2041,2068,2005
2050,2049,2054,2025,1966,2031,2074,2016
2061,2052,2053,2023,1949,2015,2060,2038
2059,2049,2039,2012,1939,2014,2048,2040
2051,2038,2032,2004,1950,2026,2035,2051
2064,2047,2049,2035,2008,2054,2062,2068
2072,2057,2060,2053,2043,2062,2062,2056
2057,2038,2039,2049,2084,2055,2038,2047
2044,2023,2037,2049,2100,2053,2046,2037
2049,2028,2038,2053,2101,2044,2050,2031
2051,2035,2044,2050,2082,2032,2035,2034
2054,2043,2039,2051,2091,2043,2047,2037
2052,2041,2038,2056,2099,2050,2052,2039
2048,2038,2047,2060,2095,2050,2041,2040
2049,2043,2048,2059,2085,2034,2054,2041
2066,2047,2045,2061,2066,2018,2032,2043
2057,2043,2037,2054,2033,1992,2016,2042
2041,2042,2035,2044,2024,1992,2017,2052
2031,2043,2038,2047,2040,2004,2021,2040
2026,2047,2037,2055,2066,2033,2012,2043
2044,2057,2041,2058,2077,2068,2046,2051
2053,2050,2039,2054,2066,2082,2028,2056
2055,2044,2032,2041,2050,2074,2035,2055
2033,2040,2030,2038,2028,2074,2008,2065
2035,2034,2046,2050,2042,2083,2044,2065
2044,2060,2046,2049,2060,2088,2064,2068
2057,2059,2050,2041,2042,2074,2057,2058
2053,2060,2053,2036,2038,2049,2035,2046
2053,2055,2055,2029,2052,2053,2031,2040
2053,2054,2054,2033,2080,2052,2062,2040
2051,2052,2058,2035,2099,2060,2061,2037
2052,2046,2055,2043,2115,2072,2059,2036
2044,2040,2045,2051,2125,2091,2060,2033
2039,2038,2041,2040,2098,2104,2041,2023
2043,2020,2036,2031,2078,2099,2051,2022
2047,2027,2043,2039,2089,2107,2047,2026
2044,2035,2051,2060,2119,2087,2033,2038
2059,2047,2059,2077,2137,2014,2043,2050
2061,2045,2052,2065,2122,2014,2030,2044
2051,2042,2042,2045,2067,2027,2044,2039
2052,2042,2044,2012,1950,2030,2052,2026
2049,2035,2033,1984,1852,2035,2043,2016
2035,2031,2035,1997,1913,2067,2050,2017
2047,2054,2057,2037,2098,2097,2062,2032
2059,2070,2069,2061,2206,2101,2063,2033
2052,2067,2067,2067,2234,2094,2043,2036
2047,2063,2064,2071,2225,2079,2061,2027
2046,2058,2060,2062,2173,2042,2031,2022
2044,2053,2057,2052,2138,2036,2041,2029
2037,2056,2070,2064,2134,2048,2047,2036
2033,2060,2072,2060,2109,2062,2047,2043
2036,2062,2069,2040,2016,2038,2039,2043
2033,2063,2061,2027,1971,2034,2044,2048
2042,2062,2053,2019,1912,2029,2034,2052
2041,2046,2051,2018,1934,2031,2024,2038
2018,2035,2043,2017,1970,2023,2020,2047
2022,2038,2046,2029,1989,2029,2030,2040
2048,2060,2055,2036,2012,2027,2036,2022
2049,2047,2050,2031,2010,2022,2041,2007
2040,2050,2037,2035,2013,2024,2025,2000
2036,2047,2035,2034,1999,2008,2016,1997
2038,2042,2034,2025,1977,1994,2019,2000
2038,2039,2025,2031,1978,2002,2019,2017
2051,2039,2026,2040,1998,2025,2034,2030
2064,2043,2027,2055,2018,2042,2053,2053
2071,2040,2030,2057,2038,2065,2049,2054
2064,2034,2025,2050,2030,2083,2055,2050
2052,2024,2020,2045,2035,2084,2068,2040
2049,2022,2031,2064,2054,2102,2074,2058
2051,2039,2053,2093,2088,2120,2060,2059
2059,2051,2068,2093,2099,2107,2065,2056
2045,2040,2050,2073,2103,2087,2053,2053
2045,2024,2033,2060,2082,2063,2044,2054
2048,2026,2019,2051,2119,2039,2039,2035
2047,2028,2025,2046,2156,2033,2033,2027
2048,2036,2031,2042,2111,2032,2019,2031
2055,2042,2035,2048,2066,2021,1998,2034
2057,2040,2042,2039,2009,1994,2005,2040
2058,2052,2047,2035,1987,1988,2010,2046
2058,2051,2031,2031,1997,2010,2040,2050
2042,2048,2025,2035,2044,2026,2035,2052
2038,2044,2024,2043,2075,2044,2046,2062
2040,2046,2034,2046,2093,2050,2041,2066
2040,2041,2037,2026,2081,2039,2056,2066
2036,2035,2031,2012,2050,2022,2033,2068
2042,2039,2049,2012,2046,2029,2030,2076
2052,2057,2058,2013,2046,2041,2043,2077
2045,2055,2063,2012,2032,2041,2047,2076
2042,2058,2067,2016,2030,2042,2070,2079
2063,2071,2080,2028,2030,2044,2068,2074
2065,2081,2080,2031,2014,2039,2052,2069
2061,2072,2073,2024,2009,2044,2034,2055
2053,2062,2054,2009,1984,2044,2025,2046
2044,2055,2044,2004,1949,2059,2047,2045
2055,2064,2059,2005,1977,2078,2058,2044
2064,2082,2071,2023,2024,2082,2048,2036
2064,2082,2068,2042,2057,2042,2050,2034
2060,2089,2075,2050,2098,2008,2055,2045
2068,2091,2084,2063,2116,2008,2065,2060
2064,2082,2081,2063,2105,2030,2071,2056
2063,2074,2076,2053,2080,2035,2058,2046
2063,2069,2070,2021,2041,2051,2054,2043
2054,2061,2063,2018,2030,2086,2060,2038
2046,2048,2047,2030,2068,2103,2057,2025
2049,2054,2052,2039,2102,2110,2055,2039
2054,2064,2062,2057,2147,2126,2060,2044
2064,2061,2065,2082,2172,2096,2058,2054
2069,2069,2067,2084,2157,2076,2068,2051
2065,2066,2057,2085,2165,2076,2054,2049
2057,2058,2055,2076,2167,2085,2053,2046
2053,2051,2049,2072,2170,2111,2050,2047
2049,2042,2045,2069,2163,2118,2076,2045
2041,2032,2037,2060,2149,2106,2084,2056
2037,2030,2035,2053,2135,2069,2064,2052
2031,2035,2030,2034,2081,2012,2051,2065
2042,2038,2036,2020,2019,1989,2058,2086
2056,2046,2048,2028,1995,2021,2050,2092
2055,2057,2045,2013,1965,2027,2055,2079
2052,2042,2023,1990,1930,2025,2055,2069
2053,2012,2007,1997,2008,2050,2074,2082
2063,2015,2006,2015,2044,2071,2076,2080
2059,2024,2005,2012,2022,2062,2052,2069
2053,2032,2014,2024,2005,2061,2044,2070
2056,2038,2022,2033,1993,2042,2044,2043
2036,2044,2034,2047,1996,2021,2036,2030
2028,2053,2042,2060,2025,2029,2034,2035
2035,2046,2043,2060,2033,2034,2038,2038
2037,2043,2033,2049,2017,2053,2039,2035
2053,2053,2029,2060,2071,2076,2035,2031
2055,2058,2032,2080,2094,2096,2045,2029
2055,2058,2031,2089,2158,2106,2035,2016
2046,2055,2043,2104,2253,2109,2041,2019
2048,2061,2051,2116,2273,2084,2050,2025
2047,2053,2043,2111,2231,2030,2038,2021
2054,2049,2039,2091,2134,2000,2021,2020
2041,2040,2034,2065,2065,2009,2036,2006
2026,2027,2026,2034,2040,2029,2033,2006
2025,2024,2023,2011,1981,2046,2034,2010
2021,2021,2026,1985,1868,2038,2052,2020
2035,2031,2029,1992,1910,2027,2039,2028
2038,2049,2047,1997,1942,2037,2033,2028
2052,2062,2068,2021,2022,2063,2058,2045
2061,2068,2073,2042,2102,2087,2056,2044
2058,2061,2072,2050,2119,2092,2042,2043
2053,2053,2067,2048,2100,2073,2061,2044
2057,2048,2063,2036,2053,2036,2041,2045
2056,2055,2064,2021,1971,2018,2050,2056
2059,2052,2055,2011,1928,2037,2056,2058
2057,2057,2058,2017,1921,2054,2045,2061
2061,2068,2065,2019,1923,2069,2052,2064
2056,2076,2067,2022,1940,2062,2061,2067
2051,2065,2064,2030,1984,2013,2055,2066
2052,2061,2069,2049,2046,2000,2049,2078
2056,2067,2074,2062,2077,2030,2058,2062
2053,2067,2071,2056,2058,2033,2060,2054
2054,2057,2076,2052,2043,2026,2074,2046
2040,2041,2062,2044,2043,2027,2074,2038
2041,2030,2054,2052,2042,2044,2058,2035
2043,2031,2051,2065,2093,2057,2057,2024
2028,2033,2045,2064,2130,2068,2049,2008
2014,2027,2032,2044,2065,2063,2056,2007
2026,2023,2027,2038,2050,2059,2040,2019
2035,2024,2030,2036,1995,2044,2047,2028
2053,2051,2049,2038,1978,2028,2035,2040
2075,2071,2067,2063,2038,2002,2017,2033
2084,2074,2066,2066,2071,2010,2024,2027
2079,2070,2056,2053,2052,2009,2021,2025
2062,2061,2050,2045,2036,2006,2016,2026
2071,2068,2068,2049,2050,2017,2043,2031
2070,2070,2071,2055,2043,2018,2042,2026
2058,2062,2054,2034,2034,2017,2038,2030
2042,2050,2037,2023,2039,2026,2055,2033
2039,2050,2048,2059,2077,2047,2060,2035
2040,2060,2062,2078,2121,2072,2064,2033
2048,2060,2061,2080,2123,2072,2061,2043
2044,2059,2060,2078,2113,2070,2044,2045
2049,2050,2048,2069,2104,2049,2043,2040
2043,2041,2037,2064,2121,2059,2068,2032
2043,2054,2044,2076,2166,2071,2068,2037
2054,2064,2049,2084,2150,2079,2068,2049
2061,2063,2044,2076,2125,2076,2073,2059
2073,2060,2047,2071,2111,2082,2077,2067
2066,2041,2035,2066,2109,2088,2076,2066
2054,2026,2023,2061,2102,2084,2080,2059
2053,2024,2018,2060,2099,2096,2076,2047
2048,2031,2034,2065,2082,2100,2062,2035
2061,2026,2033,2045,2005,2106,2051,2058
2079,2027,2037,2019,1913,2086,2066,2058
2077,2029,2036,2010,1925,2076,2048,2019
2037,2036,2042,2005,1934,2067,2013,1996
2028,2046,2045,2006,1945,2029,1995,2018
2036,2059,2057,2023,2021,2004,2045,2043
2043,2072,2074,2058,2131,2072,2082,2054
2056,2073,2080,2092,2206,2120,2078,2056
2060,2076,2079,2104,2245,2130,2061,2036
2058,2066,2079,2102,2234,2065,2026,2021
2045,2032,2054,2075,2121,1976,1988,2006
2046,2019,2042,2049,2048,1955,2009,2009
2055,2025,2052,2074,2067,1993,2034,2019
2067,2048,2082,2099,2050,2005,2023,2017
2064,2051,2090,2109,2094,2020,2044,2010
2055,2038,2096,2109,2121,2032,2039,2022
2063,2054,2104,2116,2128,2058,2068,2036
2055,2067,2110,2117,2138,2074,2059,2027
2014,2066,2109,2119,2165,2079,2065,2027
2009,2073,2099,2119,2158,2088,2071,2046
2040,2068,2088,2107,2128,2073,2082,2047
2053,2061,2081,2087,2055,2043,2060,2046
2046,2054,2075,2067,1925,2017,2042,2038
2032,2043,2073,2040,1889,2013,2042,2034
2032,2037,2060,2050,1987,2028,2031,2050
2037,2045,2058,2044,1999,2007,2042,2066
2063,2052,2055,2041,1921,1986,2045,2071
2064,2062,2036,2020,1860,1981,2032,2076
2057,2038,2002,1991,1891,1993,2037,2072
2046,2019,1984,1998,1939,2027,2034,2077
2069,2035,2013,2018,1927,2045,2057,2067
2076,2048,2034,2030,2047,2081,2073,2071
2096,2041,2037,2042,2131,2104,2049,2051
2067,2020,2008,2033,2138,2098,2043,2035
2052,2020,2009,2015,2089,2073,2021,2016
2039,2028,2012,2021,2092,2061,2039,2032
2052,2046,2042,2035,2113,2075,2060,2054
2074,2064,2067,2054,2111,2099,2068,2060
2068,2075,2063,2058,2099,2109,2070,2060
2068,2088,2058,2043,2018,2101,2075,2060
2074,2085,2046,2012,1932,2073,2056,2031
2049,2067,2035,1992,1879,2061,2042,2019
2042,2064,2049,1999,1934,2055,2040,2026
2043,2046,2046,2014,1951,2012,2042,2039
2046,2050,2048,2046,2056,2041,2053,2035
2040,2043,2042,2070,2169,2061,2042,2023
2031,2033,2034,2054,2118,2034,2038,2018
2018,2030,2040,2051,2051,2029,2057,2021
2034,2028,2040,2045,1994,2026,2035,2020
2037,2044,2053,2052,2002,2052,2029,2016
2045,2052,2055,2051,2002,2065,2035,2022
2050,2050,2065,2064,2012,2083,2044,2042
2054,2054,2063,2059,2009,2093,2050,2038
2047,2053,2051,2048,1980,2076,2015,2035
2035,2040,2047,2053,1992,2028,2024,2047
2038,2070,2077,2105,2076,2019,2067,2062
2060,2074,2081,2120,2121,2033,2055,2070
2060,2062,2071,2110,2116,2043,2046,2074
2064,2064,2061,2090,2089,2029,2035,2070
2057,2054,2048,2064,2084,2004,2028,2063
2054,2048,2038,2058,2113,2011,2036,2058
2063,2043,2038,2066,2140,2043,2053,2052
2068,2032,2036,2063,2141,2068,2043,2067
2067,2028,2026,2047,2158,2103,2056,2070
2060,2001,2000,2007,2114,2101,2052,2073
2046,2009,1997,2014,2131,2109,2060,2065
2047,2031,2023,2041,2182,2120,2062,2063
2068,2038,2022,2061,2219,2082,2060,2067
2077,2031,2013,2065,2237,2061,2061,2075
2068,2031,2015,2063,2175,2032,2064,2074
2053,2030,2012,2041,2100,2042,2047,2068
2044,2042,2007,2028,2046,2064,2070,2051
2020,2042,2006,2035,2058,2085,2077,2004
2001,2036,2011,2050,2131,2124,2068,1981
1996,2040,2032,2061,2147,2133,2080,2020
2043,2037,2042,2057,2119,2114,2058,2049
2084,2045,2042,2034,1974,2102,2071,2059
2083,2035,2026,2005,1939,2030,2040,2032
2043,2010,2008,1994,1987,1951,2012,2015
2005,2014,2014,2000,1970,1928,2020,2031
2011,2010,2004,2011,1998,1974,2022,2023
2005,2001,2010,2037,2021,2040,2017,2028
2029,2033,2034,2063,2056,2064,2018,2027
2054,2064,2059,2071,2070,2069,2055,2041
2080,2105,2071,2069,2051,2073,2069,2049
2082,2096,2081,2063,2043,2068,2054,2047
2048,2057,2070,2064,2040,2067,2054,2047
2034,2047,2062,2052,2032,2051,2042,2042
2032,2043,2050,2040,2015,2027,2022,2040
2033,2032,2037,2043,2026,2028,2033,2050
2040,2029,2027,2050,2068,2036,2044,2056
2042,2017,2019,2056,2071,2036,2054,2057
2038,2019,2014,2049,2055,2028,2040,2045
2035,2008,1994,2042,2028,2006,2021,2054
2041,1992,1967,2021,2008,1990,1991,2062
2052,1988,1965,2024,2012,2002,2016,2057
2072,2028,2000,2057,2038,2026,2044,2049
2108,2054,2024,2064,2055,2024,2029,2041
2099,2038,2020,2062,2045,2028,2046,2044
2080,2023,2008,2064,2047,2029,2044,2050
2066,2014,2004,2062,2042,2024,2054,2050
2049,2032,2010,2056,2043,2024,2062,2054
2041,2048,2013,2057,2035,2029,2054,2082
2072,2066,2014,2059,2046,2062,2055,2061
2066,2051,2010,2062,2050,2073,2067,2015
2060,2036,2009,2057,2047,2083,2079,2010
2068,2004,1988,2035,2041,2084,2081,2018
2054,1965,1963,1997,2025,2072,2049,2029
2023,1966,1967,1988,2020,2066,2051,2024
2017,2007,2027,2017,2028,2088,2046,2003
2017,2037,2084,2042,2035,2094,2037,1977
2033,2065,2128,2062,2058,2092,2058,1991
2042,2072,2126,2070,2064,2078,2049,2011
2044,2090,2132,2076,2066,2010,2055,2046
2041,2100,2139,2093,2046,1971,2045,2055
2049,2105,2132,2101,2075,1984,2058,2069
2056,2091,2109,2086,2037,2009,2071,2078
2073,2084,2093,2075,2002,2021,2061,2077
2070,2065,2059,2057,1982,2015,2061,2062
2048,2042,2035,2027,1974,2011,2025,2043
2028,2029,2029,2031,1992,2031,2015,2047
2044,2048,2052,2053,2041,2045,2024,2054
2044,2052,2049,2047,2040,2047,2037,2054
2038,2050,2042,2059,2122,2077,2054,2060
2044,2050,2041,2077,2193,2098,2066,2066
2049,2067,2061,2084,2197,2107,2084,2071
2062,2079,2073,2094,2164,2100,2084,2068
2059,2076,2059,2094,2115,2093,2074,2064
2060,2062,2047,2072,2080,2071,2070,2065
2048,2053,2039,2065,2059,2057,2058,2046
2031,2040,2021,2058,2026,2049,2057,2036
2022,2027,2009,2034,1884,1999,2036,2027
2014,2028,2011,2025,1858,1989,2051,2028
2023,2045,2028,2050,1967,2014,2047,2029
2033,2040,2024,2060,2016,2013,2040,2013
2030,2032,2032,2048,2027,2023,2063,2013
2023,2034,2030,2054,2048,2033,2045,2022
2032,2037,2034,2065,2095,2041,2035,2027
2030,2031,2025,2050,2093,2027,2027,2010
2015,2010,2012,2030,2054,2022,2019,2000
2010,2002,2018,2018,2017,2019,2026,2016
2019,2033,2046,2032,2022,2021,2023,2025
2029,2043,2078,2052,2017,2028,2042,2024
2033,2057,2102,2070,2051,2031,2038,2027
2037,2069,2122,2069,2077,2032,2036,2029
2039,2073,2131,2098,2146,2075,2066,2030
2053,2084,2136,2122,2203,2115,2059,2044
2055,2079,2122,2135,2232,2146,2085,2050
2057,2068,2102,2148,2245,2158,2090,2053
2049,2051,2080,2123,2188,2119,2080,2044
2027,2038,2066,2098,2071,2073,2052,2037
2035,2035,2071,2089,2057,2045,2052,2044
2056,2056,2091,2098,2068,2052,2051,2055
2056,2060,2093,2107,2005,2026,2040,2050
2044,2038,2077,2099,1938,2013,2038,2061
2036,2027,2082,2110,1949,2019,2050,2064
2031,2026,2081,2111,1967,2022,2038,2054
2024,2019,2070,2105,1989,2018,2026,2054
2017,2007,2054,2103,2000,2019,2032,2057
2029,2024,2068,2120,2068,2050,2050,2059
2049,2064,2091,2130,2129,2070,2050,2064
2072,2068,2071,2127,2136,2077,2059,2065
2075,2063,2047,2100,2084,2081,2062,2072
2077,2049,2026,2064,2002,2076,2042,2049
2057,2034,2004,2018,1913,2030,2010,2004
2018,2010,1980,1991,1880,1998,1981,1969
2018,2022,1975,1983,1907,1971,1981,1998
2055,2045,1992,1988,1972,1952,2016,2022
2052,2054,2018,1998,2071,2015,2063,2029
2030,2062,2041,2010,2118,2054,2076,2043
2045,2064,2037,2007,2124,2086,2072,2056
2043,2063,2032,1998,2099,2081,2087,2058
2057,2065,2033,1999,2082,2072,2071,2054
2059,2069,2025,2004,2086,2068,2058,2039
2037,2047,2006,1994,2081,2063,2047,2036
2019,2022,1983,1992,2049,2063,2036,2042
2021,2010,1968,1993,1988,2050,2024,2028
1995,1973,1936,1980,1996,2032,2028,2002
1976,1972,1938,1989,2049,2044,2042,2017
2000,2003,1983,2018,2095,2066,2036,2038
2036,2039,2040,2042,2130,2090,2048,2043
2059,2058,2069,2056,2127,2120,2073,2042
2073,2058,2083,2053,2104,2118,2078,2049
2072,2045,2061,2048,2080,2094,2062,2049
2048,2020,2039,2040,2058,2070,2048,2044
2057,2017,2049,2043,2056,2006,2031,2042
2051,2023,2051,2051,2070,1986,2034,2038
2038,2045,2060,2059,2084,2006,2054,2056
2050,2063,2065,2067,2099,2043,2090,2061
2048,2057,2057,2067,2106,2065,2091,2055
2015,2049,2042,2062,2088,2057,2075,2042
1998,2042,2031,2062,2083,2060,2064,2063
2033,2054,2036,2058,2059,2055,2068,2078
2072,2064,2038,2053,2034,2044,2052,2077
2078,2051,2031,2049,2024,2033,2057,2067
2067,2027,2018,2046,2016,2006,2027,2040
2044,2012,2011,2036,2004,2021,2003,2015
2037,2017,2022,2050,2042,2068,2037,2014
2056,2024,2038,2068,2128,2105,2055,2006
2046,2028,2038,2085,2141,2111,2070,2014
2028,2034,2040,2087,2102,2088,2054,2014
2013,2034,2026,2074,2048,2017,2039,2021
2006,2046,2022,2064,2022,1991,2037,2022
2012,2041,2021,2065,2021,2002,2050,2019
2022,2048,2019,2074,2043,2033,2068,2030
2043,2053,2027,2087,2063,2040,2053,2041
2042,2047,2015,2068,2042,2031,2022,2021
2034,2032,2007,2044,1995,2023,2034,2010
2022,2023,2008,2034,1978,2024,2031,2006
2022,2022,2029,2045,2001,2041,2032,1992
2020,2030,2065,2055,2025,2020,2025,2004
2022,2051,2096,2068,2049,1987,2037,2028
2031,2059,2110,2079,2094,2006,2044,2039
2035,2064,2127,2093,2112,2022,2044,2041
2041,2084,2144,2101,2127,2047,2048,2044
2052,2092,2146,2109,2129,2061,2072,2062
2072,2094,2135,2117,2123,2065,2082,2063
2072,2085,2114,2103,2112,2071,2081,2064
2074,2071,2080,2092,2104,2070,2074,2054
2057,2059,2053,2069,2095,2056,2051,2049
2036,2043,2042,2068,2086,2057,2059,2051
2028,2041,2026,2058,2078,2049,2061,2058
2036,2017,2009,2036,2052,2022,2044,2041
2021,2015,2010,2033,2048,2018,2037,2046
2024,2034,2034,2030,2053,2027,2039,2043
2039,2048,2047,2044,2064,2042,2061,2029
2033,2069,2074,2064,2082,2056,2055,2031
2036,2073,2067,2068,2083,2059,2072,2034
2045,2063,2047,2057,2084,2058,2074,2036
2057,2060,2040,2070,2086,2056,2052,2034
2042,2044,2041,2068,2064,2056,2043,2032
2042,2044,2036,2072,2042,2060,2039,2022
2039,2036,2028,2080,2036,2058,2038,2007
2047,2038,2041,2088,2037,2056,2068,2005
2041,2030,2042,2093,2038,2039,2041,2017
2036,2038,2049,2103,2082,2034,2035,2020
2019,2038,2032,2105,2103,2028,2042,2025
2013,2026,2000,2086,2096,2036,2044,2020
2020,2023,1990,2078,2088,2059,2045,2017
2043,2034,2004,2083,2085,2070,2035,2020
2061,2053,2008,2084,2084,2070,2055,1997
2041,2050,2007,2078,2069,2061,2036,1995
2050,2041,2011,2070,2071,2025,2041,2007
2042,2028,2024,2072,2081,2013,2046,2018
2028,2034,2034,2062,2069,2017,2049,2027
2008,2034,2033,2053,2059,2027,2059,2033
1998,2034,2033,2025,2048,2030,2052,2038
2006,2041,2043,2018,2057,2017,2053,2045
2026,2058,2070,2024,2070,2007,2037,2043
2028,2067,2086,2034,2074,2019,2038,2036
2027,2062,2079,2036,2094,2051,2060,2054
2043,2072,2073,2049,2097,2068,2050,2045
2039,2068,2058,2041,2085,2057,2054,2053
2043,2054,2055,2035,2069,2040,2057,2061
2040,2039,2040,2023,2058,2035,2036,2059
2036,2040,2053,2028,2050,2034,2039,2051
2045,2070,2078,2041,2059,2042,2044,2041
2041,2076,2083,2050,2061,2041,2041,2054
2048,2064,2080,2049,2059,2044,2043,2047
2035,2055,2070,2053,2057,2051,2061,2031
2031,2046,2074,2059,2063,2052,2076,2031
2032,2055,2083,2059,2065,2052,2061,2037
2041,2067,2096,2074,2081,2061,2053,2030
2036,2069,2095,2081,2078,2057,2024,2020
2030,2071,2085,2081,2074,2041,2040,2019
2037,2068,2080,2080,2064,2029,2054,2020
2036,2079,2066,2070,2054,2033,2053,2029
2042,2069,2050,2067,2051,2044,2042,2036
2054,2068,2054,2080,2055,2042,2048,2033
2055,2063,2057,2097,2059,2038,2047,2020
2052,2046,2041,2097,2059,2036,2053,2024
2047,2042,2024,2084,2057,2033,2047,2018
2052,2043,2006,2076,2058,2035,2030,2016
2049,2039,1982,2060,2051,2028,2051,2021
2039,2041,1980,2057,2059,2022,2048,2014
2027,2046,1982,2055,2057,2032,2036,2010
2024,2054,1997,2066,2058,2035,2036,2008
2023,2054,2000,2068,2062,2041,2045,2013
2029,2058,1995,2064,2064,2048,2027,2023
2037,2064,2011,2067,2066,2055,2045,2035
2034,2062,2042,2069,2064,2056,2044,2041
2033,2061,2044,2060,2063,2049,2062,2044
2035,2054,2060,2034,2048,2042,2061,2049
2032,2037,2047,1995,2019,2023,2019,2045
2017,2029,2043,1964,2005,2018,2032,2052
2017,2037,2074,1983,2021,2028,2022,2069
2038,2069,2129,2020,2035,2036,2044,2080
2047,2080,2162,2039,2047,2050,2056,2074
2054,2098,2169,2065,2066,2054,2037,2067
2057,2099,2153,2078,2069,2057,2026,2066
2074,2100,2144,2098,2067,2061,2043,2068
2060,2093,2132,2114,2080,2074,2038,2068
2053,2085,2106,2115,2090,2059,2045,2058
2047,2074,2090,2100,2080,2034,2038,2046
2045,2071,2069,2096,2075,2028,2039,2043
2047,2073,2068,2077,2072,2032,2048,2039
2045,2078,2072,2067,2066,2035,2056,2040
2050,2067,2069,2057,2056,2037,2060,2044
2052,2067,2077,2061,2062,2043,2048,2033
2039,2059,2069,2045,2054,2042,2041,2025
2030,2044,2062,2034,2055,2041,2028,2013
2029,2045,2056,2034,2038,2033,2047,2006
2036,2038,2067,2028,2011,2011,2037,2000
2028,2019,2059,2016,1992,2007,2019,2004
2018,2009,2049,2022,2017,2020,2033,2020
2023,2019,2043,2039,2055,2037,2045,2030
2035,2037,2061,2068,2078,2047,2038,2024
2034,2043,2064,2063,2070,2038,2034,2017
2033,2039,2053,2056,2042,2028,2036,2022
2036,2044,2054,2059,2024,2026,2045,2030
2029,2042,2046,2048,2011,2029,2052,2032
2022,2029,2022,2039,1997,2022,2041,2033
2023,2024,2018,2031,2026,2038,2039,2043
2031,2029,2023,2056,2062,2055,2054,2050
2038,2032,2030,2062,2093,2061,2056,2054
2047,2047,2037,2074,2110,2068,2052,2066
2048,2046,2045,2080,2109,2068,2064,2067
2044,2058,2051,2074,2081,2057,2069,2063
2039,2046,2049,2063,2056,2036,2037,2045
2032,2037,2039,2057,2040,2031,2042,2057
2039,2049,2040,2061,2038,2035,2059,2066
2046,2061,2049,2075,2040,2037,2069,2059
2044,2061,2055,2089,2051,2032,2079,2053
2046,2055,2063,2094,2069,2036,2062,2052
2045,2056,2060,2093,2067,2034,2068,2046
2052,2050,2048,2082,2051,2028,2053,2052
2050,2040,2048,2059,2052,2035,2038,2041
2050,2030,2042,2044,2059,2035,2038,2033
2050,2033,2045,2052,2086,2048,2059,2028
2051,2051,2063,2064,2097,2066,2062,2011
2041,2063,2074,2064,2083,2073,2072,2022
2037,2057,2069,2049,2058,2078,2061,2029
2027,2039,2051,2041,2057,2056,2049,2022
2026,2039,2039,2040,2050,2041,2036,2021
2036,2045,2026,2035,2042,2033,2056,2018
2043,2049,2041,2049,2039,2056,2039,2031
2051,2058,2046,2052,2045,2055,2061,2043
2061,2064,2058,2044,2045,2047,2057,2046
2059,2071,2061,2051,2042,2040,2059,2047
2061,2073,2063,2054,2048,2045,2071,2052
2057,2071,2057,2056,2043,2048,2073,2073
2066,2066,2054,2050,2047,2046,2072,2071
2067,2061,2050,2049,2056,2047,2063,2066
2062,2063,2053,2051,2056,2046,2071,2055
2054,2057,2057,2048,2044,2042,2071,2047
2041,2051,2054,2049,2049,2034,2071,2052
2051,2059,2052,2056,2055,2033,2067,2060
2053,2057,2048,2051,2054,2039,2058,2060
2063,2050,2041,2050,2046,2049,2072,2063
2058,2045,2043,2047,2045,2047,2055,2075
2060,2053,2055,2048,2033,2033,2021,2068
2056,2038,2043,2042,2021,2026,2029,2061
2041,2037,2046,2044,2022,2035,2062,2058
2032,2042,2060,2058,2034,2041,2060,2057
2035,2053,2065,2070,2044,2048,2069,2061
2053,2057,2070,2078,2045,2050,2069,2053
2053,2050,2063,2077,2044,2061,2068,2047
2047,2027,2053,2074,2031,2065,2038,2048
2044,2022,2056,2074,2028,2068,2034,2043
2047,2028,2070,2081,2036,2070,2050,2045
2060,2055,2101,2101,2037,2064,2032,2034
2058,2052,2088,2106,2029,2054,2036,2031
2040,2032,2076,2099,2027,2058,2061,2047
2048,2037,2077,2103,2039,2062,2056,2047
2065,2054,2074,2101,2045,2049,2063,2064
2075,2063,2066,2094,2044,2037,2074,2056
2066,2060,2067,2099,2061,2023,2045,2043
2054,2052,2071,2087,2068,2013,2060,2015
2027,2032,2049,2059,2062,2003,2056,2026
2036,2035,2038,2034,2032,1990,2042,2040
2055,2042,2038,2012,2017,1992,2045,2039
2048,2044,2033,2003,2009,2007,2054,2034
2037,2056,2045,2011,2018,2037,2035,2039
2043,2062,2053,2024,2034,2060,2039,2040
2052,2065,2052,2033,2045,2075,2038,2045
2054,2053,2035,2035,2036,2079,2053,2047
2052,2039,2042,2047,2024,2061,2019,2050
2043,2048,2048,2074,2047,2009,2050,2060
2063,2067,2069,2101,2051,2008,2056,2068
2071,2080,2090,2100,2052,2027,2040,2073
2069,2074,2086,2103,2075,2043,2041,2071
2066,2082,2090,2110,2086,2053,2034,2073
2058,2072,2087,2104,2074,2046,2023,2071
2047,2064,2075,2079,2065,2034,2019,2060
2047,2054,2070,2064,2057,2032,2020,2058
2049,2057,2066,2057,2058,2033,2022,2059
2059,2062,2058,2049,2054,2038,2041,2053
2056,2056,2051,2048,2050,2033,2031,2050
2060,2059,2051,2033,2051,2044,2070,2042
2064,2065,2056,2029,2048,2049,2068,2041
2059,2061,2054,2032,2034,2046,2060,2044
2058,2060,2054,2034,2037,2047,2053,2047
2061,2054,2056,2040,2044,2053,2074,2048
2064,2054,2067,2040,2039,2053,2051,2046
2056,2054,2061,2041,2032,2043,2058,2045
2045,2051,2068,2043,2036,2037,2042,2037
2036,2059,2088,2067,2050,2042,2036,2033
2037,2062,2092,2072,2043,2053,2050,2037
2058,2060,2083,2079,2030,2057,2056,2045
2054,2052,2076,2079,2056,2039,2039,2043
2056,2058,2084,2071,2055,2044,2050,2048
2056,2063,2084,2074,2077,2061,2047,2050
2055,2060,2066,2070,2069,2062,2049,2046
2056,2061,2062,2076,2074,2069,2060,2056
2065,2062,2064,2078,2090,2073,2067,2057
2066,2067,2062,2066,2073,2066,2062,2064
2062,2064,2059,2052,2060,2050,2042,2057
2056,2056,2048,2053,2106,2053,2048,2058
2059,2045,2047,2055,2089,2050,2041,2052
2054,2044,2039,2045,2046,2045,2044,2045
2039,2040,2046,2034,2003,2042,2064,2048
2054,2051,2060,2049,2036,2046,2071,2070
2059,2064,2062,2058,2054,2058,2064,2077
2050,2052,2047,2046,2044,2069,2059,2069
2052,2047,2039,2037,2039,2072,2054,2066
2032,2031,2025,2035,2035,2069,2061,2059
2040,2030,2030,2039,2035,2077,2080,2066
2045,2050,2051,2061,2038,2040,2061,2074
2043,2042,2037,2060,2029,2029,2068,2069
2045,2039,2016,2065,2031,2043,2076,2060
2043,2034,2003,2063,2038,2059,2067,2060
2037,2022,1985,2061,2044,2076,2073,2058
2043,2015,1972,2051,2031,2042,2050,2052
2052,2020,1970,2048,2030,2025,2028,2040
2051,2035,1979,2055,2032,2047,2034,2034
2053,2045,1992,2054,2044,2067,2045,2041
2057,2039,1997,2058,2045,2068,2043,2032
2049,2046,2022,2060,2048,2053,2054,2030
2056,2064,2029,2058,2060,2012,2039,2028
2066,2065,2047,2049,2057,2012,2027,2032
2053,2042,2038,2029,2052,2030,2044,2018
2043,2019,2038,2013,2028,2042,2038,2017
2037,2026,2040,2007,2024,2046,2044,2023
2038,2043,2050,2013,2033,2017,2046,2031
2039,2053,2067,2021,2044,2011,2056,2050
2040,2064,2078,2046,2050,2031,2059,2054
2048,2073,2088,2054,2047,2042,2065,2047
2050,2064,2087,2047,2035,2039,2051,2049
2049,2061,2069,2043,2032,2041,2063,2046
2055,2052,2068,2033,2031,2040,2067,2051
2053,2051,2067,2038,2031,2036,2076,2061
2054,2063,2064,2042,2014,2026,2066,2065
2052,2055,2056,2040,2006,2017,2037,2062
2048,2044,2049,2033,2022,2012,2041,2064
2055,2049,2063,2054,2057,2031,2019,2063
2057,2071,2083,2075,2076,2035,2043,2060
2061,2072,2091,2077,2072,2037,2038,2061
2052,2057,2079,2062,2056,2035,2027,2062
2060,2058,2074,2057,2030,2030,2034,2081
2066,2058,2072,2056,2018,2024,2045,2075
2069,2054,2069,2050,2021,2022,2056,2078
2065,2062,2070,2053,2028,2026,2045,2070
2073,2066,2073,2057,2033,2022,2048,2070
2066,2065,2074,2057,2067,2015,2048,2060
2058,2064,2074,2049,2083,2017,2037,2046
2057,2058,2064,2045,2069,2023,2030,2038
2056,2052,2055,2043,2061,2040,2016,2040
2053,2049,2053,2042,2074,2046,2026,2026
2049,2038,2041,2042,2049,2043,2037,2038
2056,2045,2054,2078,2103,2059,2065,2048
2064,2054,2058,2099,2142,2071,2075,2060
2066,2053,2061,2092,2093,2084,2069,2055
2062,2049,2051,2062,1983,2082,2070,2041
2046,2037,2042,2051,2002,2088,2050,2040
2046,2040,2042,2049,2009,2063,2038,2041
2058,2042,2050,2051,2019,2042,2052,2030
2050,2033,2049,2053,2029,2045,2040,2022
2033,2034,2043,2053,2029,2051,2040,2030
2045,2038,2048,2053,2017,2040,2036,2032
2046,2037,2037,2052,2012,2062,2041,2046
2048,2037,2037,2041,2001,2063,2008,2040
2045,2032,2037,2043,2009,2056,2019,2045
2037,2030,2037,2043,2001,2053,2006,2058
2047,2038,2041,2046,2016,2026,2024,2062
2052,2043,2034,2054,2040,2015,2051,2074
2058,2037,2036,2052,2039,2025,2046,2078
2053,2034,2032,2047,2032,2044,2055,2077
2056,2039,2032,2054,2066,2058,2057,2082
2056,2034,2046,2057,2080,2050,2061,2077
2048,2024,2050,2048,2053,2045,2056,2073
2042,2021,2048,2053,2047,2052,2067,2079
2053,2035,2053,2055,2042,2065,2071,2085
2054,2042,2062,2070,2039,2066,2071,2078
2061,2052,2062,2068,2033,2065,2075,2074
2061,2057,2058,2072,2038,2058,2042,2068
2069,2057,2051,2073,2045,2053,2053,2055
2064,2058,2054,2065,2032,2043,2038,2049
2057,2051,2045,2067,2029,2033,2041,2039
2051,2046,2033,2064,2025,2025,2034,2042
2055,2048,2034,2066,2022,2039,2041,2043
2060,2050,2027,2058,2021,2050,2051,2041
2050,2035,2029,2047,2018,2046,2054,2040
2050,2034,2026,2042,2030,2045,2060,2036
2058,2035,2031,2048,2051,2056,2059,2045
2061,2047,2049,2049,2044,2054,2063,2047
2054,2041,2033,2042,2019,2045,2041,2044
2059,2033,2026,2039,2018,2047,2053,2045
2066,2044,2033,2049,2018,2037,2052,2053
2068,2041,2035,2051,2008,2035,2059,2041
2064,2039,2037,2041,2000,2042,2056,2038
2056,2043,2044,2035,1984,2040,2042,2044
2052,2050,2061,2025,1969,2043,2042,2042
2060,2060,2067,2037,1972,2035,2045,2051
2063,2064,2077,2038,1995,2006,2054,2058
2068,2064,2077,2049,2034,2005,2056,2069
2076,2062,2083,2061,2067,2027,2065,2070
2068,2068,2083,2066,2076,2049,2060,2077
2070,2069,2086,2064,2061,2054,2058,2086
2076,2064,2077,2056,2039,2040,2052,2084
2060,2060,2070,2052,2018,2029,2034,2090
2054,2056,2062,2048,2003,2027,2058,2086
2064,2058,2058,2050,2001,2026,2042,2088
2058,2055,2053,2049,2008,2027,2058,2084
2053,2060,2061,2053,2002,2016,2042,2080
2062,2053,2053,2043,2002,1996,2028,2085
2064,2047,2040,2033,2016,1993,2029,2073
2062,2040,2037,2033,2022,1998,2049,2059
2048,2036,2029,2027,2004,2000,2028,2045
2035,2030,2035,2030,2017,2019,2045,2045
2040,2039,2048,2056,2059,2047,2081,2051
2055,2060,2065,2070,2091,2079,2076,2053
2073,2071,2071,2071,2100,2086,2073,2052
2080,2077,2072,2071,2090,2082,2066,2047
2081,2070,2069,2068,2068,2085,2075,2047
2064,2070,2061,2054,2032,2081,2070,2048
2069,2057,2053,2048,2012,2051,2053,2046
2066,2050,2049,2032,2016,2033,2044,2047
2061,2033,2038,2033,2036,2040,2044,2046
2060,2032,2032,2037,2042,2053,2051,2052
2064,2044,2039,2038,2041,2057,2060,2056
2065,2041,2042,2038,2034,2049,2038,2040
2055,2042,2046,2043,2035,2044,2052,2038
2046,2044,2051,2047,2041,2052,2033,2030
2045,2052,2054,2049,2040,2049,2056,2032
2048,2050,2052,2045,2029,2043,2041,2044
2051,2045,2038,2043,2032,2039,2039,2048
2043,2024,2024,2036,2025,2030,2039,2052
2047,2036,2033,2041,2024,2043,2065,2059
2062,2053,2056,2044,2031,2052,2066,2067
2067,2053,2052,2045,2030,2044,2064,2072
2060,2045,2040,2042,2019,2042,2071,2073
2053,2039,2039,2042,2013,2037,2052,2075
2060,2037,2033,2029,2002,2027,2040,2078
2057,2028,2026,2025,1990,2029,2047,2078
2068,2024,2016,2024,2001,2049,2046,2084
2087,2035,2021,2023,2009,2068,2058,2072
2088,2042,2029,2030,2016,2083,2062,2056
2075,2037,2042,2042,2026,2093,2074,2051
2060,2032,2052,2046,2035,2107,2066,2057
2054,2036,2062,2050,2037,2099,2084,2061
2057,2046,2072,2045,2037,2094,2062,2060
2035,2050,2066,2045,2031,2071,2052,2049
2040,2064,2060,2042,2026,2057,2068,2056
2055,2059,2060,2038,2033,2052,2050,2052
2061,2044,2045,2040,2041,2059,2064,2062
2076,2060,2050,2049,2053,2079,2083,2059
2082,2058,2057,2058,2072,2088,2105,2056
2075,2052,2053,2061,2071,2080,2091,2057
2066,2046,2051,2042,2043,2034,2070,2049
2050,2034,2039,2023,1996,1989,2070,2040
2049,2045,2038,2020,1988,1977,2067,2045
2058,2055,2046,2030,1988,1987,2068,2050
2060,2055,2041,2024,1983,1990,2072,2048
2059,2057,2043,2026,2007,2015,2078,2054
2053,2059,2056,2050,2040,2042,2076,2057
2062,2063,2066,2053,2036,2047,2056,2056
2064,2074,2079,2056,2026,2050,2043,2063
2064,2069,2069,2043,2005,2050,2044,2065
2060,2063,2055,2035,1996,2057,2070,2070
2058,2052,2046,2029,2001,2054,2055,2065
2045,2038,2044,2021,2028,2045,2045,2058
2047,2037,2044,2026,2058,2051,2052,2068
2046,2047,2050,2034,2053,2062,2059,2079
2053,2046,2049,2033,2044,2048,2063,2080
2054,2048,2041,2036,2036,2041,2066,2080
2059,2044,2044,2031,2022,2042,2048,2073
2054,2042,2039,2030,2019,2045,2045,2066
2053,2046,2044,2039,2030,2052,2051,2073
2053,2050,2046,2036,2026,2053,2071,2068
2043,2042,2043,2042,2034,2056,2069,2064
2040,2046,2036,2043,2035,2058,2071,2069
2043,2056,2047,2043,2045,2064,2043,2065
2072,2069,2046,2044,2050,2066,2052,2075
2076,2065,2043,2041,2048,2050,2069,2056
2064,2045,2029,2032,2038,2042,2041,2050
2051,2035,2027,2034,2039,2040,2062,2048
2046,2033,2031,2041,2047,2046,2069,2048
2041,2048,2043,2046,2050,2034,2061,2038
2044,2045,2038,2041,2043,2028,2065,2039
2042,2043,2028,2042,2039,2027,2068,2045
2052,2044,2033,2037,2044,2042,2064,2045
2049,2047,2033,2034,2036,2040,2067,2032
2040,2034,2023,2028,2034,2047,2063,2036
2037,2027,2029,2028,2031,2054,2066,2043
2042,2038,2028,2031,2039,2058,2068,2046
2052,2038,2029,2040,2044,2081,2088,2054
2057,2042,2031,2041,2046,2093,2088,2061
2054,2049,2033,2040,2036,2089,2082,2060
2050,2049,2024,2043,2033,2071,2071,2068
2053,2049,2028,2045,2027,2018,2050,2067
2058,2051,2040,2045,2017,2003,2056,2069
2063,2049,2031,2045,2025,2018,2052,2071
2055,2049,2025,2038,2032,2046,2053,2075
2054,2043,2028,2039,2026,2066,2065,2076
2059,2044,2026,2047,2015,2070,2046,2080
2062,2054,2043,2056,2038,2068,2053,2081
2062,2053,2054,2052,2046,2064,2056,2083
2060,2054,2057,2048,2047,2025,2045,2090
2049,2049,2040,2050,2035,2022,2039,2086
2047,2041,2039,2040,2009,2038,2055,2081
2054,2055,2051,2043,2021,2076,2066,2072
2054,2052,2061,2041,2035,2087,2074,2068
2055,2055,2058,2029,2011,2072,2055,2066
2048,2047,2064,2020,1980,2063,2065,2058
2058,2056,2077,2037,2034,2049,2056,2061
2066,2062,2078,2050,2048,2023,2074,2054
2060,2059,2072,2041,2046,2027,2060,2050
2051,2049,2053,2035,2039,2028,2055,2047
2048,2044,2054,2033,2031,2033,2046,2042
2056,2058,2049,2034,2033,2035,2052,2046
2064,2060,2056,2039,2024,2048,2057,2051
2062,2053,2054,2039,2027,2060,2063,2056
2064,2060,2057,2048,2024,2058,2068,2053
2066,2065,2060,2046,2026,2049,2059,2046
2055,2051,2046,2034,2018,2035,2036,2042
2052,2046,2043,2033,2017,2045,2054,2049
2054,2054,2046,2035,2026,2047,2060,2055
2062,2053,2053,2034,2022,2068,2054,2058
2066,2058,2049,2034,2021,2089,2043,2054
2066,2054,2040,2033,2021,2093,2038,2054
2064,2053,2038,2037,2031,2093,2048,2055
2058,2047,2040,2037,2033,2082,2051,2063
2056,2049,2040,2047,2056,2029,2051,2070
2054,2057,2053,2062,2085,1978,2048,2065
2047,2057,2058,2060,2075,1969,2037,2064
2046,2053,2051,2044,2045,1968,2037,2065
2047,2047,2043,2034,2035,1986,2029,2067
2051,2044,2047,2034,2037,2015,2050,2071
2047,2044,2040,2049,2062,2057,2042,2073
2045,2035,2045,2056,2082,2087,2038,2072
2044,2035,2036,2041,2066,2060,2056,2062
2038,2030,2034,2037,2060,2039,2035,2065
2045,2036,2041,2042,2069,2034,2043,2073
2052,2042,2047,2040,2059,2030,2028,2074
2051,2043,2049,2046,2045,2030,2043,2069
2052,2048,2058,2049,2046,2034,2035,2070
2053,2053,2069,2056,2053,2039,2053,2060
2053,2052,2066,2050,2036,2036,2030,2055
2051,2045,2059,2046,1991,2034,2039,2046
2049,2043,2058,2043,1982,2041,2044,2043
2044,2042,2056,2040,2022,2061,2043,2038
2045,2040,2059,2047,2041,2064,2053,2033
2051,2047,2059,2051,2035,2066,2045,2050
2054,2049,2049,2044,2037,2065,2037,2051
2058,2044,2043,2038,2031,2057,2043,2054
2057,2043,2035,2024,2015,2041,2029,2052
2048,2033,2032,2028,2016,2042,2022,2049
2045,2027,2027,2027,2022,2052,2054,2049
2047,2028,2025,2021,2031,2064,2045,2047
2041,2027,2020,2020,2037,2062,2040,2048
2047,2035,2022,2017,2040,2093,2043,2044
2042,2029,2015,2000,2037,2107,2029,2036
2037,2024,2001,1984,2062,2095,2025,2027
2026,2020,1996,1985,2063,2078,2015,2036
2043,2025,2000,1984,2062,2049,2051,2039
2062,2041,2017,2011,2107,2004,2053,2055
2064,2048,2024,2037,2130,1999,2057,2067
2062,2048,2029,2045,2120,2001,2044,2079
2057,2044,2031,2035,2089,2007,2036,2086
2051,2035,2026,2027,2058,2019,2042,2086
2045,2038,2021,2022,2006,2023,2026,2086
2048,2038,2036,2018,1901,2022,2028,2082
2047,2047,2046,2024,1908,2017,2039,2082
2038,2035,2052,2025,1965,2025,2035,2076
2036,2034,2055,2034,2001,2046,2072,2079
2040,2038,2060,2043,2027,2055,2061,2082
2040,2036,2060,2042,2036,2062,2069,2086
2051,2034,2058,2039,2034,2062,2050,2079
2048,2034,2061,2036,2024,2058,2021,2064
2052,2032,2051,2030,2020,2061,2019,2066
2053,2042,2062,2033,2008,2059,2023,2062
2047,2049,2067,2044,2023,2071,2034,2052
2044,2044,2072,2044,2036,2084,2055,2048
2049,2046,2069,2052,2040,2089,2052,2046
2054,2044,2067,2044,2028,2083,2059,2048
2047,2039,2053,2032,2008,2054,2043,2042
2052,2036,2042,2025,1985,2037,2024,2033
2049,2028,2041,2018,1987,2030,2000,2017
2034,2018,2027,2008,1983,2035,2010,2011
2038,2020,2034,2024,2004,2021,2015,2026
2049,2034,2049,2039,2041,2022,2021,2033
2047,2028,2053,2049,2079,2044,2038,2035
2053,2028,2054,2052,2102,2063,2054,2035
2056,2037,2057,2058,2091,2080,2049,2053
2065,2044,2051,2051,2066,2073,2053,2052
2064,2052,2043,2051,2056,2057,2044,2045
2058,2045,2036,2052,2041,2025,2020,2036
2052,2031,2032,2042,2027,2025,2020,2048
2062,2042,2025,2041,2031,2036,2027,2060
2059,2043,2018,2042,2038,2044,2019,2056
2040,2037,2015,2046,2036,2041,2037,2057
2031,2036,2000,2044,2032,2042,2034,2065
2038,2032,1995,2032,2022,2049,2059,2072
2041,2032,2003,2028,2025,2050,2061,2077
2045,2033,1999,2016,2025,2051,2047,2079
2044,2025,1997,2018,2052,2054,2051,2080
2046,2032,2027,2054,2103,2076,2058,2085
2061,2056,2054,2075,2135,2084,2063,2086
2059,2058,2056,2073,2131,2078,2062,2092
2060,2043,2050,2064,2110,2073,2076,2077
2053,2032,2047,2056,2074,2070,2066,2072
2046,2028,2041,2047,2045,2057,2040,2050
2025,2023,2050,2043,2026,2055,2035,2037
2024,2038,2062,2036,1988,2070,2017,2044
2037,2052,2083,2033,1946,2056,2024,2042
2039,2069,2096,2031,1924,2045,2050,2046
2050,2073,2107,2048,1932,2038,2046,2051
2056,2073,2110,2064,1979,2001,2034,2056
2060,2077,2108,2091,2060,2011,2045,2064
2061,2067,2114,2106,2108,2045,2044,2061
2060,2058,2119,2113,2119,2078,2049,2057
2062,2057,2122,2112,2130,2087,2066,2050
2052,2046,2094,2095,2115,2073,2052,2045
2054,2043,2090,2087,2105,2070,2055,2051
2062,2044,2082,2076,2095,2070,2055,2052
2068,2043,2072,2076,2084,2070,2044,2056
2070,2046,2067,2071,2064,2064,2051,2047
2063,2041,2057,2063,2050,2059,2044,2043
2055,2037,2054,2054,2044,2067,2056,2048
2047,2033,2052,2050,2040,2079,2053,2052
2048,2034,2051,2038,2027,2078,2054,2057
2042,2020,2032,2021,2021,2067,2047,2050
2029,2009,2015,2001,2012,2060,2035,2050
2019,2009,2007,1985,2000,2051,2041,2052
2007,2013,1999,1965,1988,2051,2033,2059
2024,2036,2019,1973,2005,2069,2024,2074
2036,2051,2029,1979,2044,2072,2063,2074
2052,2061,2031,1981,2048,2064,2058,2086
2061,2054,2011,1978,2032,2037,2057,2086
2059,2054,2017,1986,2017,2012,2048,2091
2064,2055,2030,1997,2000,1996,2038,2078
2050,2044,2032,1997,1985,1983,2041,2066
2038,2046,2026,2002,2001,2004,2037,2059
2043,2047,2030,2002,2028,2044,2042,2066
2051,2049,2031,2004,2046,2069,2045,2067
2054,2049,2030,2014,2052,2065,2039,2057
2051,2047,2024,2022,2050,2067,2050,2051
2048,2050,2016,2016,2049,2077,2079,2058
2063,2045,2011,2022,2064,2093,2072,2070
2077,2053,2022,2034,2067,2106,2069,2069
2073,2043,2015,2026,2076,2110,2057,2069
2073,2042,2015,2029,2084,2116,2067,2042
2059,2038,2018,2035,2094,2079,2050,2036
2051,2038,2019,2033,2105,2032,2046,2049
2046,2014,2011,2028,2114,2014,2026,2035
2037,2010,2010,2030,2114,2022,2019,2034
2040,2042,2044,2052,2108,2053,2041,2048
2058,2064,2061,2052,2096,2061,2044,2049
2072,2065,2065,2049,2101,2063,2029,2058
2067,2066,2080,2058,2107,2067,2045,2061
2069,2059,2084,2058,2085,2046,2054,2056
2059,2058,2089,2051,2051,2027,2037,2058
2048,2055,2089,2045,2017,2004,2028,2042
2037,2046,2075,2031,2015,2008,2015,2034
2032,2039,2070,2028,2025,2019,2016,2047
2034,2049,2081,2035,2028,2033,2032,2062
2049,2060,2088,2038,2028,2043,2052,2080
2073,2070,2088,2022,1995,2036,2043,2084
2065,2069,2077,2001,1918,2027,2047,2084
2052,2058,2057,1999,1928,2030,2036,2073
2041,2056,2039,2006,1969,2032,2028,2064
2039,2038,2024,2012,1993,2027,2031,2064
2052,2042,2038,2028,2044,2035,2037,2069
2058,2056,2042,2052,2082,2047,2043,2069
2064,2057,2044,2053,2048,2055,2024,2067
2056,2052,2045,2051,2055,2072,2029,2063
2056,2056,2045,2054,2077,2082,2027,2065
2054,2057,2044,2054,2086,2084,2042,2050
2048,2047,2038,2056,2095,2083,2040,2037
2038,2045,2047,2062,2082,2057,2047,2043
2047,2056,2064,2062,2072,2061,2052,2044
2053,2055,2069,2065,2073,2064,2057,2043
2051,2055,2072,2055,2059,2055,2056,2050
2052,2050,2067,2030,2016,2034,2036,2043
2039,2044,2064,2022,2007,2024,2018,2030
2033,2050,2079,2027,2013,2042,2038,2032
2049,2063,2081,2033,2027,2046,2038,2031
2051,2046,2074,2028,2031,2041,2041,2031
2047,2043,2060,2030,2041,2043,2035,2039
2052,2046,2058,2030,2034,2044,2044,2042
2052,2052,2052,2029,2041,2053,2033,2031
2043,2044,2050,2032,2039,2054,2054,2032
2056,2051,2056,2037,2046,2074,2058,2047
2057,2064,2065,2044,2049,2071,2038,2059
2070,2066,2069,2046,2045,2059,2049,2058
2064,2065,2064,2045,2054,2050,2014,2067
2056,2062,2063,2051,2056,2052,2046,2066
2049,2056,2058,2045,2059,2057,2046,2063
2049,2042,2043,2036,2056,2055,2044,2066
2043,2033,2030,2027,2041,2026,2037,2064
2046,2039,2037,2026,2037,2018,2040,2067
2066,2067,2053,2038,2036,2033,2050,2069
2070,2071,2050,2040,2041,2041,2035,2055
2051,2044,2032,2032,2038,2036,2026,2044
2045,2036,2026,2031,2030,2032,2031,2042
2044,2041,2030,2033,2037,2037,2044,2051
2037,2042,2034,2042,2044,2056,2055,2062
2040,2051,2034,2042,2052,2061,2040,2069
2047,2055,2034,2047,2052,2064,2033,2075
2062,2066,2042,2047,2049,2058,2051,2058
2061,2058,2042,2039,2042,2050,2056,2052
2056,2049,2030,2034,2031,2038,2033,2038
2058,2050,2028,2037,2017,2037,2027,2040
2048,2047,2034,2028,2019,2042,2022,2041
2057,2052,2039,2040,2018,2045,2045,2044
2055,2053,2038,2040,2024,2053,2052,2039
2061,2053,2037,2034,2026,2054,2059,2041
2061,2044,2033,2029,2023,2047,2036,2040
2055,2046,2040,2034,2022,2045,2023,2028
2050,2038,2039,2033,2024,2036,2027,2023
2042,2031,2045,2035,2034,2048,2036,2034
2052,2034,2058,2034,2036,2050,2054,2045
2056,2053,2061,2042,2037,2047,2049,2049
2056,2055,2071,2050,2053,2060,2061,2057
2058,2064,2077,2053,2059,2061,2037,2073
2060,2066,2071,2054,2062,2064,2059,2067
2056,2052,2057,2044,2064,2052,2052,2055
2046,2040,2045,2044,2052,2047,2050,2056
2042,2036,2046,2040,2057,2054,2041,2073
2049,2053,2057,2053,2067,2060,2064,2091
2065,2064,2078,2058,2067,2057,2053,2089
2066,2066,2068,2057,2053,2044,2045,2077
2052,2047,2051,2048,2038,2034,2032,2076
2041,2044,2053,2053,2045,2051,2055,2073
2040,2045,2054,2052,2037,2064,2047,2065
2031,2030,2046,2038,2015,2065,2053,2065
2036,2021,2044,2035,1984,2079,2055,2066
2047,2047,2070,2042,1974,2091,2056,2067
2051,2057,2074,2050,2016,2063,2046,2070
2057,2066,2082,2055,2036,2046,2044,2065
2057,2083,2085,2074,2059,2057,2057,2067
2074,2074,2080,2071,2075,2062,2051,2057
2079,2064,2059,2058,2069,2054,2030,2044
2080,2043,2038,2044,2055,2044,2037,2043
2068,2030,2035,2033,2045,2048,2039,2036
2062,2030,2033,2033,2048,2060,2055,2023
2047,2024,2031,2030,2052,2064,2059,2024
2044,2023,2037,2040,2043,2051,2031,2018
2015,2027,2035,2032,2034,2021,2043,2019
2014,2040,2033,2029,2025,2007,2054,2034
2036,2052,2031,2024,2003,1996,2043,2030
2032,2048,2026,2013,1992,1967,2026,2026
2037,2046,2022,2005,1972,1952,2017,2026
2040,2042,2013,2003,1982,1997,2028,2038
2045,2053,2013,2025,2026,2055,2049,2058
2058,2056,2027,2053,2066,2081,2050,2065
2061,2058,2029,2064,2099,2099,2046,2065
2066,2051,2032,2058,2083,2103,2032,2054
2054,2041,2028,2048,2056,2113,2037,2052
2055,2040,2026,2050,2041,2106,2034,2056
2057,2039,2028,2052,2035,2089,2044,2064
2053,2040,2027,2045,2022,2057,2046,2060
2048,2038,2024,2045,2017,2023,2042,2075
2060,2043,2035,2057,2040,2014,2046,2076
2062,2045,2039,2061,2079,2023,2044,2067
2056,2046,2046,2064,2101,2042,2043,2065
2054,2046,2036,2074,2123,2051,2021,2056
2047,2034,2021,2054,2085,2067,2042,2060
2035,2026,2014,2029,2038,2094,2001,2064
2039,2027,2013,2011,2011,2069,2011,2057
2024,2017,2015,2003,2001,2049,1987,2048
2014,2014,2018,1999,2001,2045,2026,2038
2019,2021,2022,2014,2010,2011,2045,2047
2039,2031,2030,2023,2031,2014,2046,2051
2038,2038,2035,2031,2041,2034,2047,2054
2046,2044,2046,2036,2064,2041,2057,2051
2061,2050,2056,2046,2093,2044,2049,2056
2059,2054,2071,2045,2116,2049,2064,2053
2065,2051,2086,2046,2120,2050,2052,2052
2059,2056,2091,2054,2124,2047,2036,2045
2051,2057,2077,2052,2124,2051,2044,2041
2053,2046,2070,2053,2098,2044,2039,2037
2057,2049,2067,2057,2087,2045,2034,2034
2053,2034,2070,2059,2069,2041,2030,2035
2047,2036,2076,2058,2025,2046,2042,2044
2048,2055,2097,2060,1925,2043,2054,2049
2056,2060,2098,2065,1943,2035,2054,2044
2040,2059,2093,2060,1982,2045,2037,2038
2037,2063,2088,2062,2007,2054,2055,2044
2045,2061,2084,2066,2016,2068,2054,2054
2060,2065,2067,2064,2029,2072,2062,2056
2056,2052,2057,2062,2037,2070,2068,2060
2049,2052,2055,2064,2041,2070,2062,2052
2036,2050,2055,2055,2040,2074,2060,2054
2037,2041,2040,2048,2034,2075,2057,2060
2038,2045,2045,2058,2037,2070,2061,2067
2039,2055,2059,2061,2040,2076,2068,2076
2044,2059,2060,2055,2029,2069,2043,2076
2038,2048,2040,2047,2023,2062,2050,2061
2026,2030,2006,2012,2000,2057,2033,2061
2025,2025,1984,2000,1992,2070,2033,2060
2039,2032,1980,2002,2007,2070,2040,2062
2046,2039,1980,2007,2002,2064,2037,2063
2043,2043,1978,2015,1995,2055,2032,2058
2042,2040,1974,2024,2018,2013,2044,2057
2051,2038,1979,2037,2035,2000,2038,2057
2052,2042,1979,2038,2029,2014,2048,2050
2043,2034,1981,2026,2015,2040,2040,2045
2043,2035,1998,2038,2041,2064,2062,2051
2054,2050,2028,2047,2069,2077,2064,2052
2055,2050,2037,2037,2054,2084,2067,2042
2048,2043,2040,2016,2024,2070,2035,2040
2029,2027,2042,2011,2024,2077,2036,2041
2026,2041,2044,2011,2017,2072,2051,2036
2033,2043,2052,2011,2030,2068,2026,2034
2043,2049,2067,2028,2038,2052,2021,2033
2042,2065,2105,2044,2033,2026,2048,2034
2050,2075,2128,2050,2026,2030,2043,2034
2047,2078,2126,2050,2025,2038,2041,2034
2048,2080,2115,2052,2041,2049,2055,2033
2059,2068,2097,2052,2044,2050,2036,2033
2048,2060,2079,2042,2041,2057,2034,2041
2048,2059,2083,2054,2074,2083,2059,2056
2063,2072,2091,2081,2103,2090,2055,2062
2073,2078,2096,2084,2092,2068,2061,2068
2077,2076,2091,2079,2081,2037,2048,2070
2067,2073,2083,2073,2076,2025,2042,2065
2057,2061,2072,2064,2059,2018,2064,2055
2047,2053,2071,2058,2054,2014,2038,2061
2046,2049,2060,2052,2045,2022,2044,2063
2045,2045,2060,2042,2032,2038,2038,2053
2031,2035,2054,2027,2021,2052,2036,2052
2027,2043,2059,2026,2034,2070,2065,2060
2044,2067,2082,2038,2047,2084,2067,2074
2049,2063,2082,2046,2057,2085,2064,2073
2052,2063,2063,2045,2058,2080,2068,2063
2041,2056,2056,2048,2062,2070,2046,2064
2046,2056,2058,2054,2062,2061,2062,2068
2057,2052,2051,2055,2064,2058,2065,2064
2064,2054,2048,2054,2063,2064,2077,2066
2055,2047,2041,2056,2063,2067,2062,2050
2048,2031,2039,2048,2034,2058,2068,2047
2047,2035,2032,2042,2038,2060,2046,2039
2040,2036,2039,2035,2036,2044,2053,2039
2046,2048,2053,2036,2034,2037,2053,2041
2049,2045,2046,2033,2033,2027,2056,2033
2051,2052,2054,2043,2025,2038,2057,2032
2045,2059,2047,2040,2032,2044,2057,2037
2044,2046,2033,2028,2028,2039,2057,2037
2046,2040,2034,2036,2041,2052,2068,2045
2052,2036,2032,2041,2035,2052,2046,2036
2048,2030,2022,2035,2038,2033,2074,2035
2038,2020,2015,2034,2050,2030,2060,2043
2034,2038,2021,2044,2063,2042,2068,2060
2048,2055,2030,2047,2072,2063,2094,2060
2059,2056,2033,2046,2062,2068,2072,2057
2052,2053,2026,2046,2071,2068,2067,2054
2044,2042,2014,2033,2089,2056,2061,2051
2045,2045,2012,2023,2080,2059,2067,2058
2046,2045,2013,2022,2042,2071,2066,2053
2045,2039,2005,2004,1975,2067,2062,2057
2043,2035,2019,2003,1950,2064,2072,2059
2045,2041,2030,2008,1948,2057,2075,2068
2041,2036,2042,2018,1961,1999,2062,2077
2052,2031,2050,2023,1952,1978,2076,2085
2074,2048,2060,2034,1987,2002,2073,2089
2066,2047,2072,2047,2029,2017,2077,2070
2045,2041,2064,2042,2023,2024,2058,2054
2040,2040,2063,2034,2002,2021,2067,2052
2056,2070,2073,2046,2026,2038,2069,2062
2074,2080,2070,2056,2064,2048,2059,2052
2062,2071,2056,2039,2047,2068,2061,2037
2057,2060,2053,2044,2049,2080,2066,2036
2060,2070,2068,2055,2043,2080,2053,2027
2047,2072,2077,2054,2065,2082,2038,2016
2036,2068,2070,2064,2089,2055,2033,2029
2051,2066,2073,2072,2102,2035,2036,2038
2052,2074,2073,2071,2108,2047,2059,2042
2053,2065,2063,2059,2084,2053,2054,2040
2046,2056,2054,2044,2068,2044,2053,2033
2041,2051,2048,2045,2050,2046,2045,2037
2052,2052,2054,2052,2066,2057,2065,2038
2052,2055,2055,2053,2069,2058,2070,2040
2058,2053,2052,2056,2064,2052,2065,2041
2053,2051,2048,2047,2050,2041,2065,2032
2040,2049,2051,2050,2041,2044,2060,2036
2036,2042,2050,2045,2036,2043,2057,2037
2038,2040,2045,2037,2037,2040,2055,2038
2040,2039,2044,2047,2050,2045,2069,2045
2041,2050,2047,2045,2059,2048,2060,2049
2036,2039,2046,2050,2057,2046,2055,2060
2036,2042,2049,2049,2056,2035,2053,2060
2039,2043,2048,2049,2050,2029,2063,2063
2034,2047,2043,2046,2054,2026,2060,2073
2042,2048,2043,2050,2049,2025,2054,2067
2045,2045,2042,2045,2043,2015,2049,2062
2040,2040,2036,2043,2038,2014,2039,2057
2036,2043,2045,2048,2038,2014,2028,2050
2036,2048,2044,2046,2032,2012,2028,2047
2039,2044,2039,2040,2031,2017,2026,2045
2036,2047,2039,2038,2024,2019,2025,2046
2043,2049,2035,2036,2000,2004,2042,2037
2048,2042,2035,2035,1983,2001,2037,2040
2045,2046,2044,2028,1982,2016,2064,2037
2050,2052,2047,2030,2000,2053,2064,2042
2046,2058,2053,2045,2046,2107,2080,2049
2058,2059,2058,2060,2082,2129,2093,2051
2054,2061,2053,2066,2099,2122,2094,2053
2058,2063,2051,2059,2100,2117,2098,2048
2061,2060,2052,2054,2076,2102,2074,2035
2057,2054,2046,2047,2050,2091,2052,2031
2049,2042,2034,2037,2040,2082,2066,2036
2046,2041,2031,2044,2047,2100,2067,2042
2054,2054,2052,2057,2055,2053,2058,2049
2061,2059,2053,2063,2055,2036,2055,2046
2063,2062,2053,2064,2064,2039,2040,2046
2062,2059,2049,2066,2069,2049,2042,2032
2046,2045,2043,2052,2063,2056,2043,2033
2039,2043,2039,2049,2060,2054,2044,2037
2046,2040,2037,2049,2064,2053,2052,2041
2048,2039,2034,2056,2064,2054,2065,2053
2049,2042,2039,2061,2059,2041,2052,2057
2042,2043,2040,2054,2049,2036,2046,2062
2050,2040,2035,2049,2045,2039,2050,2060
2043,2029,2036,2042,2035,2036,2032,2063
2041,2031,2033,2041,2037,2038,2062,2062
2044,2032,2040,2041,2043,2035,2049,2064
2042,2027,2042,2044,2044,2035,2057,2066
2040,2032,2039,2043,2051,2033,2044,2060
2048,2042,2046,2051,2060,2038,2026,2051
2049,2041,2052,2052,2070,2046,2041,2040
2045,2051,2057,2062,2078,2058,2036,2042
2045,2045,2043,2054,2066,2076,2041,2039
2040,2036,2036,2050,2062,2073,2005,2037
2040,2045,2037,2047,2057,2056,2011,2030
2049,2052,2041,2060,2069,2064,2047,2040
2046,2051,2042,2060,2068,2059,2051,2039
2047,2048,2045,2057,2070,2065,2058,2042
2049,2041,2042,2051,2065,2056,2056,2030
2050,2036,2044,2040,2018,2039,2020,2025
2052,2045,2035,2031,1977,2045,2011,2032
2052,2044,2032,2034,2010,2053,2028,2031
2055,2043,2029,2038,2017,2052,2020,2020
2036,2032,2023,2030,2012,2047,2021,2027
2049,2037,2032,2036,2017,2055,2025,2040
2062,2059,2041,2038,2021,2052,2039,2038
2066,2050,2038,2044,2019,2037,2030,2034
2064,2039,2036,2044,2030,2036,2042,2025
2064,2019,2027,2035,2039,2052,2059,2028
2058,2027,2038,2043,2059,2066,2039,2033
2054,2032,2045,2055,2069,2075,2056,2037
2044,2036,2048,2062,2071,2072,2045,2041
2038,2037,2041,2059,2060,2059,2043,2047
2046,2044,2036,2048,2054,2073,2042,2050
2053,2042,2021,2047,2048,2068,2028,2050
2044,2040,2022,2045,2048,2058,2054,2050
2040,2044,2017,2044,2031,2048,2045,2052
2052,2050,2029,2043,2025,2042,2061,2057
2046,2054,2037,2051,2043,2016,2051,2058
2033,2038,2034,2055,2051,2017,2046,2048
2027,2037,2043,2060,2051,2031,2053,2056
2028,2049,2046,2059,2045,2041,2052,2057
2036,2053,2045,2053,2046,2047,2049,2058
2042,2052,2034,2050,2043,2047,2047,2059
2047,2052,2042,2056,2049,2034,2066,2056
2050,2053,2052,2044,2024,2035,2033,2045
2042,2051,2050,2038,2011,2042,2051,2033
2047,2046,2051,2040,2000,2041,2049,2026
2046,2050,2051,2051,2003,2037,2044,2026
2042,2046,2054,2057,2011,2028,2063,2029
2053,2043,2055,2065,2035,2012,2062,2036
2059,2048,2049,2068,2069,2027,2062,2053
2065,2052,2048,2072,2083,2038,2055,2042
2061,2043,2045,2064,2072,2054,2048,2043
2053,2037,2049,2064,2072,2066,2057,2026
2045,2019,2028,2040,2037,2038,2052,2026
2035,2006,2014,2030,1999,2029,2044,2028
2044,2022,2022,2038,1997,2040,2043,2036
2060,2043,2044,2052,2011,2047,2035,2042
2067,2043,2043,2047,2006,2038,2024,2032
2053,2035,2034,2043,2027,2043,2043,2031
2041,2044,2042,2057,2053,2053,2039,2039
2047,2053,2060,2064,2056,2049,2045,2029
2041,2050,2057,2062,2059,2049,2041,2037
2041,2051,2064,2063,2072,2051,2026,2043
2042,2056,2075,2069,2096,2059,2028,2045
2041,2055,2080,2077,2101,2053,2018,2056
2044,2055,2089,2080,2097,2060,2026,2048
2039,2042,2080,2068,2079,2075,2025,2058
2026,2034,2062,2056,2069,2087,2044,2066
2027,2030,2054,2049,2066,2090,2043,2068
2034,2028,2041,2040,2058,2069,2056,2058
2025,2015,2031,2036,2057,2026,2045,2058
2045,2033,2041,2044,2057,2020,2044,2065
2058,2036,2034,2049,2060,2043,2037,2069
2060,2031,2027,2044,2055,2057,2026,2066
2060,2020,2014,2050,2060,2054,2037,2050
2042,2016,2011,2049,2053,2045,2049,2037
2038,2012,2018,2049,2053,2027,2033,2026
2032,2025,2029,2050,2051,2028,2031,2015
2035,2024,2028,2038,2054,2039,2045,2024
2024,2006,2017,2024,2054,2044,2046,2031
2014,1995,2002,2014,2039,2031,2035,2028
2007,2012,2018,2018,2048,2032,2033,2022
2026,2047,2043,2034,2056,2040,2050,2043
2052,2072,2054,2033,2049,2043,2065,2051
2062,2079,2058,2040,2060,2037,2067,2036
2063,2080,2060,2040,2038,2027,2046,2026
2054,2071,2045,2035,2037,2020,2053,2024
2046,2065,2041,2038,2044,2032,2040,2031
2049,2068,2051,2049,2062,2046,2067,2040
2060,2075,2066,2055,2064,2053,2072,2037
2055,2079,2064,2055,2066,2057,2074,2040
2046,2066,2059,2054,2065,2074,2061,2041
2053,2064,2065,2051,2071,2089,2077,2050
2046,2060,2058,2048,2070,2098,2080,2051
2048,2057,2066,2050,2062,2094,2083,2048
2052,2056,2069,2060,2068,2088,2077,2057
2057,2058,2063,2058,2068,2084,2080,2070
2052,2054,2059,2061,2065,2077,2094,2069
2045,2054,2056,2058,2064,2075,2097,2071
2047,2050,2054,2062,2060,2055,2072,2066
2040,2051,2054,2058,2061,2039,2083,2064
2041,2050,2045,2053,2059,2028,2075,2063
2034,2044,2043,2047,2054,1998,2042,2064
2033,2036,2037,2049,2048,1994,2048,2060
2035,2034,2040,2055,2049,2008,2037,2060
2043,2048,2051,2060,2052,2024,2054,2056
2042,2048,2049,2057,2048,2043,2034,2053
2043,2053,2045,2052,2041,2059,2040,2053
2042,2056,2040,2048,2043,2060,2055,2050
2045,2054,2041,2054,2050,2055,2052,2046
2048,2050,2046,2055,2054,2055,2045,2040
2046,2051,2042,2056,2056,2059,2050,2042
2047,2052,2043,2058,2058,2068,2063,2042
2055,2059,2045,2061,2066,2064,2078,2045
2050,2057,2041,2062,2060,2052,2063,2044
2053,2052,2040,2065,2067,2046,2078,2047
2060,2057,2037,2059,2066,2041,2077,2051
2062,2053,2036,2056,2064,2040,2088,2042
2060,2054,2039,2051,2066,2035,2078,2041
2063,2049,2034,2044,2054,2018,2069,2032
2054,2050,2035,2038,2036,2002,2056,2029
2055,2047,2025,2038,2044,2014,2050,2028
2047,2040,2024,2034,2031,2012,2046,2031
2037,2039,2023,2024,2013,2013,2053,2041
2044,2040,2021,2027,2010,2023,2068,2047
2050,2048,2024,2025,2012,2019,2056,2048
2052,2047,2027,2016,2011,2027,2062,2050
2054,2052,2040,2025,2010,2040,2027,2049
2052,2053,2052,2029,2009,2052,2037,2057
2046,2056,2065,2046,2023,2070,2045,2042
2048,2060,2074,2049,2024,2067,2056,2043
2052,2060,2078,2050,2020,2058,2057,2056
2048,2062,2076,2051,2058,2039,2052,2061
2034,2064,2075,2054,2068,2036,2037,2073
2035,2058,2062,2048,2079,2025,2027,2066
2037,2046,2045,2039,2093,2018,2026,2064
2026,2035,2035,2033,2104,2017,2017,2056
2033,2034,2032,2033,2139,2027,2028,2057
2043,2050,2042,2048,2152,2059,2036,2060
2042,2050,2043,2059,2132,2076,2042,2066
2044,2042,2038,2056,2096,2073,2051,2062
2045,2041,2041,2043,2016,2058,2038,2053
2044,2040,2039,2027,1919,2043,2037,2041
2036,2037,2043,2024,1955,2046,2043,2036
2041,2048,2056,2042,1991,2056,2043,2041
2039,2049,2058,2040,2015,2058,2029,2042
2049,2054,2055,2050,2030,2062,2032,2049
2055,2054,2053,2046,2042,2052,2030,2049
2050,2053,2052,2044,2021,2042,2034,2038
2047,2050,2045,2037,2024,2041,2043,2038
2047,2048,2039,2033,2026,2049,2032,2025
2035,2051,2040,2033,2034,2060,2039,2019
2028,2038,2039,2035,2035,2069,2028,2024
2030,2032,2024,2031,2034,2066,2040,2034
2039,2031,2019,2027,2037,2057,2039,2031
2049,2035,2027,2030,2043,2051,2031,2036
2044,2037,2027,2032,2053,2050,2040,2051
2056,2036,2028,2038,2059,2051,2040,2054
2050,2027,2029,2046,2072,2047,2043,2028
2022,2021,2028,2048,2068,2048,2045,2021
2017,2017,2025,2041,2047,2047,2049,2027
2018,2019,2040,2044,2049,2046,2038,2030
2027,2027,2053,2053,2033,2044,2025,2031
2017,2036,2064,2066,2027,2042,2052,2042
2021,2041,2064,2072,2038,2045,2042,2045
2034,2048,2059,2084,2044,2049,2040,2054
2039,2056,2066,2085,2054,2051,2032,2057
2046,2058,2064,2078,2047,2048,2042,2061
2043,2057,2058,2077,2046,2039,2040,2064
2052,2053,2052,2066,2043,2034,2014,2065
2042,2043,2042,2065,2043,2028,2025,2066
2036,2049,2047,2068,2054,2023,2026,2067
2044,2061,2055,2058,2056,2019,2034,2064
2046,2060,2058,2057,2060,2032,2037,2058
2045,2049,2049,2042,2058,2041,2043,2054
2041,2048,2046,2035,2055,2044,2045,2047
2039,2047,2045,2031,2052,2046,2053,2044
2041,2048,2032,2028,2043,2060,2052,2047
2037,2041,2024,2026,2032,2057,2062,2044
2039,2040,2022,2036,2039,2059,2073,2039
2039,2038,2026,2042,2049,2058,2067,2040
2052,2044,2027,2051,2058,2065,2057,2047
2056,2051,2034,2051,2051,2060,2056,2045
2060,2049,2042,2053,2051,2056,2063,2042
2054,2041,2044,2049,2054,2054,2065,2031
2046,2042,2041,2047,2058,2056,2062,2031
2044,2033,2036,2043,2051,2054,2060,2022
2041,2026,2029,2035,2054,2052,2060,2021
2042,2036,2036,2044,2056,2057,2053,2030
2040,2049,2041,2045,2053,2063,2068,2028
2031,2044,2041,2045,2042,2060,2080,2034
2031,2046,2035,2048,2049,2061,2058,2033
2026,2049,2035,2050,2041,2058,2060,2041
2032,2054,2045,2055,2042,2057,2075,2045
2038,2057,2047,2057,2038,2060,2072,2050
2042,2057,2055,2054,2020,2060,2075,2046
2035,2050,2050,2044,1994,2042,2064,2044
2044,2055,2048,2047,1983,2018,2060,2047
2052,2060,2054,2045,1977,1995,2064,2056
2043,2050,2045,2037,1982,1995,2054,2056
2044,2052,2051,2059,2020,2021,2067,2066
2053,2059,2065,2074,2068,2035,2066,2074
2062,2066,2073,2088,2105,2050,2063,2070
2054,2051,2054,2081,2106,2042,2050,2070
2037,2040,2045,2069,2083,2030,2036,2063
2036,2049,2045,2065,2064,2012,2013,2057
2036,2051,2042,2067,2054,2014,2012,2046
2041,2051,2051,2064,2074,2027,2032,2044
2043,2062,2061,2068,2075,2032,2046,2044
2049,2059,2060,2069,2066,2044,2037,2058
2044,2051,2047,2057,2051,2069,2031,2044
2044,2041,2039,2044,2038,2094,2039,2039
2047,2040,2045,2050,2039,2104,2034,2026
2043,2045,2050,2056,2033,2105,2028,2017
2042,2044,2056,2053,2023,2108,2025,2022
2046,2049,2058,2060,2047,2055,2012,2044
2056,2045,2057,2067,2061,2007,2024,2043
2051,2042,2052,2061,2060,2015,2038,2039
2054,2035,2044,2057,2054,2029,2039,2035
2048,2043,2043,2060,2045,2026,2024,2036
2039,2042,2041,2056,2044,2028,2021,2037
2049,2049,2050,2063,2050,2034,2037,2041
2056,2051,2053,2069,2041,2040,2053,2043
2048,2051,2064,2071,2053,2050,2046,2033
2043,2051,2061,2071,2060,2066,2046,2036
2049,2052,2061,2066,2060,2066,2042,2031
2034,2053,2054,2060,2055,2063,2044,2033
2032,2042,2048,2057,2050,2055,2033,2045
2039,2046,2053,2057,2048,2050,2029,2052
2043,2047,2061,2069,2062,2052,2046,2056
2044,2056,2071,2079,2062,2054,2035,2056
2040,2060,2072,2079,2063,2048,2036,2058
2040,2054,2073,2077,2061,2046,2047,2062
2041,2052,2063,2073,2064,2045,2046,2059
2039,2045,2064,2069,2057,2054,2048,2061
2043,2048,2057,2065,2053,2067,2052,2061
2046,2047,2054,2057,2036,2059,2031,2060
2041,2039,2057,2054,2029,2060,2032,2064
2037,2041,2054,2054,2030,2064,2027,2060
2035,2045,2059,2059,2038,2044,2008,2062
2042,2052,2066,2062,2048,2028,2029,2058
2042,2061,2066,2065,2051,2043,2027,2055
2046,2061,2066,2071,2056,2070,2030,2056
2050,2060,2064,2064,2053,2075,2047,2050
2058,2052,2054,2053,2044,2089,2045,2044
2057,2050,2049,2047,2045,2091,2050,2036
2049,2041,2041,2041,2044,2075,2044,2031
2035,2043,2032,2046,2042,2038,2027,2033
2033,2036,2029,2051,2049,2002,2031,2042
2031,2032,2028,2048,2053,1997,2002,2045
2036,2040,2026,2044,2056,2012,2024,2042
2048,2041,2027,2042,2050,2017,2029,2046
2058,2047,2025,2043,2052,2021,2055,2042
2047,2040,2022,2036,2047,2013,2023,2039
2045,2041,2017,2040,2046,2017,2046,2040
2052,2046,2028,2047,2050,2030,2058,2044
2053,2044,2028,2055,2053,2038,2041,2053
2054,2044,2031,2052,2053,2041,2039,2055
2053,2039,2027,2043,2065,2053,2033,2057
2048,2033,2021,2038,2060,2043,2034,2054
2038,2029,2015,2038,2058,2040,2037,2054
2044,2027,2032,2040,2062,2047,2037,2053
2051,2043,2044,2055,2073,2056,2055,2056
2054,2051,2055,2057,2075,2064,2043,2064
2060,2047,2057,2066,2076,2067,2036,2060
2052,2049,2067,2057,2069,2070,2050,2064
2044,2037,2070,2057,2067,2071,2053,2070
2044,2038,2067,2059,2067,2076,2054,2078
2045,2038,2080,2063,2067,2073,2055,2083
2053,2037,2066,2062,2060,2061,2066,2077
2044,2026,2056,2054,2046,2040,2049,2076
2036,2026,2048,2055,2040,2035,2036,2073
2043,2037,2048,2061,2047,2048,2042,2068
2045,2034,2047,2068,2050,2045,2047,2058
2042,2039,2049,2070,2052,2042,2024,2058
2039,2034,2053,2062,2054,2028,2024,2041
