CH1,CH2,CH3,CH4,CH5,CH6,CH7,CH8
2046,2043,2042,2048,2053,2047,2033,2028
2036,2040,2036,2043,2041,2047,2028,2036
2038,2037,2027,2041,2039,2049,2042,2039
2044,2036,2028,2040,2042,2040,2037,2036
2039,2026,2018,2027,2032,2036,2040,2035
2044,2038,2031,2028,2036,2041,2065,2038
2053,2058,2043,2044,2052,2055,2055,2040
2048,2060,2046,2046,2053,2054,2036,2041
2051,2066,2038,2046,2055,2058,2065,2046
2055,2060,2031,2044,2053,2052,2068,2047
2056,2056,2032,2047,2060,2056,2062,2051
2053,2047,2031,2045,2060,2056,2056,2056
2045,2044,2026,2041,2064,2056,2045,2058
2038,2041,2027,2041,2060,2054,2060,2061
2043,2041,2039,2043,2060,2053,2066,2058
2045,2047,2062,2055,2065,2049,2062,2062
2048,2054,2064,2056,2060,2056,2063,2071
2048,2054,2071,2057,2056,2050,2061,2070
2052,2046,2080,2053,2051,2049,2027,2073
2052,2046,2084,2051,2044,2044,2022,2068
2047,2044,2087,2055,2037,2035,2023,2066
2038,2046,2091,2065,2045,2030,2022,2065
2036,2043,2093,2067,2041,2032,2038,2064
2052,2053,2089,2069,2039,2035,2037,2066
2049,2052,2082,2070,2042,2039,2042,2058
2046,2050,2073,2069,2042,2038,2047,2055
2048,2051,2065,2065,2046,2036,2048,2062
2051,2050,2060,2067,2047,2049,2036,2053
2053,2051,2056,2062,2040,2058,2043,2045
2056,2049,2052,2063,2039,2060,2046,2045
2050,2041,2044,2054,2035,2056,2023,2042
2050,2042,2036,2046,2031,2043,2028,2034
2045,2040,2039,2039,2039,2027,2043,2039
2044,2047,2037,2044,2045,2024,2052,2039
2050,2052,2040,2045,2046,2043,2059,2042
2053,2042,2027,2035,2047,2061,2061,2037
2043,2040,2033,2029,2060,2074,2057,2034
2044,2045,2036,2031,2056,2072,2051,2030
2048,2041,2044,2033,2050,2075,2052,2041
2048,2039,2039,2038,2053,2080,2064,2048
2055,2045,2030,2041,2061,2075,2077,2042
2046,2037,2020,2050,2055,2071,2078,2049
2052,2045,2027,2052,2062,2077,2072,2051
2057,2049,2034,2060,2064,2066,2064,2051
2052,2052,2037,2060,2069,2047,2061,2052
2053,2054,2038,2063,2071,2038,2056,2058
2054,2049,2038,2062,2065,2028,2054,2059
2053,2052,2034,2051,2063,2009,2053,2056
2046,2044,2022,2038,2054,2000,2066,2063
2050,2045,2027,2034,2055,2002,2047,2062
2048,2042,2031,2040,2045,2020,2043,2065
2046,2039,2033,2038,2039,2025,2046,2067
2044,2032,2040,2035,2034,2037,2053,2081
2039,2038,2050,2041,2032,2044,2045,2070
2040,2035,2056,2034,2016,2040,2040,2064
2037,2035,2067,2041,2012,2031,2038,2069
2045,2049,2079,2052,2017,2038,2030,2071
2047,2048,2077,2053,2034,2047,2044,2067
2052,2044,2070,2058,2039,2039,2039,2062
2054,2045,2058,2056,2028,2013,2038,2057
2049,2047,2051,2050,2004,2004,2027,2058
2050,2057,2054,2048,1988,1996,2038,2040
2056,2052,2047,2044,1982,1998,2025,2042
2042,2042,2037,2031,1976,2001,2032,2031
2038,2033,2018,2021,1987,2017,2033,2029
2039,2037,2023,2028,2029,2048,2040,2034
2047,2036,2021,2034,2068,2066,2055,2039
2050,2034,2028,2040,2093,2083,2062,2039
2051,2039,2021,2042,2108,2085,2063,2043
2046,2038,2009,2028,2089,2073,2070,2026
2042,2027,2010,2028,2065,2060,2056,2016
2035,2022,2003,2021,2056,2045,2037,2021
2030,2033,2001,2020,2056,2046,2049,2041
2044,2045,2008,2029,2068,2054,2053,2039
2050,2046,2010,2038,2073,2055,2050,2042
2057,2052,2018,2042,2076,2059,2031,2051
2057,2056,2021,2042,2073,2061,2034,2055
2058,2059,2018,2043,2068,2075,2044,2050
2063,2060,2018,2044,2074,2074,2047,2056
2064,2056,2025,2044,2068,2070,2056,2053
2062,2050,2032,2046,2060,2063,2058,2051
2054,2049,2035,2039,2046,2052,2046,2057
2051,2035,2036,2051,2044,2052,2051,2052
2043,2034,2027,2057,2052,2050,2036,2053
2035,2038,2045,2056,2048,2047,2036,2062
2046,2062,2073,2064,2060,2055,2062,2063
2050,2061,2079,2068,2069,2052,2059,2067
2046,2060,2068,2066,2058,2048,2053,2063
2042,2048,2055,2065,2062,2048,2053,2054
2045,2046,2071,2068,2060,2053,2042,2061
2056,2052,2076,2064,2056,2056,2034,2070
2053,2052,2060,2058,2049,2055,2036,2064
2063,2051,2052,2050,2052,2054,2053,2057
2060,2053,2040,2040,2047,2052,2067,2053
2050,2040,2030,2030,2049,2047,2060,2049
2046,2044,2023,2031,2047,2050,2061,2048
2045,2039,2022,2036,2048,2047,2049,2039
2060,2053,2036,2052,2055,2048,2053,2041
2061,2058,2056,2063,2059,2050,2060,2043
2068,2065,2070,2065,2054,2060,2076,2041
2064,2064,2066,2066,2047,2064,2062,2032
2060,2052,2061,2068,2056,2064,2067,2038
2065,2047,2068,2070,2058,2067,2039,2037
2058,2048,2073,2068,2046,2052,2032,2032
2052,2042,2062,2060,2047,2046,2022,2023
2042,2037,2046,2054,2045,2046,2035,2028
2046,2045,2040,2060,2046,2048,2033,2037
2056,2043,2043,2061,2048,2035,2058,2040
2059,2043,2041,2054,2051,2029,2057,2040
2053,2047,2040,2053,2049,2037,2050,2036
2043,2044,2042,2049,2045,2040,2050,2039
2047,2049,2067,2052,2045,2043,2035,2045
2048,2047,2081,2055,2048,2040,2045,2038
2042,2049,2086,2048,2050,2044,2038,2050
2051,2045,2078,2042,2051,2051,2035,2055
2048,2050,2057,2042,2052,2049,2025,2057
2050,2041,2042,2048,2057,2049,2053,2057
2050,2045,2045,2060,2057,2040,2048,2055
2044,2040,2043,2057,2043,2037,2035,2052
2039,2037,2048,2060,2050,2041,2041,2052
2036,2025,2039,2063,2041,2039,2036,2058
2032,2037,2040,2069,2047,2039,2043,2069
2042,2052,2047,2071,2054,2037,2054,2065
2044,2045,2028,2054,2039,2035,2052,2062
2042,2046,2017,2037,2026,2036,2050,2056
2049,2047,2035,2040,2039,2040,2056,2058
2060,2066,2071,2040,2041,2044,2057,2051
2064,2077,2077,2035,2039,2040,2052,2051
2059,2071,2055,2029,2042,2045,2048,2049
2061,2064,2048,2036,2051,2044,2051,2045
2061,2061,2058,2045,2053,2052,2052,2040
2060,2058,2061,2052,2062,2052,2055,2027
2056,2064,2057,2051,2063,2055,2062,2032
2056,2060,2055,2050,2057,2048,2045,2035
2052,2056,2050,2052,2051,2047,2057,2036
2049,2058,2047,2051,2054,2049,2060,2035
2049,2048,2040,2046,2046,2036,2052,2025
2047,2041,2038,2046,2046,2038,2056,2032
2045,2043,2041,2045,2054,2048,2074,2037
2050,2049,2044,2052,2052,2053,2079,2042
2047,2046,2048,2060,2057,2050,2072,2033
2047,2043,2046,2058,2057,2054,2057,2041
2046,2042,2045,2061,2052,2052,2047,2044
2042,2041,2054,2061,2054,2054,2054,2044
2047,2039,2059,2061,2057,2050,2045,2046
2048,2034,2058,2062,2051,2051,2052,2047
2041,2038,2065,2056,2055,2048,2054,2048
2041,2035,2056,2067,2052,2052,2048,2050
2040,2037,2052,2062,2061,2055,2050,2052
2045,2032,2053,2061,2058,2050,2049,2068
2049,2033,2045,2061,2055,2049,2055,2066
2041,2044,2039,2059,2057,2051,2048,2065
2052,2044,2044,2055,2039,2040,2048,2064
2043,2027,2032,2050,2039,2039,2036,2068
2045,2036,2031,2043,2030,2043,2042,2069
2052,2042,2042,2049,2037,2045,2059,2069
2054,2044,2047,2055,2042,2048,2064,2061
2052,2052,2047,2064,2037,2048,2035,2056
2053,2050,2043,2058,2035,2045,2050,2060
2048,2048,2033,2051,2038,2045,2052,2051
2050,2044,2027,2048,2036,2040,2056,2042
2048,2049,2025,2051,2038,2046,2067,2039
2052,2044,2026,2063,2054,2045,2072,2041
2051,2046,2028,2056,2053,2052,2069,2043
2052,2041,2018,2048,2053,2050,2030,2040
2049,2043,2015,2053,2048,2047,2034,2040
2049,2048,2023,2059,2058,2050,2027,2035
2047,2044,2033,2066,2059,2053,2040,2036
2047,2046,2039,2060,2062,2053,2036,2032
2043,2035,2036,2062,2049,2044,2034,2029
2038,2034,2027,2060,2056,2048,2048,2032
2047,2042,2037,2068,2060,2048,2048,2040
2051,2047,2040,2070,2051,2046,2036,2035
2052,2055,2056,2072,2051,2043,2057,2038
2053,2054,2069,2064,2037,2042,2046,2035
2052,2051,2070,2064,2041,2039,2025,2043
2052,2055,2078,2060,2036,2032,2028,2044
2049,2058,2084,2066,2036,2034,2052,2051
2055,2050,2073,2049,2035,2029,2062,2049
2051,2048,2066,2050,2034,2034,2065,2060
2053,2057,2061,2051,2041,2035,2046,2056
2052,2049,2059,2048,2044,2036,2057,2065
2049,2051,2055,2046,2044,2040,2050,2064
2051,2040,2056,2041,2040,2042,2055,2063
2050,2040,2056,2049,2039,2044,2052,2062
2043,2032,2049,2049,2040,2044,2055,2064
2035,2029,2052,2055,2056,2049,2041,2064
2051,2050,2066,2064,2062,2060,2028,2074
2054,2059,2057,2061,2059,2067,2043,2064
2051,2040,2049,2057,2058,2080,2047,2056
2043,2042,2048,2060,2059,2086,2057,2049
2042,2036,2050,2062,2055,2087,2045,2049
2046,2034,2053,2060,2053,2093,2054,2046
2046,2034,2046,2064,2054,2082,2050,2041
2043,2036,2041,2069,2051,2043,2080,2039
2042,2037,2041,2061,2044,2015,2075,2037
2053,2039,2035,2073,2045,2026,2074,2034
2051,2044,2032,2076,2044,2039,2067,2032
2049,2042,2031,2075,2051,2051,2064,2033
2052,2045,2024,2065,2039,2045,2075,2037
2054,2037,2013,2057,2037,2039,2056,2042
2044,2029,2000,2054,2031,2030,2037,2033
2040,2015,1994,2042,2029,2022,2024,2027
2038,2027,2011,2035,2033,2026,2014,2032
2049,2052,2037,2039,2045,2043,2028,2038
2053,2050,2031,2036,2047,2038,2041,2038
2054,2043,2028,2030,2037,2034,2054,2041
2050,2039,2021,2021,2039,2036,2071,2046
2052,2041,2036,2025,2045,2037,2076,2049
2057,2048,2053,2038,2057,2046,2065,2049
2049,2048,2064,2052,2055,2052,2072,2053
2050,2050,2061,2054,2058,2055,2057,2054
2050,2051,2058,2056,2059,2047,2062,2051
2049,2045,2060,2055,2056,2056,2043,2056
2044,2048,2067,2054,2058,2061,2054,2047
2052,2047,2060,2050,2055,2065,2040,2049
2049,2051,2056,2051,2057,2064,2063,2051
2052,2045,2045,2052,2053,2069,2039,2058
2049,2041,2038,2038,2046,2059,2023,2062
2044,2033,2036,2036,2040,2051,2038,2061
2047,2041,2044,2045,2039,2056,2056,2067
2050,2046,2049,2049,2042,2056,2061,2064
2055,2052,2065,2060,2046,2050,2062,2059
2050,2061,2068,2058,2046,2048,2053,2051
2057,2060,2074,2063,2054,2049,2037,2047
2055,2056,2069,2057,2050,2050,2058,2043
2057,2053,2060,2052,2046,2053,2065,2042
2055,2050,2059,2056,2049,2051,2059,2046
2057,2056,2061,2056,2054,2054,2055,2043
2054,2052,2054,2055,2047,2049,2072,2036
2055,2047,2058,2054,2045,2039,2056,2037
2052,2053,2054,2055,2045,2037,2056,2041
2054,2055,2058,2062,2037,2039,2068,2040
2051,2061,2057,2060,2042,2043,2064,2028
2054,2052,2050,2062,2045,2044,2060,2022
2044,2036,2043,2053,2049,2050,2066,2020
2043,2042,2046,2063,2054,2055,2074,2027
2049,2051,2044,2064,2052,2061,2072,2029
2051,2048,2038,2062,2063,2067,2068,2038
2052,2047,2045,2062,2065,2060,2066,2033
2051,2052,2044,2068,2059,2051,2070,2043
2042,2049,2046,2067,2060,2043,2062,2041
2042,2046,2045,2056,2059,2040,2068,2044
2038,2045,2044,2050,2059,2038,2050,2044
2044,2034,2038,2053,2036,2037,2051,2042
2040,2032,2035,2049,2028,2040,2052,2049
2046,2034,2033,2042,2045,2048,2048,2049
2041,2031,2035,2042,2054,2051,2055,2052
2040,2030,2031,2045,2056,2047,2049,2059
2040,2025,2022,2044,2053,2052,2041,2057
2036,2023,2024,2046,2045,2046,2028,2052
2029,2020,2019,2050,2050,2046,2038,2051
2032,2018,2022,2054,2051,2055,2046,2054
2043,2025,2024,2049,2050,2056,2059,2053
2042,2023,2019,2048,2043,2046,2023,2048
2039,2022,2011,2046,2031,2041,2014,2045
2036,2020,2005,2038,2029,2044,2026,2040
2037,2024,2018,2038,2025,2038,2019,2037
2038,2034,2029,2047,2027,2037,2032,2026
2042,2051,2057,2057,2018,2030,2044,2032
2043,2060,2070,2060,2000,2020,2026,2035
2052,2067,2074,2062,1997,2020,2039,2034
2057,2061,2074,2047,1982,2013,2017,2030
2049,2046,2054,2024,1981,2015,2028,2026
2047,2046,2060,2031,2020,2040,2042,2033
2058,2067,2080,2048,2066,2061,2056,2033
2058,2078,2088,2054,2085,2064,2043,2034
2054,2072,2074,2054,2100,2077,2060,2039
2042,2064,2064,2053,2083,2066,2062,2046
2052,2061,2064,2048,2060,2045,2063,2043
2055,2065,2061,2043,2043,2033,2043,2041
2054,2059,2058,2043,2033,2028,2037,2049
2052,2056,2057,2048,2037,2018,2054,2046
2050,2052,2054,2033,2032,2032,2035,2045
2050,2060,2057,2050,2059,2049,2054,2049
2054,2056,2063,2061,2068,2057,2063,2046
2049,2056,2057,2062,2066,2063,2065,2047
2052,2057,2060,2059,2056,2058,2054,2053
2046,2053,2058,2055,2069,2057,2045,2058
2044,2053,2058,2051,2064,2061,2032,2058
2047,2054,2053,2055,2055,2057,2051,2060
2047,2049,2049,2047,2052,2055,2037,2065
2039,2051,2044,2052,2049,2050,2044,2056
2040,2041,2036,2047,2046,2052,2049,2053
2042,2044,2042,2054,2047,2050,2043,2065
2046,2049,2046,2064,2042,2058,2041,2056
2043,2046,2050,2062,2047,2060,2030,2060
2046,2049,2046,2066,2054,2060,2020,2052
2047,2049,2047,2066,2052,2057,2028,2046
2047,2048,2045,2071,2055,2060,2039,2035
2048,2046,2047,2077,2055,2056,2047,2041
2051,2047,2044,2078,2058,2063,2041,2035
2053,2045,2036,2073,2063,2077,2059,2032
2048,2039,2030,2066,2068,2080,2042,2024
2047,2038,2025,2062,2069,2085,2054,2020
2051,2036,2022,2062,2055,2083,2057,2025
2036,2027,2015,2056,2053,2084,2032,2022
2040,2036,2016,2048,2050,2080,2024,2027
2042,2025,2004,2030,2039,2065,2012,2016
2036,2018,1993,2018,2035,2059,2038,2018
2028,2016,2001,2021,2052,2064,2058,2026
2040,2036,2031,2036,2052,2055,2023,2024
2042,2043,2041,2042,2041,2047,2048,2028
2042,2043,2036,2029,2043,2029,2053,2033
2040,2042,2029,2014,2032,2010,2056,2036
2042,2035,2039,2015,2039,2003,2053,2032
2041,2043,2054,2019,2038,1997,2037,2040
2048,2055,2073,2025,2034,2007,2030,2039
2051,2060,2077,2018,2030,2018,2027,2042
2054,2053,2074,2030,2029,2026,2016,2051
2052,2047,2067,2030,2037,2041,2034,2050
2062,2056,2060,2039,2043,2051,2051,2062
2059,2050,2062,2042,2050,2056,2063,2056
2062,2053,2062,2040,2038,2049,2032,2057
2062,2046,2051,2034,2032,2040,2038,2049
2043,2031,2041,2023,2022,2029,2036,2045
2033,2023,2035,2021,2019,2028,2035,2047
2039,2046,2045,2034,2025,2033,2038,2052
2044,2052,2048,2040,2041,2037,2043,2052
2044,2061,2052,2042,2039,2043,2017,2053
2055,2060,2052,2044,2044,2044,2043,2049
2054,2055,2047,2041,2042,2047,2062,2046
2053,2048,2039,2041,2039,2048,2058,2037
2055,2050,2039,2046,2045,2043,2055,2034
2049,2053,2041,2042,2043,2043,2053,2037
2057,2048,2038,2049,2046,2044,2060,2040
2058,2049,2038,2054,2044,2048,2042,2040
2062,2047,2038,2051,2046,2040,2050,2037
2056,2055,2038,2054,2048,2045,2060,2033
2053,2048,2039,2055,2043,2040,2057,2037
2056,2048,2051,2050,2050,2042,2051,2034
2044,2041,2049,2030,2033,2034,2038,2029
2043,2043,2058,2025,2028,2037,2056,2032
2054,2046,2057,2031,2041,2045,2054,2036
2053,2049,2053,2040,2042,2044,2061,2039
2059,2045,2049,2034,2025,2045,2044,2041
2052,2043,2040,2030,2029,2048,2067,2038
2055,2046,2042,2041,2033,2046,2055,2045
2053,2050,2039,2039,2029,2041,2064,2044
2053,2041,2038,2040,2023,2046,2059,2043
2052,2043,2030,2037,2022,2049,2049,2047
2048,2042,2029,2041,2017,2044,2047,2050
2048,2043,2027,2036,2004,2033,2029,2056
2044,2028,2032,2034,2011,2030,2043,2059
2044,2030,2027,2034,2026,2040,2048,2060
2045,2032,2025,2036,2033,2041,2048,2053
2041,2028,2014,2042,2050,2041,2036,2052
2035,2024,2012,2036,2042,2051,2027,2051
2033,2026,2034,2044,2030,2055,2046,2055
2045,2062,2068,2056,2034,2063,2053,2062
2052,2072,2073,2060,2035,2070,2047,2064
2052,2061,2078,2061,2046,2065,2062,2062
2050,2056,2071,2060,2056,2049,2035,2066
2052,2059,2064,2057,2063,2059,2061,2064
2052,2052,2062,2045,2055,2072,2061,2055
2046,2052,2071,2047,2056,2076,2062,2047
2050,2056,2075,2063,2044,2078,2053,2052
2054,2061,2085,2060,2042,2067,2064,2043
2049,2058,2078,2041,2029,2058,2055,2042
2048,2054,2070,2045,2064,2066,2044,2040
2053,2054,2071,2058,2098,2053,2046,2044
2050,2054,2077,2057,2107,2032,2028,2035
2044,2050,2076,2065,2112,2024,2039,2038
2048,2042,2065,2064,2131,2028,2034,2030
2042,2032,2052,2061,2128,2021,2035,2033
2041,2044,2060,2068,2126,2029,2053,2044
2049,2047,2054,2081,2132,2029,2062,2044
2052,2048,2056,2078,2126,2039,2052,2044
2045,2044,2053,2058,2077,2023,2054,2036
2046,2037,2042,2049,2056,2023,2047,2045
2052,2039,2045,2052,2047,2032,2027,2051
2048,2049,2052,2058,2016,2031,2041,2050
2049,2044,2045,2056,1948,2024,2047,2056
2035,2041,2036,2047,1885,2016,2037,2060
2040,2043,2035,2048,1928,2021,2040,2065
2049,2036,2050,2062,1970,2026,2047,2064
2053,2045,2065,2064,1994,2020,2036,2068
2050,2046,2060,2065,1997,2020,2040,2064
2034,2032,2051,2051,1996,2020,2025,2059
2026,2022,2041,2042,1990,2018,2006,2055
2020,2017,2041,2026,1987,2032,2029,2060
2024,2031,2054,2026,1990,2049,2029,2064
2037,2043,2060,2033,2004,2054,2039,2064
2047,2054,2058,2034,2042,2066,2054,2060
2063,2055,2047,2040,2052,2068,2058,2060
2056,2050,2040,2055,2075,2051,2055,2057
2047,2052,2051,2059,2085,2052,2044,2056
2046,2048,2037,2041,2067,2053,2057,2041
2042,2034,2018,2030,2050,2055,2051,2031
2032,2028,2017,2010,2012,2062,2037,2025
2031,2016,2019,2010,2005,2054,2034,2022
2027,2020,2007,2007,2004,2044,2043,2022
2031,2019,1992,2004,1981,2025,2049,2024
2032,2017,1977,2003,1965,1990,2021,2018
2026,2021,1981,2003,1972,1978,2038,2020
2032,2028,2001,2039,2020,1990,2051,2030
2044,2039,2029,2080,2068,2013,2069,2034
2054,2047,2052,2081,2074,2038,2065,2032
2056,2054,2051,2082,2098,2069,2085,2039
2062,2050,2051,2090,2128,2091,2086,2042
2056,2045,2046,2085,2169,2100,2075,2046
2048,2042,2042,2078,2186,2105,2075,2043
2051,2039,2043,2066,2155,2094,2087,2046
2055,2048,2066,2064,2119,2066,2078,2056
2054,2042,2075,2046,2072,2052,2069,2061
2051,2045,2072,2035,2023,2034,2047,2060
2055,2050,2071,2033,2032,2033,2053,2060
2047,2042,2068,2028,2054,2047,2055,2058
2045,2036,2067,2030,2054,2050,2038,2062
2049,2037,2060,2022,2054,2047,2053,2064
2039,2030,2048,2020,2043,2034,2039,2060
2034,2034,2042,2016,2018,2017,2041,2062
2036,2031,2033,2016,2004,2013,2044,2068
2041,2036,2035,2025,1989,2013,2042,2070
2048,2049,2050,2036,1991,2023,2041,2064
2051,2067,2074,2051,2015,2029,2043,2060
2054,2069,2077,2067,2024,2039,2055,2062
2049,2068,2068,2064,2020,2044,2061,2047
2047,2064,2051,2049,2014,2039,2056,2051
2045,2057,2051,2038,2004,2035,2047,2049
2053,2063,2054,2037,2015,2043,2061,2047
2052,2060,2047,2047,2017,2070,2036,2046
2044,2053,2038,2045,2017,2105,2046,2034
2043,2052,2038,2050,2037,2129,2050,2039
2040,2053,2039,2056,2058,2143,2068,2033
2050,2055,2033,2062,2060,2134,2069,2037
2044,2048,2033,2060,2062,2077,2057,2038
2041,2044,2038,2060,2075,1970,2038,2041
2047,2050,2039,2058,2106,1978,2051,2038
2049,2053,2042,2061,2122,2027,2081,2040
2049,2050,2036,2050,2100,2042,2054,2037
2056,2044,2026,2041,2117,2047,2058,2044
2055,2045,2020,2038,2150,2051,2052,2051
2053,2047,2022,2023,2077,2032,2054,2045
2052,2044,2022,1995,1957,2021,2060,2045
2046,2046,2023,2011,1998,2035,2061,2044
2048,2044,2029,2037,2103,2058,2061,2055
2050,2047,2037,2049,2136,2065,2024,2065
2045,2049,2029,2054,2148,2060,2064,2063
2045,2041,2027,2045,2137,2052,2038,2061
2040,2040,2023,2046,2136,2055,2020,2062
2038,2040,2039,2051,2126,2043,2041,2069
2049,2049,2068,2053,2099,2027,2018,2067
2044,2047,2072,2048,2038,2004,2036,2066
2042,2048,2068,2033,1976,1996,2043,2061
2042,2056,2049,2046,2007,2006,2051,2061
2052,2048,2027,2042,1948,2007,2045,2049
2037,2038,1998,2018,1884,2008,2038,2038
2037,2034,2001,2039,1933,2027,2045,2037
2029,2027,2012,2044,1951,2041,2038,2030
2029,2026,2027,2052,1960,2044,2039,2026
2032,2035,2046,2063,1990,2048,2029,2023
2034,2037,2052,2070,2012,2049,2045,2018
2028,2035,2042,2065,2012,2049,2057,2020
2034,2035,2049,2070,2018,2034,2069,2033
2039,2040,2051,2070,2047,2057,2079,2027
2046,2042,2054,2067,2054,2086,2080,2026
2044,2041,2060,2069,2062,2107,2086,2027
2042,2036,2053,2066,2065,2122,2094,2027
2036,2028,2049,2068,2059,2117,2073,2029
2043,2037,2052,2066,2041,2084,2068,2030
2054,2046,2072,2075,2038,2072,2046,2031
2056,2057,2081,2075,2009,2085,2067,2034
2056,2051,2080,2073,2025,2080,2050,2036
2048,2055,2053,2054,2039,2066,2064,2037
2044,2049,2054,2046,2051,2076,2053,2041
2049,2056,2065,2056,2097,2071,2061,2047
2042,2045,2062,2043,2145,2051,2054,2044
2036,2030,2048,2030,2175,2027,2067,2043
2032,2028,2039,2023,2130,2018,2062,2053
2036,2045,2057,2040,2089,2042,2081,2072
2062,2068,2079,2077,2068,2067,2081,2088
2074,2078,2074,2067,2030,2065,2080,2083
2069,2063,2047,2053,2005,2055,2064,2079
2060,2055,2034,2031,1972,2042,2061,2072
2043,2036,2019,2009,1931,2037,2048,2058
2033,2030,2020,1988,1924,2029,2021,2050
2042,2044,2023,1979,1962,2026,2042,2047
2039,2045,2016,1979,1999,2023,2041,2049
2040,2037,2013,1979,2012,2003,2035,2054
2043,2044,2006,1987,2042,1977,2031,2053
2043,2045,2014,2008,2071,1994,2063,2041
2040,2043,2026,2018,2086,2026,2054,2040
2041,2047,2042,2030,2099,2039,2064,2043
2045,2055,2058,2032,2084,2034,2050,2034
2044,2056,2064,2040,2072,2028,2035,2036
2043,2061,2072,2048,2064,2024,2047,2032
2046,2064,2087,2056,2057,2028,2038,2040
2047,2061,2095,2059,2064,2042,2041,2037
2056,2061,2084,2055,2051,2050,2044,2037
2056,2070,2087,2052,2005,2038,2032,2041
2053,2061,2077,2049,1948,2021,2013,2038
2044,2059,2063,2041,1903,2000,2041,2043
2050,2065,2055,2044,1922,1991,2055,2050
2051,2060,2028,2021,1930,2015,2058,2051
2059,2062,2030,2042,1983,2053,2088,2054
2062,2075,2031,2061,2019,2059,2085,2060
2058,2060,2024,2052,1995,2056,2070,2062
2056,2056,2016,2048,1994,2057,2077,2063
2053,2061,2025,2049,2021,2057,2067,2065
2060,2057,2039,2050,2070,2048,2068,2067
2056,2058,2035,2039,2111,2038,2058,2062
2049,2045,2021,2030,2144,2037,2053,2060
2050,2044,2019,2027,2224,2042,2060,2062
2047,2038,2014,2024,2219,2049,2043,2071
2047,2034,2013,2018,2143,2059,2033,2069
2046,2038,2036,2036,2136,2077,2052,2072
2048,2039,2065,2063,2175,2076,2052,2077
2049,2053,2079,2054,2114,2071,2051,2081
2049,2056,2087,2038,2040,2066,2062,2071
2049,2043,2065,2031,2014,2062,2057,2076
2044,2048,2056,2029,1998,2056,2068,2065
2053,2054,2074,2024,1954,2040,2057,2067
2058,2066,2082,2015,1912,2018,2056,2061
2060,2068,2077,2026,1966,2014,2057,2050
2056,2062,2075,2029,1960,2017,2054,2040
2054,2064,2078,2054,2007,2017,2053,2022
2054,2053,2063,2057,2025,2028,2031,2020
2042,2035,2052,2062,2124,2075,2051,2027
2044,2037,2051,2070,2148,2083,2055,2026
2041,2038,2053,2067,2148,2081,2061,2030
2053,2052,2065,2088,2163,2080,2058,2036
2062,2056,2068,2081,2153,2090,2062,2031
2049,2037,2047,2069,2134,2084,2067,2036
2050,2046,2048,2079,2133,2084,2062,2036
2057,2053,2049,2076,2068,2059,2066,2036
2052,2039,2038,2051,1923,2004,2045,2028
2044,2036,2021,2017,1853,1959,2020,2022
2041,2029,2016,2004,1879,1967,2020,2025
2038,2037,2025,2034,1964,2016,2040,2025
2046,2048,2054,2064,2064,2053,2064,2033
2045,2061,2065,2068,2123,2075,2062,2035
2036,2055,2056,2062,2149,2090,2058,2043
2032,2044,2048,2056,2179,2087,2064,2049
2034,2041,2040,2046,2175,2075,2063,2048
2041,2044,2043,2025,2100,2055,2043,2055
2042,2040,2033,2021,2059,2056,2054,2063
2046,2040,2038,2030,2036,2056,2051,2074
2045,2042,2034,2030,2016,2047,2063,2073
2043,2038,2028,2035,1999,2030,2057,2066
2033,2030,2037,2050,2013,2027,2047,2064
2043,2047,2062,2065,2031,2040,2056,2063
2045,2054,2073,2079,2036,2040,2046,2061
2047,2065,2082,2081,2036,2035,2051,2052
2055,2067,2080,2077,2066,2031,2048,2055
2047,2067,2079,2092,2099,2050,2056,2050
2051,2065,2075,2088,2096,2055,2049,2046
2056,2065,2065,2090,2080,2058,2027,2045
2053,2063,2063,2080,2070,2063,2056,2040
2056,2065,2058,2081,2056,2063,2032,2048
2056,2067,2055,2078,2037,2066,2056,2053
2057,2067,2054,2077,2013,2062,2041,2051
2056,2066,2050,2065,1990,2057,2044,2038
2051,2062,2046,2051,1971,2050,2038,2035
2053,2055,2043,2033,1932,2048,2038,2034
2041,2050,2030,2005,1863,2037,2021,2036
2046,2045,2028,1991,1847,2024,2046,2040
2055,2053,2035,1995,1883,2013,2052,2050
2056,2061,2051,2008,1925,2012,2031,2046
2055,2056,2050,2019,1983,2017,2024,2043
2046,2050,2038,2032,2061,2043,2023,2044
2047,2044,2032,2045,2150,2062,2032,2044
2044,2046,2035,2064,2176,2059,2017,2052
2040,2050,2043,2071,2187,2062,2038,2059
2044,2053,2056,2078,2209,2074,2056,2058
2046,2051,2057,2078,2194,2073,2055,2055
2034,2037,2043,2062,2127,2042,2051,2054
2030,2026,2041,2051,2055,2034,2044,2050
2028,2028,2040,2049,2048,2042,2048,2057
2036,2035,2044,2052,2037,2049,2043,2052
2037,2038,2042,2050,2025,2039,2035,2055
2034,2030,2034,2039,2017,2029,2024,2053
2042,2028,2033,2039,2037,2033,2035,2064
2047,2045,2050,2041,2032,2040,2034,2051
2054,2054,2055,2049,2068,2042,2040,2058
2060,2058,2064,2059,2087,2044,2050,2047
2053,2053,2051,2064,2088,2048,2045,2049
2048,2041,2027,2060,2097,2049,2055,2038
2036,2033,2010,2044,2080,2045,2057,2028
2022,2035,2016,2048,2083,2044,2041,2021
2030,2041,2029,2056,2086,2055,2033,2030
2039,2054,2031,2046,2036,2065,2042,2037
2038,2053,2025,2020,1940,2048,2057,2031
2039,2049,2027,2008,1903,2048,2052,2034
2045,2048,2041,2019,1923,2058,2053,2034
2046,2054,2045,2019,1902,2039,2046,2038
2049,2052,2047,2011,1890,2003,2009,2037
2045,2036,2048,2015,1886,2004,2025,2035
2039,2039,2036,2023,1910,2004,2029,2040
2043,2047,2040,2024,1938,2020,2039,2041
2035,2044,2041,2023,1965,2034,2032,2025
2035,2045,2043,2030,2018,2051,2025,2023
2032,2046,2047,2046,2058,2062,2035,2027
2041,2055,2054,2065,2091,2075,2054,2036
2044,2059,2057,2056,2077,2067,2056,2041
2047,2058,2055,2054,2091,2034,2044,2048
2050,2052,2061,2060,2151,2024,2069,2056
2048,2056,2061,2080,2230,2047,2068,2065
2053,2053,2062,2093,2262,2080,2074,2071
2060,2054,2049,2086,2312,2126,2059,2076
2064,2054,2031,2088,2356,2174,2075,2081
2063,2060,2034,2096,2361,2208,2071,2076
2059,2059,2042,2101,2326,2223,2070,2070
2042,2043,2036,2101,2314,2216,2040,2068
2040,2031,2031,2093,2287,2203,2064,2075
2057,2049,2046,2108,2235,2136,2081,2079
2068,2063,2055,2091,2130,2064,2071,2081
2064,2066,2049,2050,1911,1996,2058,2072
2060,2051,2028,2000,1746,1922,2010,2044
2038,2027,2011,1959,1605,1887,1991,2041
2042,2020,2018,2017,1794,1935,2013,2038
2052,2029,2045,2071,1934,1963,2021,2037
2061,2045,2060,2086,1987,1988,2027,2038
2059,2044,2061,2070,1996,2000,2008,2035
2059,2041,2059,2050,2006,2006,2001,2026
2049,2047,2060,2033,1987,2024,2003,2013
2043,2059,2068,2012,1952,2043,2041,2013
2045,2061,2064,1998,1931,2061,2046,2018
2052,2058,2042,2002,1926,2069,2043,2017
2050,2045,2030,2007,1949,2063,2047,2026
2044,2045,2025,2027,1956,2039,2055,2048
2053,2045,2031,2052,1972,2036,2055,2039
2051,2040,2034,2064,2027,2030,2047,2033
2046,2036,2031,2061,2066,2024,2030,2034
2052,2030,2033,2057,2110,2016,2039,2037
2040,2028,2024,2044,2083,1984,1999,2038
2041,2036,2033,2039,1971,1952,2024,2038
2043,2039,2053,2061,1976,1957,2013,2037
2040,2031,2057,2067,2043,1984,2008,2037
2037,2024,2053,2047,2064,2016,2000,2042
2039,2026,2059,2056,2093,2040,2017,2051
2034,2026,2070,2072,2123,2035,2034,2054
2042,2036,2076,2065,2115,2013,2026,2046
2047,2042,2077,2073,2119,2026,2022,2041
2050,2050,2077,2090,2160,2043,2017,2038
2035,2039,2063,2092,2213,2072,2043,2058
2038,2034,2063,2108,2252,2105,2059,2059
2042,2044,2062,2093,2243,2105,2058,2059
2039,2042,2057,2071,2176,2098,2043,2053
2034,2047,2054,2052,2075,2090,2059,2051
2039,2051,2056,2032,2039,2072,2059,2052
2049,2053,2051,1999,1922,2042,2046,2044
2058,2054,2052,2007,1925,2044,2045,2054
2070,2066,2075,2053,1983,2062,2062,2055
2080,2070,2091,2079,2011,2066,2051,2048
2073,2061,2085,2076,2000,2052,2052,2050
2068,2054,2085,2066,1980,2035,2049,2047
2064,2061,2084,2064,1973,2014,2055,2037
2065,2061,2097,2068,1979,2017,2046,2037
2063,2065,2096,2080,1973,2017,2070,2037
2065,2062,2098,2076,1968,2006,2057,2031
2055,2043,2087,2060,1989,2004,2029,2023
2041,2044,2080,2055,2071,2024,2016,2021
2053,2049,2070,2048,2065,2019,2037,2029
2056,2055,2064,2051,2049,2037,2041,2032
2064,2061,2072,2080,2095,2068,2037,2045
2063,2071,2074,2093,2160,2100,2049,2053
2069,2066,2069,2100,2237,2132,2082,2059
2065,2073,2062,2109,2323,2160,2069,2068
2070,2069,2053,2107,2301,2188,2088,2066
2061,2057,2032,2089,2247,2208,2070,2072
2060,2055,2028,2068,2139,2214,2058,2068
2060,2046,2031,2051,2098,2196,2069,2058
2050,2037,2029,2034,2072,2143,2051,2057
2040,2029,2020,1996,1946,2016,2004,2047
2028,2016,2000,1947,1824,1897,2003,2054
2028,2011,1999,1941,1803,1900,2008,2051
2028,2011,2004,1992,1826,1969,2026,2053
2040,2029,2025,2012,1832,1985,2022,2056
2051,2040,2036,2006,1888,1989,2033,2039
2048,2041,2034,2014,1953,1989,2015,2035
2043,2035,2026,1996,1915,1974,2012,2037
2046,2032,2032,2001,1929,1977,2013,2036
2048,2033,2038,2023,1954,1993,2011,2028
2049,2042,2042,2031,1981,2016,2022,2035
2065,2054,2065,2063,2039,2050,2053,2037
2066,2056,2059,2060,2071,2070,2063,2042
2054,2032,2037,2056,2094,2090,2048,2029
2039,2018,2032,2034,2031,2084,2041,2025
2041,2028,2032,2024,1985,2067,2046,2023
2039,2031,2028,2018,1963,2054,2035,2017
2034,2028,2026,2007,1963,2042,2034,2018
2038,2041,2041,2039,2038,2028,2042,2028
2047,2046,2052,2090,2170,2041,2044,2019
2036,2043,2053,2101,2230,2070,2044,2021
2040,2055,2060,2107,2241,2091,2064,2032
2040,2053,2065,2103,2222,2091,2059,2024
2041,2049,2059,2080,2184,2062,2045,2028
2034,2039,2049,2055,2063,2027,2045,2027
2049,2043,2048,2044,2019,2014,2028,2040
2053,2044,2056,2052,2024,2014,2033,2046
2060,2055,2054,2046,2038,2035,2038,2050
2061,2050,2055,2052,2066,2050,2044,2059
2058,2059,2051,2063,2081,2054,2045,2066
2060,2055,2043,2058,2086,2060,2020,2055
2053,2044,2035,2056,2093,2068,2044,2062
2052,2040,2029,2056,2098,2076,2041,2059
2044,2041,2026,2049,2084,2074,2026,2050
2040,2033,2013,2039,2043,2018,2019,2037
2033,2032,2010,2035,1992,1988,2018,2053
2052,2037,2026,2047,2008,2002,2027,2055
2048,2043,2024,2049,2027,2028,2037,2060
2047,2048,2030,2054,2041,2046,2050,2051
2048,2050,2033,2048,2045,2053,2052,2057
2054,2049,2032,2052,2048,2051,2044,2047
2056,2045,2036,2050,2044,2053,2045,2039
2053,2044,2031,2050,2043,2053,2049,2037
2048,2039,2028,2049,2053,2051,2055,2038
2048,2037,2026,2052,2043,2050,2044,2035
2049,2036,2044,2047,2038,2052,2042,2031
2041,2044,2060,2049,2040,2052,2045,2025
2037,2044,2067,2050,2038,2052,2042,2030
2039,2038,2068,2046,2043,2048,2042,2024
2040,2038,2066,2041,2039,2057,2036,2023
2043,2036,2060,2032,2033,2043,2018,2020
2036,2033,2062,2036,2042,2047,2029,2021
2046,2043,2060,2043,2057,2062,2035,2037
2054,2052,2061,2051,2060,2060,2048,2038
2051,2056,2056,2049,2059,2063,2041,2030
2046,2046,2054,2047,2060,2061,2050,2032
2049,2045,2056,2053,2066,2057,2036,2032
2045,2041,2062,2054,2065,2057,2042,2040
2049,2044,2049,2052,2059,2055,2046,2038
2049,2045,2054,2058,2061,2052,2037,2044
2048,2041,2056,2051,2061,2047,2049,2040
2047,2039,2049,2045,2053,2042,2036,2044
2041,2026,2035,2040,2042,2036,2033,2043
2035,2024,2029,2037,2041,2037,2030,2048
2039,2018,2027,2033,2038,2045,2024,2047
2029,2030,2033,2045,2044,2050,2039,2049
2034,2033,2034,2039,2044,2048,2043,2053
2039,2030,2038,2048,2043,2052,2047,2053
2039,2030,2038,2045,2042,2047,2044,2056
2045,2034,2025,2037,2048,2039,2053,2053
2051,2039,2028,2037,2042,2045,2046,2051
2048,2035,2027,2037,2045,2040,2044,2058
2046,2044,2038,2040,2042,2030,2032,2044
2046,2053,2051,2039,2037,2024,2023,2040
2045,2047,2050,2042,2035,2034,2029,2032
2047,2046,2060,2038,2033,2044,2034,2025
2046,2047,2068,2039,2040,2052,2046,2032
2061,2055,2065,2045,2062,2052,2058,2032
2054,2047,2066,2056,2070,2059,2045,2034
2057,2043,2057,2051,2055,2048,2053,2033
2059,2039,2048,2042,2037,2044,2053,2028
2047,2037,2048,2041,2040,2052,2048,2030
2042,2033,2055,2040,2012,2064,2048,2026
2049,2043,2061,2047,2057,2066,2051,2029
2053,2048,2067,2058,2077,2078,2041,2028
2049,2044,2064,2059,2069,2079,2031,2032
2054,2034,2054,2053,2043,2067,2038,2034
2046,2020,2035,2048,2013,2058,2032,2030
2039,2013,2019,2050,2020,2061,2046,2034
2040,2015,2001,2057,2017,2059,2049,2038
2042,2015,1991,2054,2010,2045,2047,2036
2044,2013,2000,2067,2031,2043,2039,2046
2040,2012,2000,2071,2042,2041,2041,2044
2037,2009,1995,2065,2040,2031,2046,2041
2033,2004,1990,2064,2046,2022,2043,2049
2029,2005,1993,2076,2078,2033,2031,2055
2039,2012,2000,2083,2085,2047,2031,2059
2046,2017,1996,2070,2067,2057,2041,2054
2041,2016,1980,2051,2042,2050,2031,2060
2039,2009,1964,2027,2008,2047,2040,2060
2042,2009,1981,2022,1995,2050,2035,2059
2039,2012,1983,2002,1973,2037,2046,2052
2034,2021,2011,1990,1962,2036,2049,2060
2050,2047,2042,1999,1973,2033,2033,2050
2063,2062,2076,2008,1993,2018,2037,2043
2058,2068,2096,2017,2039,2018,2043,2045
2057,2073,2103,2040,2064,2029,2042,2048
2064,2079,2105,2036,2064,2038,2066,2037
2060,2072,2101,2032,2022,2022,2032,2037
2056,2074,2104,2029,2019,2030,2041,2036
2061,2072,2112,2035,2034,2021,2050,2030
2055,2069,2118,2027,2040,2011,2041,2028
2051,2058,2117,2039,2088,2026,2037,2023
2043,2059,2125,2057,2155,2047,2049,2018
2044,2055,2115,2064,2180,2047,2039,2027
2049,2052,2105,2075,2162,2052,2056,2034
2057,2060,2103,2078,2149,2057,2050,2035
2060,2059,2092,2060,2102,2052,2071,2035
2054,2058,2081,2039,1996,2042,2059,2039
2056,2060,2079,2035,2016,2040,2052,2035
2053,2054,2073,2040,2100,2044,2048,2032
2058,2056,2079,2053,2125,2055,2069,2041
2050,2061,2089,2064,2115,2059,2085,2048
2064,2060,2095,2071,2104,2065,2085,2052
2067,2062,2090,2060,2103,2064,2074,2059
2068,2058,2088,2056,2096,2062,2051,2057
2061,2060,2085,2048,2063,2055,2045,2064
2062,2054,2080,2046,2038,2049,2050,2067
2051,2052,2069,2036,2024,2034,2037,2068
2056,2050,2066,2037,2007,2030,2038,2063
2042,2043,2060,2038,2023,2035,2038,2058
2043,2042,2060,2042,2021,2046,2045,2058
2046,2044,2064,2046,2041,2042,2047,2064
2051,2055,2061,2044,2045,2041,2041,2059
2051,2051,2062,2042,2032,2047,2039,2053
2047,2051,2058,2048,2040,2051,2046,2047
2056,2051,2064,2057,2043,2048,2041,2044
2049,2039,2065,2057,2014,2069,2037,2031
2049,2035,2062,2049,1973,2077,2040,2021
2047,2028,2046,2044,1950,2075,2036,2013
2040,2018,2028,2036,1932,2065,2027,2006
2038,2006,2018,2029,1935,2019,2008,2007
2035,2011,2015,2050,2008,1967,2032,2023
2034,2018,2017,2076,2118,1994,2050,2034
2039,2034,2025,2096,2176,2041,2062,2037
2051,2036,2024,2097,2182,2078,2066,2039
2057,2029,2005,2086,2158,2079,2050,2028
2050,2026,2011,2090,2127,2064,2042,2026
2063,2037,2028,2088,2101,2052,2037,2030
2064,2033,2024,2059,2075,2027,2039,2030
2048,2033,2032,2043,2057,2026,2033,2035
2044,2035,2044,2027,2042,2024,2017,2029
2050,2042,2042,2011,2007,2029,2034,2035
2048,2054,2058,2016,1979,2039,2042,2049
2060,2067,2070,2032,2009,2039,2049,2052
2058,2072,2071,2035,2026,2040,2049,2054
2060,2066,2070,2027,2017,2034,2040,2057
2060,2056,2076,2025,2017,2039,2054,2052
2050,2054,2068,2031,2033,2057,2055,2047
2054,2052,2073,2042,2071,2076,2067,2049
2052,2056,2070,2047,2121,2080,2047,2054
2052,2052,2055,2046,2155,2070,2040,2056
2051,2044,2044,2047,2164,2034,2038,2058
2050,2042,2045,2056,2191,2040,2064,2073
2057,2054,2059,2061,2187,2061,2073,2076
2057,2056,2055,2058,2152,2059,2059,2073
2047,2039,2048,2049,2103,2052,2062,2057
2046,2039,2042,2049,2055,2047,2050,2056
2038,2041,2045,2053,1944,2039,2050,2047
2044,2044,2043,2039,1883,2029,2045,2046
2045,2054,2045,2051,1929,2020,2036,2040
2044,2047,2045,2052,1963,2010,2024,2033
2040,2047,2048,2057,1985,2004,2027,2029
2048,2046,2062,2070,2034,2037,2035,2032
2052,2057,2072,2068,2063,2063,2056,2032
2050,2054,2078,2055,2039,2068,2053,2041
2057,2054,2077,2031,2034,2066,2055,2035
2059,2056,2075,2025,2030,2056,2028,2034
2051,2051,2072,2038,2026,2008,2022,2041
2057,2054,2073,2049,2022,1990,2012,2044
2058,2059,2074,2059,2034,2005,2030,2036
2061,2055,2071,2059,2036,2027,2043,2034
2060,2052,2059,2059,2050,2055,2043,2034
2053,2036,2061,2063,2068,2070,2054,2032
2051,2041,2062,2063,2063,2071,2075,2042
2049,2046,2061,2062,2066,2068,2041,2046
2054,2044,2063,2068,2069,2066,2066,2047
2054,2046,2056,2067,2088,2066,2050,2053
2054,2042,2049,2065,2078,2059,2051,2053
2055,2036,2035,2061,2060,2050,2045,2049
2045,2033,2026,2054,2048,2045,2040,2053
2043,2029,2029,2060,2073,2042,2031,2057
2041,2035,2038,2070,2094,2040,2033,2058
2041,2041,2041,2074,2084,2036,2035,2065
2038,2038,2040,2062,2075,2023,2029,2071
2036,2032,2037,2055,2059,2033,2040,2063
2037,2036,2027,2036,2038,2031,2037,2058
2037,2024,2009,2021,2018,2022,2034,2057
2032,2019,2008,2014,1992,2012,2047,2041
2030,2014,2003,2003,1974,1998,2042,2051
2028,2008,1993,1988,1973,1985,2038,2046
2025,2008,1984,1980,1982,1994,2048,2036
2035,2022,2014,2010,2029,2033,2049,2033
2042,2042,2042,2044,2075,2059,2059,2044
2054,2063,2067,2061,2102,2083,2062,2045
2059,2071,2074,2064,2116,2099,2052,2047
2060,2066,2068,2059,2096,2088,2059,2042
2053,2060,2058,2053,2070,2080,2066,2034
2047,2050,2045,2036,2039,2073,2078,2037
2046,2045,2044,2037,2033,2067,2087,2036
2038,2042,2038,2035,2039,2061,2067,2031
2035,2040,2043,2037,2047,2052,2067,2036
2042,2044,2046,2046,2047,2054,2074,2041
2046,2041,2049,2046,2054,2050,2067,2053
2049,2052,2056,2062,2085,2060,2079,2055
2050,2050,2059,2065,2099,2066,2072,2051
2043,2045,2064,2071,2132,2075,2043,2047
2037,2050,2059,2062,2150,2107,2051,2035
2035,2040,2055,2062,2128,2118,2054,2036
2030,2036,2048,2062,2140,2117,2052,2039
2028,2043,2051,2064,2107,2092,2042,2047
2034,2048,2066,2071,2077,2058,2041,2059
2045,2054,2064,2055,2013,1979,2048,2061
2038,2040,2047,2020,1988,1967,2022,2060
2042,2046,2052,2043,2019,1992,2045,2075
2053,2053,2073,2068,2003,2036,2056,2078
2050,2050,2070,2070,2030,2061,2071,2068
2039,2040,2065,2061,2053,2076,2069,2068
2047,2048,2061,2051,1979,2060,2052,2067
2045,2042,2050,2035,1964,2043,2051,2066
2050,2052,2056,2052,2034,2063,2044,2064
2050,2047,2055,2062,2084,2070,2050,2061
2055,2049,2054,2070,2141,2064,2064,2048
2051,2048,2048,2061,2134,2047,2064,2043
2046,2044,2036,2044,2060,2017,2037,2038
2044,2037,2039,2048,2005,2018,2033,2031
2047,2033,2035,2047,1998,2021,2016,2029
2037,2032,2031,2047,2010,2030,2038,2034
2041,2037,2034,2048,2037,2035,2038,2037
2048,2043,2043,2049,2048,2041,2058,2034
2050,2047,2047,2047,2042,2039,2036,2033
2044,2051,2047,2037,2038,2033,2027,2019
2043,2045,2044,2034,2044,2027,2023,2021
2037,2044,2038,2041,2060,2033,2024,2029
2050,2053,2046,2059,2064,2043,2060,2038
2051,2053,2047,2062,2066,2036,2039,2040
2038,2053,2047,2057,2050,2030,2044,2034
2044,2050,2035,2054,2037,2026,2041,2026
2040,2040,2033,2052,2065,2038,2053,2038
2045,2045,2033,2061,2085,2072,2041,2043
2044,2040,2032,2060,2065,2084,2033,2047
2051,2043,2033,2058,2058,2096,2046,2045
2047,2037,2028,2060,2063,2108,2052,2043
2046,2040,2022,2061,2083,2117,2066,2043
2045,2031,2014,2057,2082,2099,2056,2058
2040,2030,2021,2052,2070,2081,2061,2057
2045,2028,2020,2056,2060,2073,2064,2056
2043,2023,2010,2044,2043,2061,2052,2057
2041,2012,1992,2035,2023,2036,2046,2058
2024,2001,1989,2028,2012,2030,2049,2049
2028,2010,2006,2043,2028,2025,2040,2053
2032,2034,2037,2054,2036,2014,2061,2057
2040,2052,2063,2059,2029,2011,2042,2050
2037,2056,2070,2067,2016,2017,2045,2051
2038,2050,2061,2062,2018,2038,2039,2043
2041,2047,2060,2048,2035,2069,2051,2048
2050,2051,2058,2043,2035,2078,2047,2040
2055,2043,2063,2036,2028,2054,2021,2039
2053,2039,2064,2033,2042,2006,2025,2036
2050,2036,2068,2041,2050,1994,2027,2039
2050,2047,2080,2043,2041,1998,2024,2041
2065,2058,2090,2051,2025,2009,2007,2043
2065,2071,2101,2056,2021,2018,2008,2036
2067,2078,2104,2064,2030,2023,2019,2046
2069,2073,2087,2060,2037,2024,2038,2040
2066,2063,2070,2057,2043,2023,2030,2038
2056,2064,2072,2052,2052,2030,2065,2040
2054,2062,2065,2052,2052,2029,2055,2040
2060,2056,2056,2043,2050,2029,2054,2039
2059,2067,2053,2036,2062,2036,2041,2045
2064,2067,2051,2037,2089,2049,2029,2049
2054,2053,2046,2048,2114,2051,2038,2040
2049,2046,2048,2060,2111,2055,2040,2047
2050,2050,2045,2074,2138,2069,2048,2054
2044,2037,2044,2069,2099,2068,2046,2057
2040,2039,2033,2052,2056,2056,2041,2055
2047,2035,2040,2050,2039,2043,2039,2058
2048,2043,2050,2043,2039,2038,2042,2066
2044,2054,2056,2050,2053,2041,2044,2068
2047,2051,2051,2060,2065,2050,2055,2070
2043,2046,2052,2042,2074,2060,2035,2068
2039,2038,2031,2042,2067,2076,2027,2064
2042,2048,2044,2040,2097,2086,2055,2059
2047,2044,2045,2036,2098,2083,2060,2050
2047,2044,2042,2028,2085,2081,2046,2048
2050,2043,2046,2029,2088,2071,2052,2053
2056,2050,2047,2032,2077,2063,2062,2052
2054,2046,2043,2038,2075,2059,2068,2044
2044,2042,2035,2028,2034,2046,2053,2036
2041,2038,2037,2026,1982,2032,2019,2026
2048,2042,2038,2016,1849,2004,2025,2017
2042,2037,2036,1991,1736,1985,2030,2023
2040,2034,2028,1992,1777,1961,2031,2029
2045,2040,2034,2010,1866,1935,2040,2035
2050,2041,2039,2030,1979,1998,2057,2033
2048,2050,2045,2047,2048,2052,2060,2036
2048,2049,2052,2057,2090,2093,2056,2034
2048,2050,2045,2058,2091,2094,2052,2042
2067,2062,2055,2058,2068,2093,2056,2045
2063,2054,2050,2051,2025,2069,2044,2043
2057,2053,2050,2043,2000,2027,2038,2053
2058,2058,2056,2045,2024,2011,2056,2058
2056,2061,2060,2054,2064,2039,2061,2050
2054,2058,2071,2063,2066,2063,2079,2054
2055,2053,2082,2059,2050,2069,2069,2050
2055,2056,2086,2064,2017,2046,2047,2044
2047,2054,2087,2053,1983,2025,2045,2044
2043,2048,2083,2045,1966,2008,2038,2048
2045,2046,2076,2046,1978,2010,2026,2048
2033,2034,2058,2039,1990,2031,2036,2050
2046,2037,2064,2058,2038,2054,2048,2063
2050,2044,2060,2066,2055,2043,2046,2063
2046,2028,2048,2058,2082,2046,2045,2052
2044,2027,2047,2059,2108,2064,2056,2051
2046,2038,2044,2062,2127,2090,2051,2053
2045,2040,2033,2054,2097,2090,2069,2051
2048,2043,2025,2054,2107,2078,2059,2062
2048,2038,2029,2065,2099,2045,2051,2061
2055,2045,2032,2051,2094,2042,2048,2059
2055,2045,2022,2042,2071,2049,2061,2051
2057,2051,2018,2030,2044,2061,2057,2054
2060,2048,2008,2017,2031,2069,2041,2045
2059,2040,2004,2014,2025,2068,2056,2041
2052,2042,2010,2013,1992,2049,2050,2039
2049,2051,2024,2023,1994,2048,2052,2030
2054,2054,2026,2033,1994,2042,2058,2035
2055,2046,2034,2032,2009,2038,2036,2032
2058,2045,2033,2030,2010,2024,2025,2024
2046,2035,2018,2017,2015,2012,2019,2021
2030,2026,2021,2027,2059,2017,2021,2029
2038,2041,2042,2057,2116,2051,2035,2036
2059,2058,2064,2087,2161,2070,2048,2040
2057,2059,2070,2085,2132,2066,2042,2040
2054,2064,2067,2066,2086,2069,2046,2038
2046,2054,2061,2044,2055,2088,2047,2031
2053,2054,2054,2031,2029,2086,2054,2035
2044,2056,2059,2028,2005,2070,2049,2036
2045,2052,2059,2030,1995,2054,2035,2039
2047,2058,2080,2040,2023,1980,2041,2060
2059,2071,2095,2068,2077,1966,2046,2069
2063,2073,2090,2088,2117,2020,2055,2077
2059,2068,2086,2084,2129,2051,2060,2071
2056,2057,2079,2083,2118,2063,2047,2066
2050,2051,2068,2086,2119,2071,2034,2060
2044,2032,2056,2080,2117,2068,2034,2060
2034,2030,2052,2086,2119,2073,2060,2064
2052,2038,2070,2095,2102,2069,2058,2068
2049,2044,2087,2098,2071,2062,2056,2066
2051,2046,2077,2095,2052,2056,2055,2060
2045,2045,2069,2079,2029,2060,2048,2054
2050,2042,2067,2071,2043,2055,2050,2051
2052,2043,2060,2062,2026,2055,2068,2041
2050,2036,2050,2048,2035,2049,2052,2029
2046,2038,2046,2042,2060,2055,2042,2023
2043,2045,2048,2045,2068,2058,2051,2019
2049,2054,2047,2052,2071,2045,2051,2019
2044,2060,2033,2041,2049,2018,2043,2021
2060,2060,2022,2029,2012,2007,2041,2032
2056,2053,2013,2020,1986,2016,2051,2040
2059,2061,2015,2014,1976,2029,2050,2030
2051,2051,2018,2015,1974,2032,2043,2028
2053,2048,2021,2018,1972,2040,2050,2033
2060,2057,2031,2016,1970,2054,2063,2039
2055,2056,2028,2018,1977,2054,2067,2036
2059,2050,2026,2024,1989,2056,2080,2041
2058,2048,2028,2033,2019,2056,2067,2037
2049,2049,2028,2033,2055,2048,2050,2043
2050,2044,2031,2032,2058,2029,2042,2044
2055,2056,2043,2037,2046,2016,2032,2046
2052,2053,2045,2049,2093,2030,2040,2045
2041,2049,2055,2051,2142,2044,2053,2044
2040,2040,2045,2056,2178,2060,2041,2042
2042,2040,2046,2055,2186,2077,2045,2049
2034,2034,2051,2070,2194,2094,2048,2058
2038,2037,2056,2082,2198,2106,2045,2061
2042,2031,2050,2085,2196,2093,2067,2059
2031,2032,2045,2085,2194,2088,2035,2053
2026,2024,2049,2074,2158,2090,2027,2045
2032,2041,2062,2071,2131,2094,2050,2054
2046,2046,2064,2043,2005,2067,2042,2051
2043,2045,2071,2003,1831,2009,2021,2048
2047,2040,2064,1998,1881,1978,2022,2046
2060,2045,2061,2017,1942,1982,2035,2049
2058,2054,2062,2024,1969,1985,2031,2041
2052,2052,2049,2015,1968,1987,2016,2028
2040,2046,2040,1996,1941,1997,2021,2023
2047,2052,2053,2031,1988,2034,2045,2029
2050,2058,2068,2050,2040,2053,2072,2041
2049,2051,2061,2043,2050,2057,2065,2036
2045,2055,2053,2038,2037,2050,2066,2039
2049,2054,2059,2035,2018,2048,2077,2034
2053,2053,2061,2032,2012,2043,2067,2034
2058,2051,2051,2028,2012,2028,2033,2030
2048,2046,2050,2020,2015,2024,2040,2034
2061,2060,2059,2041,2056,2050,2063,2033
2064,2067,2061,2051,2084,2061,2075,2043
2062,2066,2060,2066,2077,2066,2052,2039
2055,2057,2061,2082,2093,2066,2055,2037
2046,2054,2056,2078,2103,2056,2044,2032
2046,2045,2060,2072,2097,2053,2044,2041
2053,2047,2058,2060,2082,2045,2017,2037
2047,2044,2052,2040,2021,2034,2020,2043
2051,2046,2050,2035,1974,2030,2031,2044
2047,2052,2045,2033,2018,2040,2016,2045
2047,2047,2051,2032,2050,2068,2034,2053
2042,2048,2052,2040,2052,2071,2047,2056
2043,2051,2055,2042,2049,2064,2032,2061
2045,2054,2052,2044,2046,2049,2043,2063
2044,2048,2049,2039,2037,2031,2025,2062
2041,2046,2040,2035,2034,2020,2034,2059
2043,2049,2053,2039,2032,2028,2035,2056
2049,2048,2048,2049,2033,2024,2041,2054
2050,2053,2046,2049,2037,2027,2004,2049
2045,2043,2043,2047,2031,2034,2020,2053
2046,2042,2038,2041,2023,2030,2023,2048
2054,2046,2031,2043,2031,2036,2036,2042
2051,2041,2033,2050,2036,2036,2050,2040
2045,2045,2035,2044,2041,2046,2054,2031
2048,2035,2039,2047,2043,2047,2057,2035
2052,2038,2034,2041,2041,2052,2051,2029
2050,2036,2034,2053,2044,2046,2038,2019
2040,2040,2038,2055,2042,2048,2033,2021
2045,2044,2043,2051,2051,2056,2056,2025
2049,2038,2041,2049,2046,2059,2068,2019
2042,2029,2042,2045,2047,2056,2053,2014
2037,2029,2045,2048,2086,2056,2054,2021
2046,2036,2055,2053,2112,2062,2069,2020
2045,2039,2062,2058,2122,2066,2059,2022
2046,2049,2070,2068,2133,2066,2078,2031
2053,2041,2069,2064,2134,2060,2074,2028
2048,2042,2066,2057,2120,2046,2055,2028
2040,2035,2053,2042,2086,2040,2051,2032
2035,2023,2046,2024,2053,2037,2035,2030
2034,2030,2047,2026,1967,2036,2049,2038
2029,2030,2043,2013,1873,2036,2061,2039
2037,2038,2045,2017,1922,2051,2062,2055
2048,2046,2052,2029,1980,2057,2076,2064
2048,2049,2057,2034,2011,2050,2067,2070
2048,2053,2058,2038,2021,2049,2069,2066
2046,2052,2060,2041,2028,2057,2057,2067
2050,2051,2061,2042,2035,2055,2041,2065
2038,2037,2049,2037,2026,2051,2044,2065
2046,2036,2041,2036,2031,2054,2068,2069
2056,2041,2048,2040,2029,2063,2060,2064
2047,2046,2048,2038,2035,2067,2061,2055
2051,2041,2045,2034,2042,2071,2068,2061
2052,2044,2050,2039,2045,2064,2067,2055
2052,2040,2044,2038,2034,2061,2074,2060
2052,2043,2051,2040,2031,2065,2052,2055
2055,2046,2055,2044,2039,2070,2052,2056
2059,2050,2057,2044,2044,2068,2072,2047
2052,2046,2058,2045,2040,2059,2059,2044
2056,2051,2058,2049,2041,2052,2069,2037
2057,2047,2054,2044,2043,2044,2054,2035
2058,2045,2045,2047,2035,2040,2058,2026
2052,2047,2050,2038,2038,2037,2050,2027
2051,2038,2055,2036,2029,2039,2061,2032
2045,2038,2046,2033,2029,2036,2042,2028
2036,2023,2034,2036,2026,2042,2040,2021
2031,2026,2033,2042,2035,2044,2061,2034
2036,2037,2038,2042,2037,2053,2066,2032
2042,2039,2040,2044,2042,2058,2062,2040
2061,2054,2056,2051,2060,2062,2074,2052
2059,2062,2066,2055,2057,2074,2059,2055
2068,2061,2068,2059,2060,2073,2072,2057
2071,2060,2066,2056,2063,2072,2044,2060
2067,2058,2056,2055,2059,2070,2068,2064
2062,2050,2056,2058,2059,2065,2061,2065
2061,2052,2058,2056,2065,2070,2071,2063
2056,2049,2062,2056,2063,2084,2076,2065
2060,2044,2060,2060,2052,2080,2053,2065
2054,2050,2061,2057,2057,2076,2068,2077
2059,2052,2058,2056,2060,2074,2065,2076
2060,2052,2058,2057,2054,2082,2068,2070
2048,2044,2051,2054,2047,2076,2047,2067
2049,2043,2046,2043,2035,2070,2043,2071
2047,2042,2046,2044,2028,2080,2061,2069
2049,2040,2049,2050,2032,2080,2053,2063
2047,2038,2045,2042,2024,2042,2059,2056
2042,2035,2045,2033,1994,2002,2043,2055
2042,2038,2043,2030,1960,1987,2038,2046
2055,2038,2037,2025,1954,1994,2042,2050
2051,2040,2042,2017,1950,1987,2038,2040
2056,2037,2036,2019,1982,1989,2049,2042
2061,2048,2040,2048,2054,2017,2065,2050
2064,2049,2060,2065,2090,2039,2080,2048
2056,2047,2053,2062,2079,2061,2065,2033
2057,2037,2048,2057,2075,2074,2062,2031
2042,2036,2049,2051,2065,2065,2066,2023
2042,2033,2047,2050,2052,2054,2060,2021
2037,2035,2045,2043,2047,2043,2049,2027
2039,2037,2040,2045,2036,2041,2036,2029
2040,2043,2044,2050,2042,2050,2059,2037
2048,2053,2056,2048,2046,2057,2051,2044
2051,2056,2055,2049,2043,2068,2056,2043
2050,2055,2057,2041,2030,2069,2047,2043
2050,2055,2055,2042,2007,2054,2045,2050
2046,2054,2051,2035,1987,2036,2039,2047
2045,2054,2048,2036,1983,2003,2045,2054
2045,2046,2054,2037,1992,2000,2041,2056
2047,2041,2048,2033,2022,2030,2059,2053
2050,2045,2056,2051,2054,2054,2067,2065
2052,2053,2055,2062,2090,2066,2069,2067
2049,2044,2046,2064,2102,2077,2054,2070
2043,2041,2052,2060,2092,2067,2046,2067
2046,2043,2050,2051,2061,2047,2054,2074
2039,2040,2050,2044,2049,2040,2048,2064
2030,2030,2039,2033,2044,2045,2045,2071
2031,2024,2034,2034,2043,2057,2059,2070
2040,2036,2045,2045,2052,2064,2069,2075
2041,2044,2043,2044,2046,2062,2067,2064
2048,2041,2046,2042,2047,2060,2066,2061
2042,2045,2047,2047,2042,2060,2060,2060
2051,2045,2050,2049,2049,2065,2065,2060
2052,2047,2050,2048,2049,2062,2069,2052
2051,2046,2049,2043,2054,2061,2063,2052
2052,2051,2053,2050,2051,2063,2053,2052
2057,2047,2050,2048,2040,2054,2053,2043
2054,2042,2041,2042,2041,2041,2052,2042
2049,2041,2042,2037,2039,2037,2041,2036
2051,2044,2041,2039,2036,2046,2045,2036
2044,2045,2039,2043,2037,2054,2041,2041
2042,2040,2040,2041,2036,2062,2037,2039
2053,2042,2040,2042,2042,2052,2055,2035
2044,2037,2039,2044,2032,2045,2062,2038
2043,2041,2042,2044,2036,2056,2078,2036
2051,2043,2049,2049,2045,2054,2059,2040
2047,2038,2046,2052,2043,2052,2064,2040
2046,2045,2043,2047,2038,2044,2056,2040
2042,2043,2040,2047,2037,2042,2047,2046
2046,2043,2047,2048,2037,2039,2038,2047
2045,2041,2045,2043,2032,2031,2029,2047
2041,2035,2047,2042,2030,2030,2030,2045
2037,2033,2047,2047,2032,2035,2031,2054
2041,2035,2044,2046,2038,2046,2039,2058
2034,2037,2041,2045,2039,2050,2047,2058
2037,2040,2042,2045,2040,2053,2040,2059
2036,2039,2039,2041,2042,2052,2051,2062
2044,2040,2040,2042,2043,2057,2070,2076
2047,2046,2045,2044,2048,2054,2068,2075
2041,2037,2040,2038,2050,2052,2057,2065
2045,2035,2041,2039,2050,2047,2060,2075
2047,2050,2048,2043,2054,2052,2066,2078
2048,2052,2051,2044,2052,2052,2039,2074
2051,2054,2046,2043,2049,2049,2056,2072
2049,2047,2040,2037,2040,2051,2044,2057
2045,2043,2042,2026,2013,2063,2061,2048
2050,2040,2044,2025,1982,2075,2034,2046
2043,2042,2040,2018,1970,2080,2037,2036
2047,2043,2038,2020,1971,2078,2037,2029
2048,2054,2043,2036,1996,2028,2038,2049
2061,2065,2057,2060,2045,1989,2036,2062
2067,2071,2065,2072,2083,2015,2036,2058
2058,2069,2066,2072,2072,2047,2050,2053
2061,2062,2059,2069,2111,2078,2050,2042
2060,2052,2054,2064,2121,2085,2055,2039
2041,2044,2042,2052,2101,2074,2041,2033
2046,2042,2046,2054,2087,2059,2048,2042
2047,2055,2049,2055,2067,2063,2062,2054
2057,2055,2057,2052,2071,2063,2074,2058
2057,2061,2058,2048,2070,2058,2077,2058
2057,2058,2056,2038,2048,2041,2073,2067
2054,2055,2051,2028,2042,2031,2054,2065
2057,2059,2052,2035,2049,2034,2049,2061
2055,2058,2051,2036,2023,2026,2048,2068
2050,2054,2048,2030,2001,2018,2056,2072
2056,2054,2041,2032,2013,2021,2063,2076
2054,2052,2042,2037,2040,2030,2047,2079
2055,2049,2046,2031,2045,2045,2056,2074
2052,2048,2044,2040,2049,2057,2078,2077
2052,2044,2046,2043,2060,2064,2071,2082
2052,2047,2046,2045,2046,2053,2052,2075
2042,2042,2028,2037,2037,2039,2030,2063
2037,2036,2036,2030,2026,2025,2019,2058
2028,2038,2035,2035,2031,2027,2030,2057
2037,2040,2038,2035,2025,2022,2024,2056
2038,2039,2037,2033,2029,2023,2029,2049
2040,2037,2030,2031,2030,2028,2025,2044
2039,2040,2024,2028,2028,2033,2040,2041
2036,2032,2028,2029,2028,2032,2038,2037
2040,2037,2027,2028,2023,2040,2047,2036
2043,2031,2026,2031,2028,2039,2045,2035
2034,2030,2024,2033,2028,2037,2053,2032
2041,2028,2033,2035,2037,2042,2050,2031
2034,2033,2031,2040,2046,2050,2041,2028
2040,2037,2033,2031,2042,2072,2061,2026
2042,2043,2031,2029,2038,2089,2051,2028
2041,2045,2031,2029,2035,2092,2054,2027
2045,2043,2035,2028,2034,2076,2047,2034
2043,2038,2030,2025,2044,2054,2054,2038
2047,2041,2036,2039,2059,2047,2070,2047
2055,2054,2045,2048,2064,2062,2074,2055
2059,2055,2043,2045,2056,2073,2075,2058
2062,2049,2041,2041,2059,2076,2075,2056
2055,2053,2045,2042,2059,2074,2065,2057
2054,2050,2044,2045,2059,2075,2073,2067
2063,2048,2047,2046,2069,2079,2077,2071
2057,2051,2044,2051,2074,2077,2063,2070
2051,2054,2053,2043,2072,2075,2077,2073
2054,2046,2041,2047,2069,2074,2061,2070
2045,2038,2042,2048,2069,2068,2065,2068
2042,2038,2037,2043,2062,2061,2045,2071
2047,2033,2042,2040,2061,2044,2028,2073
2045,2031,2039,2041,2060,2044,2029,2076
2058,2039,2049,2041,2053,2039,2029,2073
2051,2037,2039,2029,2044,2021,2019,2071
2052,2041,2038,2034,2040,2027,2033,2073
2065,2062,2055,2038,2043,2039,2024,2073
2059,2061,2053,2036,2043,2064,2003,2061
2059,2060,2045,2033,2039,2068,1999,2053
2051,2058,2047,2033,2032,2059,2002,2041
2041,2053,2049,2035,2030,2061,2009,2042
2042,2048,2055,2038,2035,2023,2016,2055
2051,2056,2055,2045,2053,1983,2044,2052
2052,2053,2050,2040,2046,2001,2047,2052
2052,2053,2055,2040,2034,2032,2061,2044
2045,2056,2056,2051,2040,2050,2057,2044
2049,2058,2058,2043,2039,2052,2056,2030
2045,2061,2057,2051,2045,2044,2043,2032
2057,2062,2064,2053,2037,2043,2056,2029
2052,2056,2047,2045,2024,2040,2036,2021
2034,2040,2031,2033,2018,2035,2035,2019
2039,2038,2032,2033,2025,2062,2072,2030
2043,2049,2038,2036,2017,2086,2070,2043
2043,2053,2041,2035,2007,2069,2034,2027
2043,2052,2043,2035,2006,2049,2001,2008
2034,2048,2041,2036,2031,2056,1999,2007
2031,2046,2040,2032,2042,2071,2007,2022
2020,2037,2039,2029,2041,2064,1991,2029
2015,2032,2029,2019,2049,2031,2014,2029
2010,2031,2032,2020,2052,1986,2011,2008
2010,2026,2026,2011,2014,1987,2013,2002
2009,2026,2026,2008,1951,1990,2011,1999
2012,2026,2027,2008,1933,2000,2008,2010
2014,2035,2037,2014,1944,2002,2012,2003
2022,2038,2033,2012,1945,1960,2004,2017
2023,2040,2035,2029,2024,1978,2035,2034
2024,2031,2033,2037,2108,2072,2070,2045
2023,2027,2040,2057,2152,2111,2082,2053
2034,2049,2043,2063,2153,2115,2070,2054
2030,2047,2045,2051,2124,2099,2071,2068
2039,2053,2047,2055,2101,2100,2091,2091
2052,2055,2047,2050,2078,2082,2104,2098
2049,2049,2045,2050,2068,2080,2105,2098
2046,2050,2042,2047,2058,2077,2102,2102
2045,2046,2041,2043,2050,2067,2107,2095
2047,2041,2037,2036,2048,2068,2105,2092
2044,2046,2039,2031,2061,2069,2101,2078
2034,2041,2031,2029,2061,2066,2087,2059
2034,2038,2029,2033,2057,2047,2056,2042
2044,2039,2034,2033,2053,2036,2045,2052
2054,2051,2038,2037,2047,2035,2042,2052
2057,2050,2045,2038,2034,2017,2011,2034
2052,2047,2042,2039,2040,2027,2012,2040
2047,2045,2045,2044,2052,2052,2013,2050
2052,2049,2050,2041,2041,2064,2018,2043
2046,2050,2045,2040,2035,2044,2025,2033
2048,2051,2040,2033,2022,2014,2015,2024
2041,2043,2036,2026,2027,2029,2020,2029
2035,2045,2035,2042,2071,2066,2028,2042
2047,2045,2045,2061,2093,2066,2045,2045
2049,2047,2041,2056,2077,2044,2036,2049
2046,2042,2043,2048,2085,2053,2054,2057
2047,2042,2045,2054,2081,2046,2055,2068
2053,2049,2046,2049,2075,2041,2054,2073
2054,2052,2043,2050,2074,2043,2067,2084
2057,2050,2047,2047,2070,2053,2080,2078
2055,2047,2039,2041,2065,2048,2069,2071
2055,2045,2045,2044,2059,2022,2076,2064
2054,2039,2041,2043,2065,1988,2044,2067
2051,2044,2043,2035,2061,1973,2040,2072
2052,2058,2051,2042,2049,1974,2033,2061
2048,2056,2050,2035,2034,1987,2032,2057
2046,2059,2049,2036,2019,1984,2022,2037
2043,2052,2046,2030,1991,1974,2005,2022
2028,2044,2038,2019,1970,1976,1975,1995
2020,2047,2036,2012,1958,1983,1972,1994
2022,2041,2033,2009,1974,2029,2006,1998
2027,2050,2044,2034,2027,2097,2058,2004
2042,2058,2056,2055,2081,2150,2079,2014
2047,2064,2059,2061,2113,2193,2086,2025
2051,2062,2052,2064,2113,2171,2070,2031
2054,2058,2050,2051,2092,2117,2063,2020
2047,2055,2047,2045,2066,2084,2048,2023
2054,2052,2043,2035,2049,2066,2045,2027
2047,2045,2037,2033,2042,2055,2037,2025
2048,2043,2035,2033,2036,2047,2054,2031
2059,2058,2047,2038,2031,2066,2066,2044
2064,2058,2044,2030,2022,2077,2062,2049
2060,2058,2042,2028,2007,2068,2067,2059
2058,2055,2040,2033,2006,2061,2054,2063
2066,2047,2036,2029,2021,2053,2067,2070
2064,2053,2041,2040,2051,2033,2069,2069
2062,2052,2041,2055,2088,2049,2051,2062
2050,2049,2041,2053,2101,2069,2047,2065
2050,2041,2034,2051,2103,2107,2064,2069
2049,2041,2032,2045,2080,2101,2063,2061
2043,2033,2033,2043,2076,2066,2061,2062
2045,2031,2028,2037,2064,2035,2051,2066
2040,2034,2028,2029,2051,2036,2041,2061
2038,2031,2030,2031,2045,2033,2028,2061
2030,2025,2024,2023,2036,2033,2029,2062
2040,2028,2024,2018,2022,2049,2029,2069
2044,2042,2034,2026,2026,2055,2026,2064
2056,2044,2033,2025,2028,2068,2047,2071
2056,2041,2030,2023,2023,2074,2034,2071
2057,2045,2037,2024,2037,2097,2044,2063
2061,2051,2032,2027,2032,2103,2046,2066
2051,2050,2043,2026,2026,2107,2047,2050
2049,2050,2041,2026,2031,2091,2046,2044
2054,2050,2044,2023,2029,2044,2036,2038
2054,2051,2050,2026,2034,2032,2031,2036
2057,2052,2048,2025,2049,2045,2039,2036
2052,2057,2046,2031,2054,2037,2032,2037
2058,2054,2056,2048,2064,2009,2039,2046
2071,2064,2060,2052,2067,2027,2054,2045
2068,2067,2062,2064,2095,2045,2055,2041
2059,2052,2052,2053,2098,2051,2024,2029
2049,2044,2044,2048,2090,2046,2022,2036
2052,2051,2055,2056,2081,2042,2018,2043
2059,2057,2061,2056,2062,2042,1998,2045
2058,2059,2058,2049,2061,2050,2025,2038
2052,2062,2050,2045,2054,2059,2042,2030
2050,2057,2044,2032,2026,2048,2059,2033
2049,2047,2041,2025,2039,2051,2041,2025
2043,2045,2038,2031,2061,2055,2043,2033
2045,2050,2038,2033,2056,2041,2046,2033
2041,2043,2038,2032,2043,2038,2045,2040
2041,2040,2040,2034,2038,2034,2039,2047
2035,2045,2047,2039,2044,2046,2060,2055
2038,2038,2046,2042,2046,2055,2056,2060
2035,2034,2050,2043,2044,2056,2074,2062
2038,2036,2043,2039,2046,2055,2078,2063
2040,2031,2036,2034,2035,2046,2050,2046
2027,2021,2023,2027,2031,2032,2028,2043
2033,2022,2026,2029,2032,2026,2024,2055
2039,2033,2029,2028,2036,2025,2035,2056
2038,2036,2029,2026,2036,2030,2037,2044
2042,2034,2031,2029,2040,2029,2045,2043
2040,2031,2032,2034,2050,2028,2037,2037
2054,2028,2033,2036,2045,2020,2035,2032
2053,2032,2025,2032,2044,2022,2039,2027
2045,2036,2034,2032,2046,2031,2049,2028
2047,2046,2036,2031,2041,2038,2057,2039
2056,2050,2033,2028,2036,2044,2052,2039
2050,2050,2037,2029,2038,2038,2053,2051
2050,2048,2032,2036,2035,2035,2037,2041
2047,2045,2037,2030,2027,2037,2039,2023
2043,2033,2029,2026,2027,2031,2062,2024
2039,2029,2022,2025,2028,2042,2060,2033
2034,2024,2010,2023,2034,2043,2053,2025
2038,2024,2011,2022,2032,2052,2051,2030
2039,2039,2025,2038,2050,2061,2052,2029
2044,2050,2042,2046,2059,2071,2047,2033
2057,2061,2051,2049,2066,2081,2061,2041
2055,2058,2049,2051,2077,2090,2063,2040
2046,2058,2052,2042,2074,2086,2062,2044
2049,2057,2050,2042,2062,2082,2054,2049
2055,2056,2056,2041,2055,2081,2057,2051
2060,2056,2044,2037,2052,2061,2064,2043
2058,2052,2045,2033,2042,2038,2067,2046
2052,2049,2042,2036,2047,2040,2041,2043
2048,2049,2048,2036,2055,2062,2048,2051
2052,2051,2049,2037,2053,2069,2039,2058
2053,2048,2044,2038,2056,2070,2045,2055
2042,2040,2051,2039,2056,2060,2053,2059
2044,2048,2056,2039,2055,2063,2034,2053
2045,2043,2054,2043,2049,2054,2012,2050
2043,2048,2054,2040,2048,2050,2014,2053
2047,2059,2066,2045,2048,2037,2024,2056
2053,2061,2063,2045,2047,2043,2020,2055
2056,2061,2070,2045,2046,2057,2026,2054
2052,2063,2068,2045,2048,2035,2034,2064
2062,2073,2076,2056,2052,2027,2030,2059
2056,2070,2068,2052,2052,2020,2024,2050
2058,2067,2068,2051,2049,2026,2034,2042
2054,2067,2063,2050,2053,2038,2044,2037
2050,2057,2058,2046,2058,2039,2040,2026
2051,2055,2046,2050,2066,2039,2019,2030
2049,2056,2039,2039,2067,2029,2032,2031
2050,2052,2035,2037,2071,2032,2044,2030
2043,2042,2025,2036,2046,2058,2039,2023
2040,2038,2022,2015,2044,2056,2042,2011
2032,2032,2010,2009,2037,2028,2031,2007
2029,2026,2006,2005,2030,2010,2015,2008
2036,2030,2005,2010,2042,1986,2026,2010
2035,2035,2001,2019,2097,1964,2031,2016
2042,2042,2013,2051,2161,2004,2033,2028
2047,2047,2022,2059,2176,2056,2062,2036
2045,2041,2018,2046,2135,2080,2055,2038
2050,2039,2014,2043,2095,2112,2064,2037
2047,2045,2016,2046,2001,2122,2061,2036
2048,2038,2021,2040,1965,2102,2075,2037
2041,2040,2024,2043,2003,2071,2063,2038
2046,2041,2026,2052,2027,1980,2050,2038
2038,2040,2035,2048,2030,1976,2041,2036
2039,2042,2036,2046,2037,2035,2052,2041
2035,2035,2035,2046,2034,2072,2040,2051
2033,2037,2027,2044,2028,2078,2053,2057
2041,2037,2025,2035,2008,2064,2041,2052
2041,2033,2027,2029,1992,2068,2040,2058
2048,2050,2051,2042,2002,2087,2061,2062
2055,2059,2058,2042,2006,2109,2076,2064
2058,2067,2063,2051,2008,2085,2069,2054
2060,2070,2058,2052,2005,2001,2044,2045
2063,2063,2065,2049,2012,1995,2040,2046
2056,2063,2065,2046,2009,2027,2007,2040
2058,2062,2064,2039,2010,2041,2006,2038
2046,2056,2058,2037,2020,2070,2051,2038
2053,2054,2061,2041,2036,2100,2047,2025
2052,2056,2074,2037,2038,2111,2050,2016
2050,2052,2069,2038,2024,2101,2051,2010
2047,2054,2073,2037,2021,2097,2051,2007
2047,2041,2070,2039,2018,2098,2040,2007
2046,2044,2068,2043,2048,2100,2047,2007
2041,2047,2070,2057,2073,2094,2037,1998
2022,2028,2059,2048,2063,2066,2026,2002
2019,2022,2047,2038,2049,2044,2028,2007
2037,2027,2051,2036,2056,2053,2024,2011
2038,2032,2052,2033,2048,2058,2029,2021
2040,2040,2052,2041,2056,2067,2024,2014
2044,2040,2051,2046,2060,2076,2035,2011
2040,2037,2047,2035,2044,2047,2015,2011
2044,2038,2055,2032,2030,2058,2041,2023
2048,2046,2049,2033,2019,2067,2043,2025
2047,2042,2045,2029,2000,2049,2051,2020
2045,2038,2043,2027,1998,2005,2054,2036
2040,2042,2049,2045,2005,1961,2050,2043
2040,2037,2038,2029,2004,1987,2046,2039
2039,2032,2033,2031,2022,2028,2049,2049
2041,2040,2042,2047,2061,2051,2027,2055
2049,2044,2050,2057,2106,2066,2028,2057
2041,2035,2042,2050,2108,2070,2031,2049
2035,2031,2040,2050,2111,2054,2051,2040
2034,2037,2036,2048,2083,2033,2047,2046
2043,2038,2038,2044,2066,2024,2060,2044
2042,2043,2035,2042,2059,2033,2051,2042
2040,2037,2035,2039,2049,2027,2029,2036
2038,2040,2029,2036,2035,2027,2040,2029
2041,2041,2029,2033,2023,2035,2054,2033
2036,2035,2025,2024,1993,2034,2046,2024
2035,2035,2020,2017,1957,2028,2055,2021
2038,2030,2022,2013,1966,2021,2027,2008
2034,2032,2023,2009,1975,2018,2037,2012
2030,2032,2029,2006,1976,2023,2041,2005
2035,2034,2036,2024,2022,2040,2041,2018
2046,2038,2043,2043,2105,2071,2049,2020
2048,2039,2051,2051,2112,2075,2045,2019
2050,2044,2053,2047,2085,2080,2056,2018
2048,2038,2037,2039,2064,2072,2044,2013
2044,2034,2041,2032,2054,2044,2045,2021
2036,2038,2054,2044,2056,2041,2038,2032
2046,2042,2059,2051,2062,2051,2046,2021
2050,2044,2061,2050,2062,2069,2043,2022
2043,2039,2062,2049,2055,2083,2057,2024
2048,2042,2057,2053,2048,2099,2054,2023
2051,2035,2049,2052,2034,2116,2019,2013
2044,2038,2041,2039,2008,2097,2026,2011
2033,2035,2030,2020,1956,2063,2004,2013
2028,2039,2030,2008,1925,1995,1992,2022
2033,2047,2047,2020,1944,1914,2006,2034
2042,2054,2049,2036,2018,1946,2037,2044
2046,2054,2057,2045,2073,2017,2040,2051
2050,2056,2068,2072,2140,2083,2064,2061
2054,2063,2080,2082,2143,2098,2058,2064
2049,2053,2063,2066,2106,2072,2046,2050
2037,2041,2050,2054,2081,2056,2011,2045
2035,2038,2043,2041,2053,2053,2023,2051
2042,2048,2050,2042,2040,2053,2052,2052
2037,2052,2051,2047,2047,2066,2064,2048
2046,2047,2044,2047,2062,2071,2059,2050
2042,2052,2044,2051,2067,2074,2069,2040
2035,2048,2046,2050,2046,2069,2059,2036
2034,2046,2044,2051,2049,2055,2035,2024
2033,2044,2049,2052,2077,2053,2025,2020
2038,2048,2050,2051,2079,2057,2033,2013
2033,2044,2053,2051,2075,2053,2037,2006
2033,2041,2054,2051,2067,2053,2044,2011
2043,2035,2056,2056,2053,2049,2042,2009
2039,2034,2045,2051,2048,2037,2043,2008
2032,2037,2044,2046,2028,2026,2040,2003
2045,2041,2044,2031,1992,2012,2050,2002
2043,2038,2038,2030,2015,2019,2047,1997
2035,2030,2040,2036,2036,2033,2048,1999
2031,2033,2042,2036,2044,2028,2044,2015
2034,2045,2049,2043,2042,2023,2051,2011
2043,2037,2041,2040,2031,2022,2046,2020
2037,2033,2039,2032,2032,2011,2048,2022
2034,2034,2041,2029,2027,2016,2057,2034
2040,2042,2048,2041,2039,2020,2069,2046
2050,2049,2052,2050,2054,2029,2058,2058
2044,2051,2058,2050,2065,2031,2060,2061
2046,2051,2056,2054,2060,2020,2038,2067
2044,2056,2056,2054,2057,2021,2051,2069
2039,2051,2053,2047,2059,2020,2050,2070
2040,2049,2056,2051,2054,2023,2067,2070
2039,2049,2052,2053,2057,2025,2054,2060
2044,2039,2054,2050,2048,2037,2051,2054
2039,2045,2051,2043,2039,2058,2043,2056
2030,2035,2042,2037,2019,2061,2042,2046
2032,2027,2041,2024,2012,2082,2042,2055
2035,2038,2048,2032,2005,2093,2041,2048
2037,2042,2052,2032,2024,2088,2049,2052
2044,2046,2057,2040,2042,2069,2047,2053
2042,2050,2065,2048,2060,2063,2043,2041
2045,2049,2064,2052,2060,2067,2051,2033
2039,2054,2057,2048,2065,2056,2046,2045
2039,2057,2066,2058,2075,2026,2065,2044
2045,2058,2070,2056,2074,2018,2069,2036
2042,2064,2067,2053,2057,2017,2063,2035
2036,2058,2067,2051,2044,2027,2057,2022
2030,2054,2056,2052,2043,2026,2050,2015
2032,2054,2056,2038,2028,2030,2053,2017
2036,2052,2055,2040,2031,2047,2050,2021
2040,2051,2054,2047,2046,2066,2076,2013
2037,2054,2050,2046,2056,2068,2061,2009
2033,2040,2044,2037,2046,2063,2053,2006
2028,2040,2042,2040,2047,2080,2081,2008
2038,2053,2052,2050,2061,2096,2081,2012
2037,2053,2052,2050,2061,2093,2087,2014
2041,2052,2050,2051,2062,2097,2075,2022
2038,2049,2045,2048,2059,2076,2067,2027
2044,2047,2050,2046,2057,2044,2064,2043
2043,2054,2046,2051,2060,2018,2045,2050
2046,2053,2050,2046,2043,2000,2026,2064
2049,2050,2048,2043,2049,2032,2036,2077
2041,2049,2042,2042,2042,2055,2059,2075
2041,2051,2049,2043,2039,2070,2082,2078
2049,2052,2049,2050,2038,2061,2066,2076
2048,2043,2050,2042,2033,2050,2060,2066
2041,2045,2041,2037,2020,2043,2073,2063
2042,2041,2044,2030,2021,2036,2061,2066
2036,2041,2045,2033,2017,2036,2041,2058
2033,2034,2034,2031,2010,2054,2037,2053
2031,2037,2036,2031,2018,2061,2062,2051
2037,2043,2038,2041,2027,2065,2066,2055
2042,2045,2045,2040,2037,2061,2062,2057
2043,2049,2044,2041,2058,2058,2055,2059
2048,2046,2040,2047,2072,2057,2066,2056
2051,2051,2041,2046,2081,2056,2063,2045
2050,2052,2047,2048,2077,2054,2054,2041
2049,2051,2043,2051,2063,2048,2067,2033
2044,2052,2042,2050,2056,2051,2062,2030
2042,2048,2043,2047,2056,2047,2055,2030
2044,2051,2048,2041,2050,2047,2051,2027
2048,2052,2050,2044,2050,2043,2040,2024
2046,2051,2048,2043,2058,2041,2037,2026
2045,2052,2046,2043,2062,2050,2042,2029
2043,2046,2045,2045,2056,2041,2042,2016
2037,2041,2039,2033,2041,2032,2045,2018
2039,2036,2027,2036,2030,2033,2041,2024
2049,2045,2044,2039,2043,2042,2025,2031
2050,2046,2046,2037,2041,2045,2035,2035
2045,2054,2047,2048,2034,2050,2050,2040
2054,2052,2040,2044,2042,2041,2033,2034
2050,2048,2047,2040,2042,2026,2055,2041
2050,2049,2051,2046,2048,2029,2043,2035
2052,2052,2049,2046,2052,2043,2032,2043
2044,2046,2043,2045,2049,2037,2045,2043
2041,2040,2042,2043,2033,2037,2067,2056
2046,2037,2037,2046,2030,2048,2084,2056
2048,2035,2038,2050,2040,2052,2094,2052
2042,2035,2042,2048,2041,2048,2067,2054
2038,2038,2037,2052,2040,2034,2079,2064
2043,2034,2034,2045,2046,2021,2068,2053
2039,2033,2035,2048,2051,2018,2057,2048
2030,2025,2030,2047,2052,2019,2051,2050
2026,2020,2028,2044,2053,2042,2068,2052
2034,2035,2031,2047,2063,2080,2076,2049
2036,2033,2033,2040,2074,2109,2071,2044
2041,2036,2032,2043,2080,2120,2051,2047
2041,2033,2041,2046,2076,2067,2054,2044
2043,2031,2045,2049,2067,2027,2060,2037
2042,2037,2041,2050,2068,2028,2056,2034
2040,2042,2047,2052,2063,2039,2061,2028
2047,2043,2049,2047,2057,2043,2057,2033
2049,2046,2051,2052,2051,2041,2048,2029
2051,2044,2056,2054,2043,2045,2066,2030
2051,2044,2051,2050,2034,2037,2052,2035
2052,2048,2043,2038,1991,2018,2048,2026
2047,2046,2044,2033,1973,2002,2031,2020
2048,2044,2041,2032,1994,1998,2049,2024
2052,2041,2039,2029,2006,2009,2031,2012
2037,2024,2026,2022,2026,2029,2039,2013
2040,2021,2033,2039,2071,2058,2052,2017
2047,2042,2048,2058,2090,2068,2072,2028
2050,2037,2048,2061,2106,2073,2082,2038
2052,2035,2042,2064,2103,2077,2079,2035
2053,2032,2047,2056,2090,2068,2082,2038
2043,2035,2046,2057,2086,2069,2071,2036
2050,2034,2047,2054,2076,2072,2088,2049
2055,2042,2049,2048,2065,2078,2086,2052
2060,2041,2045,2053,2065,2084,2076,2063
2054,2040,2048,2045,2062,2065,2069,2064
2056,2043,2048,2053,2062,2060,2087,2065
2052,2047,2048,2050,2063,2046,2067,2071
2062,2041,2046,2049,2055,2039,2068,2066
2048,2040,2038,2044,2061,2048,2061,2064
2055,2046,2046,2051,2064,2078,2066,2061
2046,2039,2040,2044,2056,2080,2053,2054
2040,2034,2036,2037,2059,2075,2033,2055
2040,2037,2034,2042,2061,2096,2047,2064
2046,2045,2037,2042,2054,2129,2060,2067
2050,2045,2042,2039,2052,2162,2051,2059
2052,2047,2043,2041,2053,2130,2057,2053
2046,2051,2044,2042,2054,2030,2054,2041
2051,2054,2048,2047,2044,1968,2043,2040
2053,2054,2047,2045,2051,2006,2040,2034
2046,2050,2049,2047,2046,2017,2039,2027
2047,2046,2042,2043,2046,1997,2033,2018
2049,2046,2041,2044,2043,2018,2038,2024
2047,2042,2040,2045,2041,2041,2051,2026
2049,2040,2037,2041,2038,2038,2040,2032
2052,2049,2046,2052,2034,2007,2031,2044
2059,2048,2058,2055,2034,2011,2027,2041
2061,2046,2052,2053,2036,2020,2036,2038
2062,2040,2052,2049,2031,2021,2041,2038
2067,2041,2053,2044,2025,2034,2041,2036
2066,2049,2053,2047,2038,2048,2032,2034
2064,2044,2050,2047,2039,2056,2045,2034
2064,2046,2052,2047,2050,2063,2047,2037
2054,2047,2051,2054,2063,2066,2045,2034
2060,2048,2048,2059,2071,2071,2058,2041
2063,2053,2057,2059,2066,2063,2053,2049
2063,2057,2053,2050,2066,2059,2033,2055
2067,2056,2055,2058,2074,2064,2037,2056
2058,2057,2054,2057,2115,2075,2052,2052
2043,2056,2045,2043,2145,2081,2047,2055
2049,2048,2044,2047,2161,2085,2051,2064
2055,2054,2045,2054,2182,2101,2027,2068
2060,2053,2046,2060,2172,2101,2042,2076
2064,2055,2048,2064,2161,2108,2065,2076
2064,2051,2047,2053,2139,2102,2065,2069
2060,2043,2041,2045,2096,2071,2074,2079
2058,2039,2038,2031,2029,2004,2064,2078
2058,2043,2038,2017,1906,1962,2059,2080
2058,2041,2034,2012,1881,1977,2069,2080
2057,2047,2037,2024,1916,1977,2056,2071
2059,2044,2032,2024,1937,1984,2044,2063
2058,2043,2039,2022,1950,1989,2037,2060
2049,2041,2035,2015,1956,1978,2035,2044
2049,2039,2028,2013,1970,1970,2023,2049
2051,2038,2034,2030,2014,1992,2037,2047
2057,2050,2048,2049,2063,2030,2058,2051
2066,2056,2052,2057,2100,2058,2035,2046
2070,2048,2056,2059,2105,2087,2036,2039
2060,2045,2046,2050,2093,2104,2046,2036
2062,2045,2043,2049,2069,2093,2033,2038
2058,2045,2042,2045,2062,2058,2017,2036
2051,2047,2039,2037,2054,2043,2012,2029
2052,2036,2036,2031,2054,2039,2011,2031
2053,2036,2033,2038,2054,2041,2032,2033
2053,2046,2047,2041,2052,2042,2036,2038
2058,2037,2048,2040,2057,2031,2033,2038
2052,2040,2044,2040,2052,2025,2046,2034
2048,2046,2051,2044,2054,2026,2034,2041
2052,2044,2053,2047,2065,2034,2034,2052
2053,2051,2053,2043,2066,2042,2055,2059
2058,2047,2055,2046,2066,2044,2046,2060
2057,2050,2058,2045,2060,2038,2047,2060
2057,2049,2055,2050,2065,2054,2057,2065
2055,2050,2051,2047,2059,2061,2062,2073
2055,2043,2051,2043,2061,2084,2044,2079
2054,2037,2053,2040,2053,2085,2066,2075
2049,2041,2044,2040,2046,2104,2063,2080
2052,2044,2048,2037,2049,2131,2081,2088
2055,2043,2044,2029,2045,2131,2047,2078
2049,2040,2041,2039,2036,2072,2040,2074
2054,2050,2049,2037,2026,1974,2024,2083
2053,2050,2043,2032,2028,1983,2035,2067
2059,2054,2045,2036,2043,2018,2031,2061
2056,2059,2044,2037,2053,2040,2036,2059
2056,2058,2047,2042,2056,2042,2035,2055
2049,2056,2052,2041,2059,2069,2042,2050
2053,2050,2050,2041,2057,2073,2039,2044
2054,2051,2045,2040,2067,2076,2033,2037
2053,2042,2043,2047,2067,2073,2050,2029
2044,2040,2039,2045,2061,2050,2044,2036
2045,2040,2045,2050,2038,2024,2032,2035
2052,2051,2041,2031,2018,2033,2009,2029
2050,2048,2041,2029,1987,2059,2017,2029
2045,2045,2040,2022,1951,2051,2020,2033
2045,2049,2038,2013,1905,2014,2033,2035
2046,2046,2034,2028,1953,1972,2028,2046
2059,2052,2039,2045,2031,1979,2044,2052
2062,2064,2058,2061,2070,2011,2033,2055
2067,2068,2055,2066,2082,2022,2034,2052
2060,2067,2054,2060,2048,2021,2042,2049
2061,2065,2050,2055,2021,2025,2055,2050
2054,2061,2049,2050,2021,2027,2046,2050
2051,2055,2045,2042,2009,2010,2034,2049
2052,2045,2041,2026,1988,2009,2020,2052
2048,2055,2047,2032,2038,2034,2024,2063
2058,2052,2050,2051,2080,2056,2048,2065
2050,2048,2052,2055,2104,2050,2042,2059
2042,2045,2047,2057,2112,2042,2049,2061
2041,2039,2036,2054,2091,2030,2036,2067
2043,2036,2038,2045,2073,2031,2023,2068
2040,2035,2034,2040,2075,2033,2018,2067
2039,2030,2027,2035,2080,2030,2006,2056
2033,2028,2029,2042,2069,2040,2032,2069
2044,2039,2032,2050,2080,2061,2058,2082
2052,2049,2042,2060,2081,2081,2065,2078
2056,2051,2038,2058,2084,2088,2078,2077
2054,2051,2042,2047,2071,2088,2067,2063
2043,2043,2034,2048,2060,2068,2033,2053
2043,2042,2034,2045,2052,2040,2044,2041
2041,2040,2031,2041,2047,2040,2047,2044
2045,2040,2032,2051,2044,2044,2035,2037
2044,2038,2035,2036,2038,2057,2035,2033
2045,2042,2032,2032,2029,2072,2056,2030
2043,2041,2033,2032,2017,2075,2063,2029
2045,2041,2031,2031,2026,2070,2063,2035
2043,2042,2030,2032,2033,2045,2058,2029
2047,2045,2036,2045,2052,1986,2050,2037
2054,2049,2034,2051,2081,1998,2050,2035
2040,2040,2029,2054,2109,2032,2063,2030
2039,2043,2038,2055,2101,2053,2064,2048
2047,2061,2045,2057,2078,2052,2064,2040
2048,2055,2045,2054,2073,2058,2063,2039
2055,2059,2050,2057,2068,2057,2062,2042
2048,2051,2050,2059,2069,2053,2067,2044
2050,2047,2052,2058,2073,2054,2060,2050
2051,2043,2057,2064,2069,2053,2069,2052
2051,2044,2056,2060,2063,2052,2072,2051
2050,2041,2054,2058,2058,2055,2064,2053
2045,2047,2047,2044,2034,2068,2050,2056
2043,2045,2047,2042,2023,2072,2040,2058
2045,2039,2041,2049,2037,2081,2047,2064
2042,2036,2045,2048,2046,2055,2061,2065
2036,2037,2047,2052,2062,2035,2061,2074
2044,2040,2052,2060,2089,2053,2059,2074
2038,2039,2050,2057,2095,2084,2054,2065
2034,2037,2056,2055,2107,2120,2070,2074
2041,2046,2057,2059,2116,2145,2083,2070
2050,2052,2054,2059,2095,2089,2072,2074
2055,2056,2056,2071,2095,2006,2069,2074
2055,2056,2056,2066,2067,1985,2062,2064
2060,2059,2054,2064,2062,2009,2065,2063
2050,2052,2056,2069,2062,2021,2057,2051
2051,2057,2052,2074,2064,2018,2045,2040
2053,2051,2047,2077,2081,2018,2047,2034
2050,2045,2051,2068,2073,2002,2048,2038
2049,2053,2047,2063,2058,1991,2051,2042
2050,2049,2048,2062,2061,2003,2045,2030
2059,2042,2042,2064,2064,2006,2048,2033
2055,2045,2041,2064,2078,2020,2053,2035
2051,2041,2041,2061,2082,2030,2040,2027
2046,2034,2032,2048,2043,2024,2044,2030
2043,2028,2030,2035,1998,2007,2041,2024
2040,2031,2031,2031,2000,2009,2031,2019
2034,2032,2029,2025,2015,2006,2034,2027
2042,2038,2031,2034,2018,2015,2055,2035
2042,2048,2038,2045,2034,2044,2068,2038
2036,2048,2038,2049,2039,2037,2042,2042
2040,2051,2036,2053,2035,2023,2057,2043
2046,2056,2043,2067,2040,2017,2078,2049
2040,2045,2036,2063,2061,2008,2075,2052
2032,2041,2032,2060,2058,1990,2062,2047
2027,2036,2032,2063,2044,1985,2053,2059
2029,2044,2035,2065,2047,1996,2045,2058
2041,2041,2043,2072,2046,2010,2035,2063
2041,2045,2042,2066,2034,2013,2024,2078
2052,2049,2043,2068,2022,2039,2038,2074
2055,2055,2052,2058,2018,2080,2016,2067
2041,2046,2041,2060,2008,2087,2020,2061
2036,2051,2053,2064,2014,2080,2030,2062
2049,2057,2067,2061,2020,2058,2019,2063
2056,2060,2061,2067,2028,2054,2042,2066
2060,2058,2066,2066,2036,2043,2023,2061
2053,2058,2065,2065,2039,2043,2044,2052
2056,2059,2061,2063,2044,2043,2038,2050
2051,2049,2061,2064,2053,2055,2048,2046
2049,2049,2053,2062,2049,2058,2042,2043
2045,2047,2044,2054,2062,2063,2063,2036
2040,2044,2042,2048,2059,2069,2024,2032
2043,2038,2041,2044,2050,2061,2053,2036
2042,2044,2039,2044,2048,2053,2052,2034
2039,2033,2033,2037,2043,2053,2050,2026
2038,2033,2031,2041,2047,2049,2049,2028
2040,2037,2035,2037,2042,2036,2043,2022
2032,2026,2032,2039,2037,2036,2042,2024
2025,2031,2028,2040,2044,2039,2043,2024
2040,2037,2033,2045,2051,2051,2049,2031
2049,2043,2036,2046,2052,2059,2055,2046
2049,2046,2039,2047,2046,2052,2045,2042
2047,2044,2032,2047,2053,2054,2042,2050
2048,2042,2036,2052,2048,2060,2072,2050
2054,2043,2038,2051,2056,2063,2075,2063
2051,2046,2044,2052,2060,2071,2056,2064
2051,2043,2044,2049,2050,2073,2053,2060
2050,2048,2043,2043,2040,2066,2036,2067
2054,2051,2046,2042,2043,2064,2054,2070
2047,2050,2053,2044,2046,2068,2052,2072
2049,2056,2052,2053,2045,2067,2050,2074
2056,2058,2052,2052,2038,2061,2062,2084
2054,2064,2058,2046,2042,2054,2040,2075
2052,2057,2042,2045,2038,2052,2041,2080
2046,2054,2045,2041,2035,2050,2027,2084
2052,2065,2056,2050,2042,2066,2047,2075
2059,2066,2058,2052,2044,2086,2035,2073
2060,2064,2055,2055,2055,2089,2033,2068
2053,2064,2059,2054,2052,2078,2016,2057
2046,2056,2055,2055,2045,2061,2028,2048
2054,2058,2057,2048,2047,2055,2020,2046
2052,2061,2059,2050,2048,2049,2018,2045
2053,2060,2054,2057,2055,2047,2028,2045
2056,2058,2050,2053,2052,2036,2023,2037
2056,2060,2050,2052,2058,2034,2036,2045
2056,2064,2053,2056,2057,2019,2057,2053
2060,2063,2055,2055,2057,2001,2066,2052
2066,2067,2052,2053,2053,1986,2052,2051
2063,2062,2051,2061,2053,1996,2056,2040
2057,2061,2044,2052,2049,2002,2028,2031
2049,2051,2035,2047,2044,2020,2044,2038
2045,2053,2037,2052,2047,2039,2038,2050
2049,2054,2036,2048,2044,2042,2051,2049
2056,2050,2039,2052,2058,2045,2053,2046
2056,2050,2033,2049,2052,2045,2051,2043
2050,2052,2027,2049,2053,2051,2055,2046
2049,2060,2033,2049,2054,2058,2058,2051
2052,2058,2037,2046,2056,2077,2067,2057
2057,2056,2037,2044,2046,2089,2054,2052
2052,2057,2038,2042,2048,2106,2052,2057
2052,2060,2047,2045,2061,2121,2079,2060
2053,2053,2037,2045,2063,2143,2056,2061
2052,2051,2041,2048,2065,2167,2053,2063
2048,2053,2036,2050,2058,2154,2042,2063
2053,2060,2036,2050,2061,2072,2045,2057
2059,2056,2042,2054,2057,1979,2043,2061
2046,2053,2033,2045,2051,1994,2039,2063
2046,2049,2024,2049,2045,2026,2048,2062
2041,2056,2036,2049,2040,2029,2059,2056
2030,2047,2029,2044,2032,2022,2060,2057
2041,2043,2030,2046,2026,2013,2055,2057
2041,2043,2039,2044,2025,2018,2049,2060
2047,2050,2038,2045,2029,2023,2061,2065
2053,2055,2044,2048,2029,2029,2073,2061
2062,2057,2047,2055,2029,2034,2055,2051
2055,2057,2051,2054,2028,2033,2060,2049
2051,2055,2053,2056,2046,2045,2056,2045
2047,2055,2059,2059,2052,2048,2051,2040
