CH1,CH2,CH3,CH4,CH5,CH6,CH7,CH8
2029,2034,2043,2039,2050,2043,2036,2101
2042,2054,2056,2043,2047,2046,2027,2097
2043,2056,2058,2050,2040,2048,2043,2093
2047,2062,2068,2055,2043,2050,2047,2077
2046,2061,2062,2049,2044,2051,2046,2068
2039,2058,2056,2050,2040,2043,2064,2052
2044,2053,2041,2051,2048,2047,2061,2045
2044,2045,2023,2045,2049,2049,2037,2033
2044,2040,2016,2045,2048,2050,2046,2026
2044,2041,2013,2054,2049,2048,2068,2022
2048,2044,2013,2046,2048,2044,2057,2012
2048,2039,2010,2044,2056,2049,2066,2005
2040,2034,2013,2041,2054,2050,2047,2004
2042,2036,2014,2042,2053,2053,2058,1997
2045,2036,2018,2042,2051,2055,2045,1996
2038,2020,2015,2028,2052,2059,2051,1987
2036,2026,2028,2032,2056,2067,2037,1992
2047,2045,2043,2040,2064,2067,2061,2001
2047,2050,2035,2025,2055,2074,2070,2007
2048,2051,2044,2030,2060,2081,2077,2012
2056,2055,2048,2038,2061,2091,2070,2022
2052,2059,2055,2035,2066,2096,2060,2029
2057,2059,2053,2037,2061,2103,2058,2032
2050,2059,2063,2037,2056,2093,2051,2043
2051,2051,2068,2042,2052,2085,2065,2054
2054,2064,2075,2050,2062,2050,2050,2065
2053,2069,2076,2058,2067,2007,2051,2077
2048,2063,2069,2066,2066,2013,2052,2083
2046,2051,2071,2063,2062,2028,2033,2093
2040,2052,2068,2064,2065,2046,2038,2099
2042,2048,2067,2057,2059,2044,2037,2102
2034,2041,2052,2055,2056,2042,2058,2107
2039,2041,2049,2061,2049,2046,2060,2116
2048,2061,2061,2073,2047,2044,2046,2110
2048,2059,2064,2067,2043,2044,2040,2099
2047,2056,2061,2068,2048,2045,2054,2087
2050,2055,2065,2067,2046,2049,2048,2073
2046,2058,2062,2047,2040,2048,2058,2060
2043,2049,2044,2033,2029,2049,2046,2047
2045,2052,2041,2034,2021,2048,2049,2043
2043,2044,2046,2032,2027,2046,2055,2029
2043,2047,2043,2021,2032,2050,2073,2020
2047,2053,2048,2020,2036,2044,2041,2013
2041,2050,2055,2022,2036,2041,2044,2012
2044,2046,2042,2027,2036,2040,2051,2009
2034,2048,2026,2020,2033,2033,2046,2000
2042,2044,2010,2019,2036,2035,2049,1993
2031,2028,2003,2008,2026,2025,2027,1984
2036,2029,2010,2009,2024,2033,2042,1989
2043,2041,2025,2024,2030,2045,2057,2000
2046,2050,2025,2040,2040,2047,2042,2002
2057,2052,2025,2046,2045,2052,2058,2007
2052,2044,2031,2051,2045,2052,2033,2010
2049,2050,2038,2061,2047,2047,2054,2014
2051,2047,2038,2057,2043,2042,2064,2020
2046,2040,2030,2046,2039,2035,2053,2025
2045,2030,2025,2057,2049,2041,2048,2040
2042,2038,2035,2068,2050,2040,2051,2058
2049,2045,2056,2082,2053,2048,2042,2069
2056,2050,2060,2093,2056,2048,2059,2083
2048,2050,2063,2093,2050,2047,2059,2094
2044,2046,2064,2096,2061,2045,2070,2096
2053,2050,2069,2091,2062,2048,2066,2095
2051,2041,2068,2078,2056,2039,2055,2098
2036,2038,2065,2069,2045,2035,2042,2099
2045,2045,2087,2063,2039,2042,2046,2092
2051,2056,2096,2059,2046,2045,2047,2092
2049,2047,2082,2058,2045,2046,2056,2082
2042,2049,2064,2054,2031,2044,2048,2068
2044,2046,2064,2050,2034,2042,2042,2059
2046,2050,2056,2036,2026,2035,2059,2047
2047,2050,2051,2025,2021,2032,2044,2036
2040,2040,2052,2011,2022,2029,2045,2027
2040,2044,2053,2016,2024,2038,2041,2019
2043,2051,2061,2022,2031,2036,2054,2017
2043,2059,2063,2022,2033,2039,2046,2009
2047,2056,2054,2022,2035,2045,2043,2000
2045,2046,2054,2031,2038,2044,2041,1998
2038,2051,2061,2042,2038,2050,2031,1989
2040,2041,2048,2043,2037,2039,2033,1985
2035,2041,2052,2042,2042,2042,2048,1984
2041,2053,2064,2062,2050,2051,2068,1994
2048,2064,2071,2055,2054,2056,2074,2002
2051,2062,2065,2053,2055,2060,2078,2010
2047,2058,2056,2046,2052,2056,2066,2012
2052,2058,2054,2036,2053,2056,2062,2015
2049,2058,2052,2030,2052,2050,2060,2025
2049,2056,2050,2025,2061,2051,2060,2028
2050,2049,2043,2024,2059,2056,2073,2050
2050,2049,2053,2026,2057,2058,2071,2059
2049,2052,2058,2033,2061,2058,2065,2069
2051,2052,2061,2040,2070,2065,2082,2084
2051,2055,2063,2044,2066,2058,2071,2096
2054,2056,2062,2045,2071,2060,2061,2109
2049,2053,2060,2047,2061,2054,2059,2109
2043,2051,2051,2043,2050,2051,2055,2105
2034,2037,2039,2042,2045,2049,2042,2106
2030,2039,2049,2048,2054,2050,2050,2110
2038,2050,2046,2047,2051,2050,2042,2098
2038,2052,2051,2044,2045,2046,2030,2092
2035,2051,2045,2044,2049,2045,2027,2083
2038,2052,2045,2044,2035,2042,2048,2075
2043,2043,2040,2038,2039,2038,2047,2062
2047,2040,2030,2042,2038,2040,2025,2051
2041,2039,2024,2043,2038,2031,2049,2041
2039,2033,2020,2038,2036,2037,2054,2024
2043,2035,2022,2033,2033,2039,2057,2020
2038,2033,2018,2042,2037,2046,2041,2012
2036,2030,2021,2041,2033,2039,2044,2008
2046,2037,2030,2045,2043,2039,2026,2003
2054,2039,2024,2040,2036,2044,2036,2000
2053,2044,2023,2040,2035,2035,2028,1998
2045,2029,2014,2035,2036,2035,2012,1996
2046,2028,2024,2047,2040,2041,2052,2001
2056,2049,2041,2046,2048,2036,2055,2003
2058,2052,2041,2050,2044,2036,2039,2003
2049,2053,2063,2057,2049,2041,2052,2009
2050,2060,2083,2059,2052,2042,2052,2013
2054,2059,2082,2057,2054,2037,2046,2016
2050,2058,2083,2063,2054,2040,2047,2032
2052,2058,2087,2065,2062,2052,2050,2052
2056,2055,2082,2067,2058,2042,2071,2055
2052,2059,2075,2061,2062,2037,2049,2064
2049,2056,2063,2059,2066,2041,2047,2078
2057,2056,2057,2059,2060,2043,2064,2090
2056,2053,2056,2056,2056,2052,2064,2098
2054,2053,2063,2058,2061,2054,2057,2101
2054,2052,2060,2056,2053,2046,2043,2091
2042,2034,2049,2045,2043,2046,2047,2090
2030,2037,2047,2043,2047,2045,2052,2104
2042,2051,2058,2051,2043,2040,2056,2096
2053,2050,2054,2044,2031,2038,2059,2091
2057,2047,2051,2047,2033,2043,2047,2080
2045,2051,2054,2042,2035,2041,2067,2075
2045,2056,2044,2040,2035,2042,2052,2067
2050,2058,2046,2038,2025,2047,2053,2046
2050,2054,2047,2043,2030,2049,2045,2032
2048,2056,2042,2052,2035,2050,2053,2026
2056,2050,2047,2054,2037,2046,2059,2019
2045,2050,2046,2055,2044,2041,2065,2017
2047,2044,2043,2056,2041,2039,2050,2010
2046,2044,2048,2060,2042,2041,2030,2002
2043,2044,2047,2059,2047,2043,2047,1994
2044,2052,2049,2058,2043,2038,2033,1995
2048,2045,2044,2052,2039,2028,2010,1986
2046,2034,2037,2050,2040,2033,2026,1989
2047,2041,2038,2057,2052,2042,2042,1998
2054,2050,2043,2062,2054,2046,2019,1998
2054,2050,2045,2056,2053,2051,2028,1999
2054,2054,2052,2060,2051,2053,2060,2010
2053,2054,2058,2056,2058,2061,2056,2018
2058,2056,2054,2050,2060,2068,2044,2022
2053,2051,2050,2046,2057,2073,2052,2031
2053,2047,2050,2040,2058,2074,2051,2036
2059,2050,2062,2045,2056,2062,2059,2050
2056,2058,2073,2052,2065,2064,2069,2062
2052,2058,2074,2051,2066,2071,2070,2069
2052,2058,2072,2055,2068,2065,2048,2086
2051,2057,2068,2055,2064,2063,2060,2088
2042,2053,2061,2057,2062,2058,2056,2094
2043,2054,2056,2050,2058,2051,2034,2093
2035,2034,2044,2049,2046,2039,2045,2093
2029,2032,2043,2043,2046,2042,2047,2101
2039,2052,2052,2048,2047,2053,2058,2088
2047,2054,2052,2054,2046,2055,2062,2080
2044,2050,2049,2052,2049,2047,2057,2072
2051,2054,2055,2050,2045,2050,2059,2056
2049,2052,2053,2052,2040,2051,2050,2050
2040,2050,2050,2051,2034,2043,2033,2035
2045,2045,2049,2050,2037,2034,2030,2028
2049,2047,2049,2052,2030,2028,2031,2014
2041,2048,2050,2051,2041,2027,2046,2009
2045,2049,2045,2055,2037,2033,2033,2010
2042,2045,2048,2057,2035,2032,2034,2000
2048,2047,2044,2050,2036,2037,2036,1996
2047,2044,2045,2049,2042,2042,2021,1996
2050,2047,2047,2045,2044,2042,2012,1991
2046,2035,2029,2031,2041,2032,2021,1981
2041,2027,2029,2023,2030,2033,2029,1983
2053,2042,2037,2034,2034,2052,2044,1994
2049,2047,2040,2028,2043,2058,2038,2000
2058,2055,2039,2031,2045,2075,2057,2002
2056,2051,2040,2038,2046,2073,2068,2006
2052,2044,2036,2034,2046,2068,2058,2014
2054,2047,2049,2030,2048,2064,2066,2022
2051,2050,2053,2034,2048,2064,2044,2029
2053,2052,2056,2040,2054,2072,2052,2047
2049,2061,2060,2047,2059,2066,2075,2065
2055,2060,2062,2054,2062,2060,2079,2074
2055,2051,2056,2050,2068,2057,2068,2093
2049,2052,2059,2053,2066,2049,2052,2100
2047,2048,2057,2055,2063,2038,2060,2097
2044,2048,2050,2055,2061,2047,2033,2105
2046,2044,2038,2051,2058,2050,2043,2105
2040,2034,2029,2044,2051,2047,2046,2107
2038,2038,2042,2049,2053,2044,2066,2105
2048,2049,2044,2050,2050,2046,2079,2107
2048,2051,2049,2051,2044,2046,2080,2091
2050,2051,2053,2042,2048,2042,2074,2074
2049,2052,2058,2043,2039,2032,2078,2063
2045,2048,2049,2045,2036,2035,2069,2056
2048,2043,2049,2046,2039,2041,2062,2050
2052,2048,2053,2054,2049,2046,2057,2037
2046,2043,2041,2062,2053,2050,2040,2036
2045,2043,2033,2060,2048,2049,2064,2018
2053,2045,2030,2055,2054,2050,2060,2013
2048,2044,2034,2065,2046,2043,2045,2011
2051,2040,2042,2074,2048,2053,2051,2009
2052,2037,2048,2075,2054,2063,2041,1999
2054,2031,2051,2079,2056,2072,2056,1993
2045,2027,2043,2079,2046,2074,2026,1990
2037,2020,2037,2073,2036,2075,2024,1994
2048,2031,2037,2082,2049,2082,2037,1998
2047,2025,2030,2081,2051,2088,2049,1999
2045,2026,2029,2078,2046,2091,2046,2000
2043,2027,2027,2077,2052,2090,2051,1998
2042,2024,2022,2064,2054,2080,2051,2016
2052,2029,2010,2051,2052,2029,2044,2021
2051,2021,2009,2035,2048,1999,2052,2031
2045,2029,2025,2030,2046,2009,2056,2042
2048,2036,2045,2030,2050,2025,2059,2061
2044,2038,2054,2020,2045,2040,2058,2065
2041,2036,2065,2018,2051,2046,2062,2082
2045,2042,2064,2019,2039,2047,2063,2098
2052,2050,2067,2017,2045,2051,2056,2101
2045,2059,2064,2022,2054,2056,2056,2111
2052,2055,2064,2019,2046,2052,2058,2105
2047,2050,2059,2022,2042,2041,2054,2104
2040,2045,2068,2032,2039,2035,2056,2101
2048,2055,2077,2037,2038,2036,2052,2103
2050,2056,2076,2040,2043,2036,2059,2092
2044,2057,2085,2036,2043,2044,2045,2086
2057,2056,2083,2039,2034,2046,2048,2079
2059,2060,2074,2042,2033,2044,2074,2065
2053,2053,2062,2040,2029,2043,2034,2058
2052,2055,2055,2039,2027,2043,2014,2041
2055,2052,2054,2039,2026,2042,2036,2027
2050,2050,2058,2046,2029,2045,2043,2021
2056,2046,2058,2041,2030,2041,2043,2011
2048,2046,2051,2038,2022,2043,2044,2000
2049,2039,2050,2034,2024,2040,2054,1998
2053,2041,2050,2045,2026,2040,2056,1995
2047,2043,2051,2052,2022,2042,2049,1994
2050,2037,2050,2046,2026,2035,2039,1993
2043,2037,2038,2042,2030,2039,2014,2001
2051,2046,2046,2050,2041,2051,2033,2000
2055,2043,2039,2055,2042,2049,2039,2007
2056,2040,2036,2052,2040,2054,2039,2006
2053,2038,2032,2053,2043,2050,2034,2012
2052,2033,2025,2054,2055,2053,2072,2016
2051,2030,2023,2053,2053,2055,2083,2023
2049,2030,2024,2045,2067,2054,2060,2031
2043,2030,2030,2039,2053,2056,2061,2046
2045,2031,2031,2039,2053,2053,2066,2063
2047,2036,2030,2029,2056,2049,2072,2072
2054,2036,2031,2030,2058,2051,2063,2084
2054,2040,2041,2036,2055,2051,2044,2097
2050,2045,2040,2040,2053,2043,2060,2102
2047,2043,2038,2045,2054,2043,2076,2105
2048,2037,2043,2047,2051,2041,2069,2104
2035,2028,2035,2042,2041,2033,2068,2109
2043,2028,2041,2046,2046,2044,2062,2113
2058,2058,2066,2058,2046,2044,2071,2110
2054,2060,2073,2057,2041,2045,2064,2105
2064,2063,2075,2058,2035,2042,2064,2096
2066,2060,2077,2060,2034,2040,2049,2086
2065,2064,2066,2060,2035,2043,2072,2081
2058,2052,2069,2061,2021,2036,2054,2062
2063,2051,2064,2058,2028,2040,2071,2050
2056,2050,2062,2070,2027,2040,2069,2042
2059,2050,2063,2062,2033,2044,2059,2030
2067,2052,2052,2053,2029,2044,2061,2022
2056,2042,2045,2039,2028,2035,2052,2015
2057,2041,2049,2035,2030,2042,2045,2020
2057,2041,2047,2030,2028,2046,2042,2012
2060,2052,2065,2028,2036,2049,2073,2015
2067,2065,2065,2023,2036,2045,2060,2016
2061,2052,2054,2023,2031,2046,2050,2010
2062,2043,2056,2032,2043,2052,2073,2011
2065,2060,2061,2041,2042,2051,2044,2010
2061,2056,2060,2043,2049,2051,2065,2011
2060,2052,2057,2046,2052,2051,2073,2017
2059,2050,2047,2050,2055,2054,2070,2025
2054,2053,2045,2047,2054,2053,2064,2032
2062,2051,2040,2049,2057,2056,2059,2031
2057,2051,2040,2049,2052,2051,2046,2042
2059,2047,2046,2050,2062,2053,2052,2056
2061,2045,2042,2044,2064,2051,2050,2066
2053,2049,2045,2043,2056,2046,2050,2074
2055,2049,2053,2052,2060,2052,2064,2094
2060,2053,2067,2055,2058,2047,2063,2099
2060,2063,2072,2059,2068,2049,2072,2112
2056,2059,2076,2060,2059,2048,2059,2113
2058,2047,2062,2048,2052,2037,2045,2105
2050,2041,2062,2052,2045,2033,2063,2106
2051,2052,2064,2052,2042,2037,2066,2112
2054,2050,2060,2049,2043,2040,2056,2107
2059,2050,2055,2048,2045,2041,2050,2097
2063,2043,2054,2049,2036,2041,2044,2088
2060,2043,2057,2051,2039,2035,2033,2073
2059,2045,2063,2055,2035,2034,2041,2058
2060,2051,2066,2059,2038,2037,2050,2047
2060,2049,2071,2058,2042,2037,2054,2035
2057,2051,2069,2062,2038,2040,2054,2031
2061,2047,2061,2062,2034,2039,2044,2024
2059,2045,2060,2059,2035,2035,2040,2016
2054,2038,2054,2043,2035,2043,2041,2014
2059,2038,2050,2045,2034,2045,2044,2009
2053,2036,2040,2046,2041,2047,2050,2007
2056,2036,2037,2045,2043,2046,2051,2004
2045,2024,2027,2046,2039,2040,2060,2000
2047,2021,2025,2047,2042,2039,2051,1992
2054,2034,2034,2058,2054,2052,2047,2007
2062,2041,2033,2050,2052,2048,2059,2010
2061,2038,2026,2049,2047,2049,2060,2009
2059,2037,2025,2054,2058,2051,2064,2013
2060,2040,2020,2051,2054,2051,2070,2015
2062,2038,2013,2054,2061,2057,2060,2024
2059,2040,2017,2056,2065,2054,2074,2034
2052,2035,2007,2056,2061,2057,2071,2041
2043,2036,2004,2060,2063,2056,2072,2047
2050,2039,2010,2065,2056,2052,2071,2058
2052,2032,2010,2069,2062,2050,2076,2073
2049,2031,2020,2073,2054,2045,2077,2086
2046,2030,2035,2069,2047,2041,2070,2096
2045,2032,2038,2062,2040,2038,2066,2093
2042,2034,2056,2071,2039,2035,2055,2102
2044,2041,2073,2068,2042,2033,2049,2102
2045,2040,2072,2062,2042,2037,2055,2107
2045,2056,2069,2049,2040,2038,2040,2100
2052,2050,2061,2047,2045,2036,2029,2088
2056,2051,2067,2038,2042,2034,2055,2080
2046,2060,2074,2041,2039,2036,2064,2069
2046,2056,2073,2032,2031,2041,2051,2060
2041,2047,2062,2020,2028,2041,2046,2046
2039,2054,2073,2029,2029,2038,2067,2045
2045,2060,2085,2030,2033,2045,2061,2032
2048,2062,2096,2025,2036,2042,2055,2024
2051,2068,2082,2026,2037,2044,2055,2021
2055,2065,2064,2014,2039,2048,2045,2018
2052,2057,2048,2016,2038,2050,2052,2016
2052,2054,2049,2011,2031,2048,2058,2006
2050,2050,2044,2017,2033,2042,2070,2002
2049,2048,2032,2015,2035,2033,2047,1995
2045,2039,2029,2015,2034,2031,2053,1997
2049,2040,2039,2028,2045,2046,2051,2005
2057,2053,2051,2037,2052,2051,2069,2009
2056,2052,2052,2037,2052,2044,2053,2011
2059,2048,2051,2036,2047,2049,2063,2019
2057,2052,2051,2034,2049,2046,2054,2029
2068,2052,2054,2039,2052,2047,2068,2031
2065,2054,2055,2041,2056,2044,2048,2042
2061,2055,2062,2049,2056,2043,2058,2044
2056,2056,2064,2052,2056,2048,2055,2057
2056,2054,2057,2050,2066,2049,2043,2071
2055,2049,2052,2055,2071,2048,2052,2089
2057,2052,2054,2065,2076,2048,2058,2096
2052,2055,2062,2058,2067,2046,2064,2107
2053,2057,2060,2053,2053,2038,2060,2110
2054,2050,2057,2054,2054,2025,2058,2102
2041,2034,2048,2042,2035,2014,2058,2109
2042,2036,2045,2046,2044,2022,2051,2116
2049,2047,2055,2048,2049,2026,2052,2108
2051,2046,2048,2052,2046,2026,2046,2102
2052,2044,2044,2051,2040,2022,2061,2095
2054,2044,2053,2051,2046,2027,2030,2084
2056,2046,2056,2052,2049,2034,2030,2066
2056,2050,2065,2054,2049,2039,2049,2054
2055,2052,2059,2054,2052,2042,2051,2052
2052,2045,2061,2053,2048,2054,2054,2036
2053,2046,2049,2062,2047,2061,2051,2028
2044,2040,2042,2066,2053,2062,2057,2016
2044,2036,2041,2073,2047,2058,2064,2011
2047,2036,2045,2072,2045,2057,2063,2010
2046,2031,2039,2074,2049,2055,2062,2009
2053,2029,2040,2077,2050,2052,2065,2002
2039,2014,2029,2070,2039,2045,2058,2000
2043,2019,2025,2064,2041,2054,2059,2002
2046,2033,2028,2074,2053,2051,2061,2006
2052,2036,2033,2073,2053,2051,2063,2006
2057,2039,2026,2070,2049,2053,2064,2010
2056,2041,2033,2065,2051,2050,2047,2016
2051,2038,2029,2065,2051,2058,2043,2025
2049,2043,2022,2050,2049,2056,2058,2029
2049,2041,2012,2024,2038,2043,2069,2046
2048,2033,2017,2010,2028,2038,2058,2059
2046,2047,2034,2013,2043,2049,2075,2070
2051,2056,2051,2027,2052,2053,2066,2083
2055,2055,2056,2029,2051,2054,2056,2092
2053,2060,2061,2028,2057,2052,2039,2104
2048,2056,2074,2034,2056,2048,2060,2110
2044,2055,2083,2041,2046,2045,2058,2100
2032,2036,2076,2040,2041,2045,2042,2110
2036,2040,2073,2037,2050,2054,2065,2115
2049,2053,2073,2049,2050,2053,2049,2100
2049,2049,2062,2050,2050,2054,2037,2094
2043,2045,2049,2050,2046,2052,2030,2081
2048,2046,2046,2055,2056,2056,2044,2077
2050,2042,2049,2056,2051,2053,2049,2053
2043,2047,2040,2053,2047,2050,2044,2040
2049,2041,2037,2055,2046,2046,2056,2033
2046,2038,2036,2058,2043,2037,2055,2022
2045,2037,2040,2064,2054,2046,2047,2020
2045,2036,2037,2065,2054,2051,2037,2016
2045,2039,2045,2063,2046,2052,2049,2010
2050,2041,2051,2063,2042,2051,2068,2005
2049,2039,2045,2064,2044,2054,2074,1999
2050,2050,2049,2065,2042,2051,2069,2000
2041,2045,2050,2061,2044,2053,2064,1994
2042,2042,2057,2068,2043,2044,2057,2000
2058,2045,2066,2075,2049,2040,2055,1998
2046,2045,2064,2076,2048,2037,2042,1993
2043,2037,2073,2079,2044,2032,2038,1998
2050,2040,2080,2084,2053,2028,2048,2003
2049,2040,2072,2076,2063,2039,2065,2013
2057,2048,2070,2073,2069,2055,2072,2024
2063,2049,2064,2060,2062,2051,2068,2035
2054,2046,2056,2053,2063,2051,2070,2048
2063,2045,2053,2048,2069,2054,2068,2059
2070,2043,2045,2043,2071,2053,2068,2071
2069,2045,2042,2043,2071,2049,2076,2089
2058,2040,2034,2044,2068,2046,2061,2101
2055,2036,2030,2044,2060,2047,2081,2110
2049,2037,2034,2051,2059,2052,2081,2114
2052,2039,2035,2051,2050,2038,2056,2107
2042,2023,2019,2043,2044,2035,2054,2105
2042,2021,2023,2042,2044,2041,2065,2107
2052,2045,2040,2050,2039,2036,2053,2104
2052,2042,2042,2045,2034,2035,2058,2093
2050,2040,2041,2041,2039,2031,2065,2089
2056,2040,2035,2034,2025,2034,2064,2075
2051,2040,2040,2033,2025,2032,2057,2066
2049,2042,2044,2038,2039,2038,2058,2057
2057,2038,2057,2049,2037,2044,2029,2041
2058,2042,2062,2056,2040,2046,2045,2028
2053,2049,2072,2056,2047,2040,2050,2020
2050,2046,2076,2066,2048,2042,2045,2020
2050,2041,2075,2063,2047,2046,2038,2011
2054,2042,2076,2068,2055,2047,2038,2004
2047,2050,2076,2072,2057,2050,2036,2006
2052,2049,2074,2067,2054,2043,2038,1994
2043,2030,2050,2061,2046,2037,2049,1990
2046,2035,2038,2064,2059,2049,2047,2002
2056,2042,2046,2077,2066,2057,2054,2000
2053,2042,2055,2083,2067,2061,2065,2007
2052,2044,2049,2075,2063,2060,2068,2012
2054,2043,2046,2067,2054,2057,2051,2021
2056,2041,2039,2053,2060,2057,2046,2026
2053,2035,2041,2050,2056,2057,2059,2034
2050,2039,2034,2053,2052,2067,2057,2037
2053,2044,2043,2047,2048,2061,2044,2046
2056,2051,2041,2045,2045,2059,2054,2061
2057,2062,2051,2047,2051,2059,2050,2077
2056,2060,2051,2048,2050,2059,2050,2087
2059,2067,2040,2050,2064,2034,2043,2103
2062,2063,2039,2060,2064,2028,2037,2114
2059,2066,2043,2054,2066,2036,2038,2118
2054,2049,2031,2048,2046,2033,2039,2107
2046,2041,2028,2041,2049,2033,2047,2110
2058,2053,2026,2042,2041,2039,2049,2112
2067,2046,2015,2036,2041,2037,2040,2105
2057,2039,2005,2034,2046,2032,2055,2088
2057,2034,1999,2041,2044,2038,2043,2077
2053,2030,2004,2056,2056,2041,2049,2062
2053,2037,2015,2071,2059,2040,2039,2049
2050,2032,2028,2083,2060,2040,2041,2032
2047,2029,2033,2081,2056,2041,2031,2019
2048,2030,2035,2078,2055,2046,2033,2013
2042,2029,2033,2065,2052,2041,2029,2010
2042,2027,2031,2054,2046,2048,2043,2003
2040,2026,2027,2047,2049,2043,2045,1998
2044,2031,2022,2039,2047,2043,2045,1999
2048,2033,2009,2035,2038,2037,2043,1998
2049,2033,1988,2027,2026,2029,2042,1990
2042,2025,1971,2033,2018,2025,2040,1986
2041,2022,1984,2036,2024,2030,2033,1997
2048,2036,1988,2027,2027,2027,2027,1991
2037,2021,1979,2004,2019,2026,2024,1990
2028,2023,2004,2010,2038,2027,2047,1992
2041,2033,2051,2040,2053,2030,2052,2020
2050,2054,2074,2043,2065,2043,2052,2028
2057,2064,2073,2037,2074,2060,2053,2042
2053,2059,2060,2031,2074,2068,2056,2049
2057,2056,2060,2040,2080,2060,2058,2059
2061,2061,2073,2049,2079,2058,2057,2065
2059,2067,2080,2042,2074,2057,2070,2087
2065,2077,2100,2044,2071,2057,2065,2103
2062,2077,2107,2050,2078,2052,2075,2118
2063,2077,2102,2053,2070,2051,2067,2126
2060,2077,2099,2049,2061,2047,2057,2124
2052,2060,2085,2038,2051,2030,2027,2123
2049,2059,2085,2032,2041,2035,2044,2120
2049,2066,2096,2038,2039,2040,2053,2111
2052,2067,2082,2035,2030,2043,2043,2105
2054,2064,2074,2033,2022,2042,2038,2096
2054,2061,2064,2042,2019,2035,2052,2081
2057,2054,2066,2050,2027,2042,2060,2069
2049,2047,2069,2062,2021,2032,2048,2057
2047,2046,2064,2080,2015,2022,2031,2041
2048,2050,2064,2081,1992,2018,2041,2040
2056,2051,2058,2077,1978,2018,2038,2024
2044,2040,2054,2072,1977,2013,2033,2011
2038,2037,2044,2067,1980,2014,2014,2004
2034,2037,2040,2064,1992,2020,2010,1999
2041,2049,2047,2077,2037,2042,2042,2005
2053,2054,2052,2087,2074,2057,2061,2009
2052,2052,2046,2074,2071,2055,2041,1992
2038,2038,2029,2066,2060,2064,2046,1988
2041,2031,2026,2060,2054,2065,2051,1993
2046,2050,2043,2058,2048,2061,2051,1995
2050,2056,2043,2058,2039,2059,2050,1998
2053,2056,2042,2046,2038,2052,2048,2006
2055,2058,2043,2041,2044,2049,2046,2006
2056,2058,2034,2032,2047,2045,2047,2020
2056,2051,2027,2029,2053,2048,2036,2026
2051,2050,2026,2031,2073,2050,2058,2035
2056,2056,2048,2036,2070,2054,2068,2051
2056,2068,2065,2042,2049,2042,2064,2064
2050,2061,2068,2036,2008,2034,2042,2074
2050,2059,2065,2031,2003,2037,2042,2086
2049,2055,2056,2032,1992,2045,2056,2090
2046,2048,2052,2024,2002,2060,2050,2081
2037,2040,2051,2031,2032,2081,2058,2097
2052,2037,2049,2041,2039,2078,2040,2090
2038,2033,2037,2045,2038,2064,2036,2106
2048,2039,2043,2052,2049,2058,2048,2113
2052,2042,2043,2047,2045,2064,2034,2091
2043,2035,2032,2032,2025,2043,2038,2084
2035,2034,2022,2031,2008,2031,2035,2083
2045,2047,2041,2053,2052,2035,2049,2091
2064,2064,2052,2076,2072,2053,2069,2080
2072,2070,2061,2079,2081,2066,2054,2074
2072,2064,2058,2082,2092,2077,2051,2054
2064,2058,2063,2076,2133,2068,2047,2042
2061,2058,2061,2072,2143,2060,2047,2026
2050,2054,2061,2072,2122,2054,2029,2021
2054,2062,2054,2061,2101,2052,2039,2007
2054,2061,2053,2061,2087,2059,2047,2003
2060,2064,2053,2054,2043,2086,2050,1996
2052,2057,2046,2058,1998,2101,2046,1990
2044,2038,2027,2046,1954,2109,2030,1978
2033,2028,2032,2031,1922,2109,2029,1979
2036,2032,2040,2023,1862,2086,2027,1972
2036,2036,2041,2006,1810,2017,2024,1989
2044,2045,2049,2030,1957,1957,2038,2010
2057,2059,2071,2073,2061,1953,2030,2026
2064,2089,2085,2101,2108,1975,2049,2036
2069,2099,2089,2103,2109,1989,2043,2052
2070,2100,2084,2092,2091,2009,2045,2042
2059,2093,2072,2068,2098,2062,2057,2043
2055,2090,2065,2079,2131,2092,2074,2064
2062,2091,2073,2103,2140,2089,2071,2075
2069,2084,2075,2089,2130,2082,2090,2090
2057,2070,2061,2068,2112,2085,2080,2105
2055,2058,2053,2052,2102,2086,2075,2109
2053,2040,2029,2036,2060,2065,2068,2107
2047,2008,2000,2012,2011,2036,2052,2113
2040,1984,1989,2005,1986,2033,2047,2125
2045,1992,1980,1999,1973,2026,2047,2122
2053,1995,1983,1997,1948,2013,2037,2100
2052,1998,2005,1997,1916,2014,2030,2085
2052,2016,2028,2011,1904,2012,2015,2066
2040,2003,2021,2019,1928,2007,2015,2058
2027,1984,2008,2020,1956,2018,2016,2050
2026,2001,2009,2020,1978,2029,1997,2039
2027,2025,2016,2022,2001,2047,2011,2036
2039,2039,2028,2029,2019,2052,2031,2032
2040,2050,2032,2033,2046,2046,2019,2018
2039,2038,2024,2028,2078,2048,1998,2002
2027,2024,2012,2031,2110,2075,1998,2002
2029,2019,2016,2039,2131,2089,2012,1997
2033,2032,2027,2041,2128,2104,2036,1992
2042,2032,2026,2041,2108,2105,2026,1980
2029,2013,2006,2024,2083,2078,2005,1985
2021,2007,2004,2036,2084,2068,2031,1998
2035,2023,2018,2046,2083,2083,2029,2003
2048,2020,2025,2053,2085,2093,2049,2004
2039,2011,2021,2054,2089,2068,2010,1994
2037,2016,2019,2056,2071,2022,1998,1992
2034,2009,2013,2048,2048,2039,2028,1995
2035,1999,2011,2042,2032,2045,2032,2009
2029,1999,2011,2038,2021,2053,2028,2016
2037,2006,2016,2038,2022,2056,2022,2029
2037,2017,2027,2039,2016,2028,2019,2050
2045,2018,2040,2053,2058,1990,2020,2069
2044,2016,2041,2066,2109,2014,2046,2085
2032,2020,2039,2064,2121,2042,2059,2098
2037,1995,2039,2059,2118,2061,2047,2102
2037,1986,2041,2045,2087,2056,2046,2100
2030,1970,2023,2023,2054,2031,2021,2097
2018,1947,2002,2018,2079,2030,2012,2108
2026,1984,2010,2027,2126,2062,2030,2117
2050,2041,2041,2050,2148,2079,2035,2119
2055,2055,2036,2058,2140,2083,2019,2094
2038,2076,2032,2055,2131,2091,2012,2073
2038,2133,2055,2063,2129,2094,2036,2073
2046,2162,2071,2068,2099,2084,2022,2063
2046,2169,2068,2051,2047,2070,2049,2054
2045,2157,2056,2041,2036,2054,2056,2045
2045,2146,2052,2060,2046,2050,2044,2041
2055,2131,2050,2071,2015,2076,2038,2030
2051,2117,2050,2047,1881,2051,2018,2011
2033,2085,2030,2010,1833,2027,2005,1994
2028,2056,2029,2014,1918,2036,2020,1987
2034,2046,2029,2045,1989,2043,2016,1991
2038,2021,2028,2069,2056,2013,2006,1988
2034,1989,2019,2076,2121,1992,2017,1984
2044,1984,2026,2089,2180,2038,2046,1999
2060,1990,2039,2093,2198,2077,2056,2002
2051,1974,2025,2057,2112,2071,2057,1998
2041,1959,2014,2018,1985,2043,2037,1995
2044,1958,2009,2000,1989,2013,2035,2005
2044,1957,2016,2011,2044,2015,2039,2020
2052,1959,2022,2029,2070,2036,2047,2039
2061,1964,2029,2047,2085,2057,2048,2041
2053,1981,2038,2052,2084,2066,2062,2043
2058,2001,2055,2059,2056,2064,2042,2061
2072,2023,2064,2043,1969,2047,2052,2092
2082,2038,2068,2041,1933,2040,2039,2110
2077,2041,2066,2043,1977,2032,2054,2118
2074,2052,2069,2040,1989,2031,2066,2125
2076,2057,2077,2043,1997,2029,2039,2125
2067,2047,2065,2028,1974,2018,2007,2127
2061,2037,2051,2021,1964,2011,2002,2118
2059,2036,2056,2020,1965,2010,2004,2116
2053,2037,2041,2036,2004,2014,2037,2108
2043,2043,2050,2051,2052,2026,2017,2102
2040,2059,2068,2078,2091,2038,2030,2104
2048,2075,2078,2071,2065,2039,2046,2087
2048,2074,2075,2064,2055,2041,2032,2068
2048,2063,2078,2069,2092,2049,2044,2063
2060,2066,2074,2068,2124,2057,2034,2051
2060,2070,2072,2055,2099,2055,2018,2046
2064,2066,2075,2049,2071,2043,2029,2034
2067,2074,2074,2034,2040,2039,2023,2035
2069,2081,2068,2033,2024,2044,2035,2016
2070,2083,2071,2032,2014,2062,2053,2010
2072,2091,2074,2035,2021,2075,2043,2010
2074,2103,2075,2032,2014,2074,2043,2001
2058,2098,2069,2028,2009,2076,2037,2001
2058,2104,2078,2036,2019,2081,2042,2010
2070,2130,2085,2046,2016,2067,2044,2017
2069,2125,2083,2036,2018,2047,2024,2016
2066,2125,2085,2039,2052,2040,2003,2020
2070,2124,2084,2043,2065,2041,2002,2026
2067,2117,2082,2062,2101,2057,2016,2039
2074,2111,2086,2080,2103,2065,2055,2052
2065,2096,2079,2080,2101,2062,2037,2058
2068,2089,2073,2067,2083,2058,2039,2059
2060,2073,2072,2061,2069,2056,2045,2065
2056,2068,2066,2056,2061,2055,2049,2084
2057,2058,2060,2058,2057,2057,2057,2090
2055,2057,2061,2054,2048,2057,2043,2101
2057,2057,2064,2055,2029,2054,2046,2109
2052,2050,2068,2053,2027,2061,2046,2111
2051,2037,2056,2043,2028,2064,2037,2111
2047,2039,2052,2043,2021,2059,2030,2125
2057,2053,2058,2049,2027,2061,2044,2120
2050,2052,2053,2048,2033,2059,2038,2107
2054,2046,2046,2040,2055,2064,2038,2100
2055,2050,2047,2038,2069,2064,2041,2100
2056,2050,2047,2042,2076,2064,2029,2077
2052,2055,2040,2036,2090,2068,2045,2060
2047,2054,2042,2044,2121,2068,2034,2050
2042,2053,2047,2048,2130,2079,2031,2037
2041,2055,2054,2068,2106,2085,2036,2032
2045,2056,2052,2070,2087,2083,2038,2036
2052,2059,2054,2064,2057,2070,2039,2026
2045,2056,2054,2059,2017,2053,2040,2021
2054,2060,2051,2043,1984,2032,2032,2018
2054,2062,2051,2042,1980,2033,2013,2019
2046,2061,2051,2038,2010,2035,2027,2012
2048,2051,2045,2045,2034,2046,2013,2010
2041,2057,2047,2054,2052,2058,2027,2013
2055,2065,2057,2069,2062,2067,2025,2024
2062,2060,2056,2069,2066,2061,2016,2016
2053,2056,2052,2061,2060,2052,2028,2013
2050,2060,2065,2059,2061,2052,2026,2014
2050,2062,2071,2073,2057,2058,2041,2024
2056,2071,2077,2068,2056,2045,2037,2036
2061,2071,2071,2067,2042,2038,2032,2054
2061,2073,2066,2075,2046,2048,2048,2062
2053,2069,2068,2074,2042,2042,2055,2074
2052,2077,2072,2068,2030,2032,2047,2087
2053,2071,2065,2066,2026,2029,2030,2089
2050,2069,2062,2062,2047,2032,2021,2091
2041,2062,2056,2054,2068,2034,2042,2100
2042,2061,2050,2044,2075,2040,2035,2103
2043,2056,2051,2041,2071,2046,2047,2116
2047,2069,2059,2051,2072,2051,2046,2132
2060,2082,2066,2050,2080,2064,2048,2128
2068,2075,2048,2030,2086,2086,2034,2112
2067,2079,2047,2034,2090,2092,2038,2111
2067,2090,2042,2046,2097,2094,2053,2092
2063,2085,2051,2046,2072,2105,2040,2074
2058,2073,2053,2042,2049,2093,2028,2049
2048,2065,2048,2044,2047,2096,2026,2040
2058,2061,2044,2040,2029,2084,2017,2032
2054,2062,2039,2037,2029,2045,2033,2033
2061,2066,2038,2053,2056,2017,2039,2038
2069,2073,2042,2061,2069,2018,2049,2036
2064,2064,2046,2059,2031,2019,2062,2030
2064,2063,2047,2063,2050,2045,2056,2030
2065,2062,2047,2076,2103,2078,2053,2017
2057,2050,2035,2077,2100,2070,2055,2013
2047,2048,2043,2076,2086,2076,2078,2011
2050,2066,2062,2093,2085,2086,2062,2014
2057,2069,2064,2097,2092,2092,2084,2021
2052,2072,2063,2106,2097,2099,2082,2026
2058,2077,2073,2103,2072,2103,2099,2026
2063,2078,2073,2100,2065,2100,2102,2040
2066,2085,2062,2082,2038,2070,2088,2040
2062,2077,2056,2063,2015,2043,2069,2040
2062,2079,2062,2062,1967,2051,2067,2048
2066,2082,2058,2063,1967,2066,2073,2064
2055,2078,2049,2055,2058,2051,2059,2072
2054,2067,2039,2035,2059,2042,2048,2072
2039,2056,2026,2016,2029,2044,2037,2073
2040,2051,2032,2020,2060,2059,2052,2088
2030,2046,2035,2032,2118,2066,2056,2094
2030,2038,2032,2030,2156,2040,2032,2096
2027,2024,2021,2023,2110,2005,2040,2088
2026,2024,2030,2029,2067,1991,2032,2086
2029,2045,2044,2039,2043,1993,2043,2084
2037,2045,2047,2052,2054,2001,2032,2078
2044,2045,2044,2057,2080,2017,2021,2071
2047,2051,2045,2050,2070,2017,2041,2059
2041,2050,2042,2044,2051,2030,2024,2049
2041,2052,2042,2038,2049,2049,2032,2037
2044,2054,2042,2038,2037,2054,2036,2034
2044,2055,2045,2039,2047,2055,2017,2028
2047,2063,2051,2039,2044,2059,2034,2027
2045,2063,2049,2044,2047,2041,2038,2027
2054,2072,2057,2045,2044,2025,2063,2023
2054,2068,2049,2045,2028,2028,2049,2015
2060,2063,2050,2034,1966,2024,2057,2012
2055,2063,2048,2027,1898,2025,2043,2006
2049,2052,2042,2034,1952,2016,2040,1997
2044,2050,2030,2035,1991,2019,2034,1998
2045,2058,2032,2043,2032,2031,2043,1992
2048,2059,2040,2055,2069,2046,2049,1994
2051,2064,2047,2066,2104,2060,2046,1993
2051,2066,2046,2067,2102,2058,2066,2006
2053,2060,2050,2064,2079,2058,2056,2016
2056,2061,2047,2057,2077,2046,2060,2026
2060,2062,2053,2054,2065,2042,2047,2038
2055,2067,2054,2064,2062,2047,2064,2051
2061,2076,2055,2065,2065,2040,2056,2065
2060,2070,2055,2061,2059,2042,2072,2070
2052,2073,2052,2062,2063,2055,2059,2087
2055,2067,2052,2062,2052,2063,2063,2086
2050,2058,2048,2055,2050,2074,2063,2090
2044,2060,2044,2044,2050,2075,2064,2089
2041,2059,2036,2048,2047,2094,2062,2096
2035,2045,2034,2046,2056,2101,2056,2098
2035,2045,2037,2052,2089,2117,2065,2098
2041,2052,2044,2058,2105,2111,2058,2087
2044,2050,2043,2058,2102,2060,2048,2087
2044,2053,2036,2051,2071,2022,2043,2076
2039,2051,2034,2046,2056,2034,2044,2067
2039,2059,2032,2046,2049,2050,2045,2052
2044,2051,2030,2041,2043,2059,2046,2039
2039,2046,2021,2030,2052,2066,2047,2026
2044,2050,2033,2054,2076,2033,2043,2030
2057,2059,2047,2078,2086,2022,2050,2024
2046,2058,2042,2066,2044,2031,2052,2016
2046,2055,2041,2059,2015,2032,2048,2006
2037,2047,2032,2052,1996,2005,2039,2001
2042,2045,2031,2050,2007,2010,2049,2000
2048,2044,2030,2052,2056,2031,2050,1995
2049,2036,2028,2058,2061,2045,2061,2002
2051,2046,2036,2062,2088,2056,2075,2011
2067,2060,2043,2072,2096,2064,2068,2008
2061,2056,2047,2072,2100,2070,2049,1995
2055,2055,2053,2080,2078,2070,2041,1996
2051,2054,2048,2070,2025,2053,2032,1997
2040,2053,2046,2054,1944,2020,2038,2004
2040,2051,2037,2049,1959,1998,2027,2011
2037,2042,2040,2048,2015,2008,2030,2024
2034,2049,2040,2063,2055,2028,2039,2036
2036,2052,2037,2053,2068,2040,2041,2048
2033,2050,2034,2047,2067,2054,2055,2064
2033,2043,2032,2046,2095,2050,2055,2075
2032,2043,2035,2051,2097,2045,2044,2083
2036,2044,2034,2047,2073,2036,2042,2088
2031,2047,2041,2045,2056,2052,2048,2097
2025,2038,2037,2040,2044,2059,2035,2093
2020,2039,2050,2039,2041,2065,2045,2099
2030,2054,2067,2052,2031,2067,2040,2090
2039,2056,2060,2049,2024,2052,2036,2074
2037,2049,2050,2056,2020,2027,2037,2074
2035,2046,2050,2064,2050,2026,2046,2067
2043,2044,2045,2080,2073,2028,2045,2050
2041,2046,2040,2084,2073,2038,2043,2039
2043,2051,2043,2091,2086,2047,2053,2033
2046,2047,2048,2093,2082,2050,2054,2033
2051,2058,2052,2091,2080,2044,2048,2024
2049,2057,2049,2091,2074,2039,2028,2012
2049,2052,2047,2090,2059,2037,2032,2004
2044,2053,2043,2080,2054,2029,2028,2000
2045,2054,2049,2079,2056,2032,2027,1994
2043,2052,2049,2078,2047,2032,2003,1984
2040,2044,2045,2077,2032,2026,1997,1974
2034,2034,2041,2059,2023,2025,2007,1976
2033,2047,2053,2058,2029,2034,2019,1979
2040,2054,2061,2063,2030,2037,2017,1992
2038,2057,2061,2061,2038,2042,2028,2007
2047,2056,2070,2050,2042,2049,2059,2013
2048,2049,2062,2043,2048,2051,2040,2017
2037,2044,2056,2042,2050,2054,2038,2020
2037,2045,2048,2040,2061,2054,2026,2036
2040,2049,2049,2052,2093,2065,2021,2047
2040,2042,2054,2061,2106,2080,2063,2061
2043,2058,2075,2074,2106,2080,2068,2070
2051,2064,2066,2068,2101,2079,2064,2084
2051,2066,2063,2069,2091,2073,2069,2088
2046,2057,2051,2065,2087,2077,2073,2091
2043,2056,2048,2061,2057,2072,2054,2094
2035,2042,2036,2045,2061,2062,2033,2090
2030,2037,2023,2031,2037,2052,2024,2099
2034,2051,2042,2037,2018,2045,2037,2088
2037,2055,2050,2039,2015,2047,2032,2087
2046,2064,2057,2043,2001,2051,2046,2082
2045,2062,2069,2052,2004,2053,2052,2071
2042,2060,2064,2048,2000,2044,2046,2062
2043,2062,2061,2042,1996,2028,2039,2041
2036,2060,2059,2042,2018,2029,2022,2029
2042,2053,2057,2052,2076,2054,2028,2017
2041,2054,2055,2060,2081,2071,2051,2017
2044,2056,2056,2057,2062,2063,2062,2007
2041,2055,2055,2053,2055,2060,2035,1998
2034,2054,2052,2048,2047,2066,2058,2000
2040,2054,2046,2045,2049,2069,2058,1995
2049,2055,2040,2055,2052,2064,2051,1992
2038,2045,2039,2059,2042,2055,2039,1987
2033,2040,2044,2058,2041,2060,2046,1989
2047,2052,2056,2076,2060,2082,2066,1996
2042,2057,2052,2075,2067,2086,2069,1994
2040,2055,2053,2075,2063,2071,2056,1998
2044,2062,2056,2071,2062,2070,2063,2007
2046,2064,2058,2074,2071,2071,2061,2013
2043,2067,2057,2077,2077,2039,2054,2016
2044,2067,2048,2069,2069,1995,2046,2025
2043,2059,2046,2065,2064,2004,2024,2034
2037,2060,2046,2063,2068,2010,2036,2045
2033,2062,2043,2059,2063,2013,2045,2052
2034,2061,2044,2054,2072,2031,2043,2069
2032,2053,2044,2050,2065,2037,2039,2079
2038,2053,2049,2045,2068,2039,2046,2086
2033,2052,2052,2039,2064,2035,2041,2089
2035,2044,2049,2034,2056,2030,2038,2090
2026,2041,2045,2041,2056,2032,2046,2101
2025,2046,2054,2043,2044,2035,2033,2099
2033,2051,2063,2055,2046,2032,2031,2092
2030,2050,2060,2062,2045,2038,2053,2086
2038,2050,2058,2062,2043,2039,2060,2071
2039,2053,2058,2066,2039,2038,2056,2066
2037,2051,2039,2056,2032,2035,2057,2047
2036,2050,2037,2058,2038,2037,2054,2037
2032,2052,2040,2061,2039,2046,2046,2031
2039,2052,2040,2065,2047,2060,2048,2020
2041,2047,2051,2067,2047,2060,2063,2005
2034,2045,2045,2068,2052,2061,2054,1997
2032,2040,2047,2067,2057,2063,2054,1988
2031,2037,2036,2065,2060,2068,2050,1986
2029,2041,2027,2067,2066,2066,2045,1977
2031,2035,2010,2051,2048,2047,2036,1967
2019,2023,1997,2040,2036,2037,2022,1968
2028,2030,2019,2050,2053,2024,2042,1976
2028,2033,2021,2040,2054,2017,2029,1982
2030,2037,2031,2042,2053,2035,2041,1996
2029,2043,2035,2039,2052,2044,2040,2001
2031,2051,2049,2053,2053,2038,2065,2005
2042,2060,2066,2064,2064,2047,2053,2020
2043,2060,2068,2066,2065,2052,2068,2027
2046,2057,2066,2060,2078,2047,2066,2040
2047,2067,2065,2059,2073,2037,2055,2051
2041,2057,2056,2058,2066,2036,2051,2060
2045,2056,2047,2059,2062,2030,2048,2068
2037,2052,2041,2058,2057,2038,2052,2080
2037,2045,2038,2062,2061,2035,2054,2087
2035,2049,2042,2059,2056,2035,2043,2090
2031,2044,2041,2058,2049,2031,2040,2091
2027,2040,2050,2066,2047,2032,2039,2089
2029,2051,2053,2068,2055,2034,2030,2089
2038,2050,2049,2064,2051,2035,2052,2084
2038,2056,2058,2074,2048,2048,2040,2078
2035,2056,2066,2073,2054,2051,2034,2070
2034,2054,2073,2073,2052,2052,2037,2061
2033,2057,2084,2072,2051,2050,2038,2050
2040,2068,2093,2071,2058,2055,2048,2037
2043,2075,2094,2083,2062,2058,2056,2034
2041,2069,2082,2074,2055,2051,2047,2017
2043,2074,2078,2065,2056,2043,2035,2014
2037,2069,2071,2056,2059,2036,2009,2013
2036,2066,2065,2051,2056,2037,2044,2007
2042,2064,2063,2050,2055,2042,2034,2004
2046,2062,2051,2048,2056,2048,2037,1992
2048,2057,2045,2040,2050,2031,2016,1984
2034,2044,2044,2052,2044,2030,2022,1986
2031,2050,2054,2055,2057,2046,2056,1988
2037,2059,2062,2060,2056,2062,2062,1991
2038,2055,2064,2061,2052,2071,2054,2001
2037,2065,2075,2060,2056,2068,2050,2007
2040,2060,2079,2062,2062,2072,2060,2007
2044,2062,2074,2067,2068,2087,2054,2019
2041,2063,2076,2074,2073,2098,2066,2036
2039,2068,2074,2071,2078,2114,2063,2046
2039,2061,2063,2072,2078,2107,2044,2055
2039,2061,2064,2072,2077,2097,2043,2060
2035,2062,2066,2077,2080,2071,2044,2080
2037,2062,2069,2076,2072,2002,2035,2095
2035,2059,2066,2069,2079,1982,2032,2096
2030,2052,2060,2062,2067,1996,2027,2104
2033,2050,2059,2058,2057,2004,2017,2099
2020,2035,2047,2061,2051,2010,2004,2099
2022,2033,2051,2064,2053,2016,2015,2102
2024,2044,2056,2063,2044,2008,2015,2096
2024,2045,2051,2062,2045,2014,2007,2086
2037,2046,2049,2065,2041,2019,2019,2077
2032,2052,2042,2064,2043,2020,2023,2069
2036,2056,2040,2063,2039,2022,2024,2049
2032,2049,2032,2059,2031,2022,2017,2032
2029,2039,2028,2065,2036,2022,2014,2022
2028,2045,2033,2063,2038,2030,2023,2014
2031,2049,2028,2071,2041,2040,2017,2007
2029,2049,2027,2066,2045,2040,2021,2005
2033,2046,2033,2051,2037,2032,2002,1994
2034,2040,2030,2047,2043,2036,2030,1984
2027,2037,2035,2054,2044,2041,2002,1979
2028,2036,2040,2053,2039,2046,2019,1968
2022,2018,2032,2050,2039,2055,2007,1965
2011,2013,2043,2053,2047,2068,2016,1979
2025,2033,2054,2066,2061,2064,2028,1981
2030,2043,2053,2069,2064,2063,2053,1995
2037,2046,2056,2071,2061,2068,2040,2000
2038,2046,2053,2067,2060,2063,2034,2000
2037,2044,2060,2065,2058,2056,2042,2009
2038,2044,2058,2060,2065,2061,2037,2015
2037,2048,2062,2067,2066,2059,2041,2029
2041,2045,2070,2069,2070,2056,2058,2041
2042,2047,2071,2070,2068,2059,2054,2056
2041,2048,2068,2068,2065,2049,2053,2072
2044,2053,2064,2062,2064,2043,2035,2081
2039,2056,2060,2063,2059,2042,2029,2091
2041,2055,2059,2065,2060,2034,2023,2099
2037,2048,2061,2063,2052,2030,2019,2093
2024,2034,2047,2053,2036,2021,1998,2097
2030,2028,2043,2055,2033,2024,2022,2094
2031,2042,2054,2061,2040,2033,2025,2088
2040,2040,2056,2064,2044,2041,2020,2073
2038,2041,2050,2066,2041,2051,2020,2067
2037,2045,2053,2066,2034,2050,2029,2054
2034,2044,2050,2071,2038,2052,2036,2044
2043,2044,2053,2070,2038,2050,2032,2032
2041,2039,2053,2069,2035,2045,2043,2016
2043,2037,2048,2076,2041,2045,2041,2010
2042,2038,2052,2073,2035,2046,2042,2012
2039,2045,2052,2067,2039,2045,2013,2008
2041,2046,2054,2060,2041,2042,2011,2000
2043,2046,2050,2064,2042,2052,2019,1997
2041,2046,2049,2065,2039,2056,2037,1987
2040,2043,2055,2060,2038,2052,2024,1974
2036,2032,2046,2056,2039,2056,2031,1976
2029,2039,2034,2050,2039,2060,2034,1980
2039,2044,2053,2062,2046,2059,2056,1982
2042,2050,2053,2060,2044,2057,2050,1988
2044,2050,2056,2067,2043,2063,2055,2002
2043,2047,2056,2067,2043,2059,2055,2002
2046,2051,2052,2067,2051,2061,2070,2014
2049,2046,2054,2066,2060,2065,2058,2025
2046,2047,2054,2064,2064,2067,2059,2033
2041,2044,2055,2070,2066,2080,2063,2042
2040,2044,2049,2068,2070,2080,2048,2044
2045,2044,2051,2065,2064,2077,2062,2066
2047,2044,2052,2064,2058,2072,2073,2074
2041,2040,2047,2057,2049,2062,2060,2086
2035,2038,2044,2054,2040,2050,2056,2081
2031,2034,2045,2062,2044,2054,2046,2082
2029,2029,2041,2056,2033,2044,2031,2081
2020,2027,2038,2063,2052,2060,2049,2097
2038,2037,2051,2066,2051,2060,2035,2092
2038,2043,2049,2062,2044,2056,2029,2079
2039,2029,2042,2060,2034,2037,2023,2066
2034,2030,2046,2054,2033,2035,2028,2053
2031,2033,2045,2056,2020,2035,2000,2047
2037,2035,2050,2061,2021,2039,2023,2030
2029,2037,2045,2053,2021,2037,2031,2027
2034,2042,2045,2054,2016,2031,2033,2013
2042,2050,2051,2058,2023,2038,2049,2010
2046,2041,2052,2057,2023,2051,2036,2009
2041,2048,2050,2052,2024,2052,2039,1995
2039,2041,2041,2049,2024,2054,2013,1989
2038,2038,2043,2047,2026,2056,2031,1980
2033,2040,2044,2040,2026,2046,2032,1976
2033,2035,2038,2034,2019,2035,2029,1970
2030,2031,2050,2034,2023,2040,2024,1977
2040,2046,2064,2043,2045,2055,2052,1990
2036,2049,2074,2048,2052,2055,2049,1990
2040,2043,2070,2033,2047,2054,2049,1993
2039,2039,2057,2036,2052,2070,2072,2006
2032,2040,2053,2036,2055,2075,2064,2011
2038,2047,2051,2045,2051,2075,2068,2024
2046,2045,2042,2048,2053,2068,2072,2036
2046,2046,2039,2054,2058,2057,2071,2038
2038,2052,2040,2061,2058,2055,2062,2050
2043,2056,2051,2062,2057,2057,2063,2063
2041,2048,2059,2069,2053,2055,2052,2069
2032,2049,2064,2060,2038,2052,2061,2076
2032,2047,2063,2049,2034,2048,2064,2084
2029,2042,2061,2050,2026,2042,2054,2086
2029,2037,2061,2039,1995,2012,2032,2082
2022,2023,2056,2025,1959,1986,2024,2080
2024,2035,2064,2028,1950,1971,2029,2080
2024,2048,2066,2025,1943,1981,2028,2073
2032,2037,2063,2014,1950,1988,2014,2063
2026,2039,2066,2031,1998,2025,2045,2069
2044,2060,2080,2061,2057,2049,2029,2072
2057,2064,2086,2071,2089,2060,2036,2057
2048,2062,2070,2067,2086,2072,2048,2040
2044,2053,2061,2060,2073,2070,2041,2025
2048,2052,2052,2056,2065,2068,2045,2020
2040,2052,2047,2052,2067,2065,2041,2012
2039,2052,2050,2054,2058,2059,2049,1998
2042,2051,2059,2048,2043,2050,2046,1994
2044,2049,2051,2050,2041,2052,2046,1998
2039,2047,2052,2056,2040,2060,2040,1996
2038,2043,2047,2058,2037,2057,2053,1986
2035,2031,2041,2049,2038,2063,2046,1978
2032,2030,2043,2061,2052,2079,2065,1987
2038,2031,2051,2065,2057,2089,2074,1991
2043,2038,2052,2060,2053,2082,2071,2000
2044,2043,2059,2069,2053,2078,2076,2004
2046,2046,2057,2064,2049,2080,2059,2006
2046,2051,2060,2070,2047,2075,2058,2017
2052,2052,2072,2067,2043,2072,2073,2037
2048,2051,2069,2072,2045,2058,2079,2043
2050,2047,2078,2075,2052,2014,2072,2054
2047,2046,2070,2077,2052,1990,2053,2056
2037,2038,2064,2073,2055,1993,2067,2067
2036,2036,2051,2063,2050,2008,2036,2074
2032,2029,2038,2049,2045,2033,2043,2085
2036,2029,2034,2043,2036,2045,2066,2098
2039,2035,2032,2043,2038,2044,2045,2099
2033,2023,2022,2027,2048,2039,2058,2096
2030,2027,2012,2029,2050,2044,2065,2098
2045,2033,2012,2034,2047,2046,2074,2091
2041,2042,2025,2035,2042,2057,2070,2080
2032,2043,2029,2039,2033,2051,2021,2064
2031,2040,2035,2023,2027,2043,2011,2058
2033,2034,2030,2020,2013,2035,2020,2042
2034,2041,2034,2020,2000,2025,2032,2032
2044,2043,2042,2032,2009,2034,2041,2036
2043,2042,2049,2033,2028,2054,2059,2031
2044,2050,2053,2041,2037,2063,2056,2030
2057,2047,2055,2045,2035,2058,2040,2025
2051,2052,2071,2047,2033,2051,2022,2022
2051,2050,2073,2046,2032,2049,2031,2009
2052,2048,2071,2043,2030,2058,2037,2003
2047,2041,2072,2029,2012,2060,2042,1990
2038,2031,2079,2031,2011,2059,2039,1987
2034,2038,2088,2042,2024,2070,2055,1997
2046,2049,2096,2044,2029,2068,2030,1993
2043,2053,2088,2060,2038,2032,2022,2003
2049,2051,2085,2064,2043,2031,2033,2013
2055,2048,2078,2065,2044,2039,2050,2033
2056,2049,2069,2078,2048,2050,2066,2040
2051,2049,2069,2076,2053,2045,2046,2043
2053,2044,2068,2078,2059,2049,2050,2050
2050,2045,2062,2080,2071,2059,2045,2062
2045,2041,2057,2084,2067,2072,2049,2074
2034,2038,2057,2093,2105,2084,2076,2077
2043,2036,2057,2083,2128,2082,2072,2087
2035,2032,2047,2070,2126,2078,2031,2094
2040,2034,2044,2061,2110,2075,2048,2107
2038,2037,2032,2045,2093,2075,2045,2105
2036,2025,2026,2025,2062,2087,2040,2114
2040,2026,2023,2018,2034,2096,2056,2102
2038,2030,2026,2021,1992,2093,2036,2089
2040,2023,2039,2026,1967,2062,2040,2085
2038,2024,2057,2030,1942,1984,2017,2080
2040,2023,2061,2027,1899,1938,2020,2077
2042,2023,2059,2032,1922,1949,2035,2070
2048,2033,2058,2050,1970,1991,2056,2064
2053,2048,2058,2059,1995,2020,2036,2058
2051,2050,2065,2052,2010,2035,2045,2047
2058,2050,2065,2048,2022,2036,2038,2042
2056,2052,2053,2037,1992,2040,2050,2035
2059,2052,2056,2014,1947,2027,2033,2015
2052,2048,2050,2003,1963,2032,2041,2013
2051,2047,2044,2001,1965,2042,2050,2014
2045,2046,2039,2001,1951,2020,2032,2004
2041,2035,2033,2004,1964,1978,2037,2009
2039,2039,2037,2011,2007,1985,2044,2014
2054,2058,2058,2027,2058,2017,2063,2021
2054,2060,2072,2038,2078,2046,2053,2028
2064,2068,2076,2034,2068,2044,2049,2034
2058,2060,2092,2046,2075,2044,2047,2039
2059,2064,2094,2053,2103,2044,2047,2032
2053,2060,2086,2057,2121,2040,2052,2040
2050,2056,2072,2061,2125,2042,2048,2045
2056,2056,2073,2064,2100,2041,2035,2063
2056,2061,2066,2067,2086,2039,2055,2080
2053,2059,2057,2064,2053,2023,2058,2090
2054,2050,2056,2041,2003,2012,2035,2100
2044,2043,2042,2020,1953,2002,2014,2109
2040,2044,2047,2027,1974,2007,2053,2116
2043,2040,2042,2033,1985,2024,2053,2113
2037,2034,2032,2020,2000,2051,2058,2111
2031,2032,2034,2053,2062,2077,2054,2118
2044,2045,2047,2069,2092,2110,2063,2123
2047,2042,2047,2065,2076,2138,2072,2116
2049,2043,2045,2058,2067,2168,2078,2103
2048,2041,2039,2043,2030,2160,2065,2088
2044,2036,2033,2025,1980,2118,2054,2076
2045,2039,2034,2020,1926,2045,2043,2075
2048,2041,2045,2033,1940,1973,2053,2075
2051,2044,2051,2038,1969,1983,2062,2058
2053,2035,2042,2050,2012,2012,2054,2036
2044,2036,2041,2046,2040,2041,2055,2024
2046,2038,2029,2033,2029,2045,2058,2023
2042,2032,2027,2018,2011,2027,2052,2003
2043,2026,2027,2019,2038,2028,2052,2010
2045,2034,2045,2037,2110,2043,2068,2007
2046,2046,2063,2053,2138,2041,2040,2006
2040,2038,2061,2052,2135,2037,2036,1998
2047,2032,2060,2054,2128,2050,2039,1999
2050,2046,2062,2064,2120,2058,2050,2003
2041,2045,2049,2065,2119,2066,2059,2009
2036,2041,2051,2063,2112,2076,2069,2017
2039,2050,2054,2059,2113,2077,2045,2033
2043,2053,2052,2065,2110,2073,2049,2043
2050,2051,2045,2066,2104,2068,2053,2055
2051,2050,2040,2057,2081,2058,2063,2063
2054,2046,2041,2056,2069,2048,2059,2063
2055,2045,2037,2053,2062,2038,2071,2076
2041,2039,2035,2053,2063,2036,2064,2089
2047,2043,2036,2051,2064,2041,2063,2098
2042,2043,2033,2056,2065,2053,2068,2106
2045,2043,2032,2051,2065,2052,2077,2106
2035,2039,2034,2048,2059,2047,2061,2109
2024,2021,2021,2040,2057,2038,2072,2116
2024,2019,2017,2033,2051,2041,2061,2117
2034,2028,2025,2040,2052,2037,2056,2113
2042,2029,2037,2049,2051,2038,2043,2107
2039,2038,2047,2048,2048,2041,2053,2094
2030,2046,2060,2047,2045,2039,2032,2093
2040,2049,2076,2049,2046,2041,2038,2083
2045,2047,2080,2052,2051,2045,2040,2066
2043,2045,2074,2052,2045,2041,2038,2053
2042,2036,2064,2053,2044,2039,2041,2042
2040,2037,2066,2054,2044,2029,2040,2035
2037,2038,2057,2054,2049,2024,2050,2038
2043,2040,2053,2056,2051,2025,2023,2025
2044,2032,2045,2052,2038,2024,2037,2021
2048,2038,2041,2059,2053,2028,2049,2020
2048,2033,2040,2057,2049,2038,2050,2021
2043,2018,2030,2048,2042,2034,2028,2016
2044,2017,2024,2050,2038,2040,2033,2025
2046,2027,2040,2053,2043,2040,2067,2025
2058,2033,2041,2059,2051,2047,2066,2021
2052,2038,2040,2060,2052,2061,2074,2037
2057,2039,2043,2064,2049,2081,2089,2035
2057,2048,2054,2062,2047,2083,2073,2038
2060,2045,2052,2062,2049,2073,2071,2040
2059,2035,2052,2057,2050,2064,2064,2052
2059,2038,2057,2060,2048,2064,2042,2065
2058,2046,2054,2055,2052,2067,2048,2070
2055,2043,2055,2050,2054,2059,2044,2089
2050,2043,2050,2048,2055,2060,2047,2103
2047,2050,2061,2049,2053,2049,2055,2111
2048,2051,2070,2046,2045,2032,2052,2118
2055,2054,2080,2044,2035,2039,2047,2113
2040,2043,2067,2033,2009,2048,2037,2112
2036,2031,2057,2031,2020,2065,2058,2116
2042,2040,2069,2045,2028,2064,2053,2110
2049,2033,2059,2042,2025,2066,2043,2100
2044,2034,2058,2037,2010,2046,2036,2092
2040,2026,2046,2028,1993,2003,2024,2086
2042,2033,2050,2038,1993,1980,2042,2076
2049,2039,2067,2051,2015,2007,2034,2063
2054,2052,2075,2062,2025,2027,2047,2050
2048,2050,2064,2052,2038,2025,2044,2045
2053,2047,2061,2044,2091,2030,2047,2035
2057,2047,2068,2051,2118,2042,2040,2032
2058,2058,2077,2059,2094,2040,2048,2028
2057,2057,2072,2051,2087,2037,2039,2024
2064,2056,2062,2052,2088,2036,2040,2016
2065,2047,2057,2052,2064,2039,2047,2007
2059,2042,2043,2038,2041,2029,2052,2009
2047,2028,2035,2024,2008,2032,2045,2016
2053,2037,2037,2017,1980,2031,2055,2020
2050,2031,2033,2009,1919,2016,2050,2014
2047,2032,2033,2020,1959,2023,2049,2016
2053,2042,2038,2030,2011,2034,2039,2022
2051,2033,2038,2030,2020,2031,2035,2022
2056,2032,2037,2033,2030,2030,2052,2031
2052,2032,2032,2029,2057,2037,2050,2046
2053,2031,2034,2030,2073,2053,2053,2053
2052,2028,2037,2025,2079,2067,2066,2068
2052,2037,2039,2028,2060,2080,2075,2084
2058,2036,2044,2045,2070,2093,2082,2096
2058,2033,2044,2049,2085,2091,2049,2105
2048,2033,2047,2052,2088,2078,2068,2107
2052,2034,2046,2056,2087,2041,2050,2123
2043,2022,2040,2043,2070,2033,2069,2120
2035,2013,2036,2049,2059,2045,2069,2121
2040,2034,2054,2063,2040,2044,2058,2120
2048,2039,2056,2075,2042,2033,2066,2109
2050,2045,2070,2097,2066,2025,2058,2100
2040,2050,2082,2119,2092,2025,2062,2088
2046,2046,2085,2121,2095,2027,2054,2077
2044,2050,2077,2125,2080,2034,2032,2063
2052,2050,2078,2132,2097,2042,2064,2062
2056,2050,2076,2126,2108,2034,2061,2049
2053,2053,2064,2116,2101,2018,2058,2028
2052,2041,2054,2099,2083,2021,2043,2027
2049,2045,2034,2074,2076,2046,2050,2019
2045,2045,2031,2044,1999,2042,2058,2021
2043,2040,2024,2011,1892,2034,2054,2012
2042,2044,2028,1997,1885,2032,2043,1999
2037,2033,2018,1992,1905,2041,2035,1990
2034,2025,2012,1992,1961,2035,2016,1986
2035,2032,2012,1978,1995,2016,2025,2006
2044,2038,2008,1964,2031,1988,2016,2014
2054,2044,2014,1976,2063,1990,2039,2029
2062,2058,2035,1986,2078,2013,2035,2041
2067,2061,2046,1992,2068,2033,2031,2040
2062,2055,2038,2006,2069,2053,2061,2043
2059,2053,2044,2022,2054,2058,2055,2047
2054,2049,2058,2030,2044,2069,2053,2054
2043,2048,2063,2039,2044,2074,2054,2071
2041,2040,2060,2045,2044,2077,2057,2075
2047,2041,2064,2058,2079,2085,2068,2100
2068,2047,2073,2075,2112,2082,2045,2124
2063,2051,2069,2075,2130,2089,2052,2127
2058,2044,2063,2074,2139,2095,2061,2130
2058,2036,2058,2061,2136,2084,2054,2121
2040,2029,2057,2046,2108,2069,2042,2111
2039,2035,2068,2038,2005,2047,2058,2111
2048,2042,2062,2032,1976,2044,2038,2107
2046,2039,2061,2027,1988,2040,2039,2100
2036,2028,2046,2014,1971,2016,2028,2081
2036,2024,2039,1991,1947,2006,2035,2065
2030,2025,2043,1992,1960,2034,2036,2057
2035,2036,2047,2001,2022,2067,2053,2046
2052,2050,2051,2012,2050,2083,2080,2035
2052,2053,2046,2024,2045,2090,2083,2036
2055,2052,2046,2026,2042,2077,2052,2035
2051,2046,2047,2026,2032,2054,2036,2033
2047,2044,2044,2020,2019,2063,2046,2028
2049,2046,2049,2022,2020,2059,2050,2030
2058,2053,2050,2019,2019,2053,2053,2018
2050,2048,2041,2006,2005,2043,2049,2002
2040,2036,2039,2001,1996,2040,2044,1995
2043,2043,2047,2017,2006,2042,2043,2010
2052,2058,2062,2030,2022,2053,2055,2007
2058,2063,2058,2038,2053,2076,2048,2014
2058,2062,2052,2033,2076,2094,2046,2023
2060,2060,2049,2028,2065,2073,2052,2027
2060,2060,2046,2028,2053,2025,2037,2037
2062,2057,2040,2024,2033,1993,2042,2039
2055,2050,2038,2025,2015,2000,2044,2040
2062,2050,2033,2016,2022,2015,2032,2062
2050,2046,2025,2012,2023,2008,2012,2069
2043,2040,2028,2009,1999,1990,2004,2084
2041,2038,2024,2010,1993,1986,2037,2093
2039,2039,2027,2009,1961,1988,2024,2104
2044,2045,2020,1997,1927,1995,2032,2111
2032,2034,2011,1981,1900,1997,2018,2100
2015,2005,1985,1963,1910,2009,2033,2098
2014,2006,1993,1981,1970,2036,2042,2098
2033,2030,2010,2023,2047,2025,2057,2116
2045,2038,2023,2059,2117,2008,2063,2103
2050,2038,2044,2082,2136,2042,2067,2104
2048,2048,2055,2082,2145,2085,2060,2093
2054,2050,2072,2072,2132,2089,2054,2078
2051,2041,2073,2064,2118,2088,2044,2062
2048,2042,2070,2059,2071,2083,2050,2049
2047,2049,2073,2054,2048,2084,2063,2039
2049,2056,2064,2052,2054,2086,2060,2040
2049,2050,2060,2049,2040,2088,2060,2024
2039,2037,2048,2046,1996,2080,2060,2019
2043,2041,2054,2038,1980,2072,2060,2019
2044,2040,2051,2036,1949,2058,2070,2022
2043,2037,2039,2018,1912,2035,2040,2014
2038,2025,2033,2014,1923,2033,2056,2010
2043,2027,2040,2025,1992,2045,2058,2010
2050,2036,2041,2030,2076,2052,2070,2015
2050,2045,2045,2050,2169,2070,2054,2022
2054,2043,2049,2061,2181,2068,2037,2033
2058,2054,2063,2080,2197,2075,2051,2034
2054,2050,2070,2082,2208,2083,2046,2039
2051,2059,2070,2079,2188,2080,2039,2054
2050,2053,2064,2074,2137,2071,2036,2056
2052,2049,2049,2047,2070,2060,2074,2066
2050,2053,2052,2010,1956,2039,2047,2077
2055,2058,2046,1986,1893,2035,2055,2098
2056,2052,2051,1992,1870,2036,2068,2115
2052,2052,2047,2004,1982,2055,2082,2128
2057,2051,2043,2028,2092,2080,2084,2120
2050,2040,2040,2042,2176,2093,2066,2119
2039,2023,2035,2058,2198,2100,2067,2117
2045,2022,2050,2068,2194,2106,2065,2124
2054,2039,2056,2088,2221,2116,2058,2117
2050,2045,2064,2099,2270,2119,2065,2106
2049,2045,2060,2096,2253,2130,2064,2100
2047,2046,2052,2083,2258,2139,2088,2101
2060,2052,2051,2059,2177,2103,2074,2094
2050,2047,2044,2007,1983,2026,2036,2072
2047,2038,2025,1968,1868,1997,2055,2056
2052,2042,2020,1953,1755,1990,2053,2049
2062,2050,2037,1970,1838,2021,2051,2052
2069,2055,2043,1999,1943,2064,2074,2049
2068,2055,2044,2008,1965,2078,2081,2037
2067,2043,2034,1982,1880,2048,2076,2020
2066,2037,2022,1964,1777,2009,2044,2006
2052,2018,2014,1974,1844,1997,2033,1988
2027,2002,2007,2010,1977,2017,2021,1979
2031,2027,2037,2056,2086,2056,2031,1988
2035,2058,2061,2070,2074,2070,2029,1985
2038,2053,2050,2048,2031,2064,2045,1994
2040,2040,2046,2037,2013,2046,2040,2004
2042,2026,2044,2044,2052,2046,2038,2005
2035,2023,2040,2056,2146,2041,2064,2027
2046,2036,2051,2073,2178,2013,2055,2041
2051,2047,2048,2049,2150,1996,2040,2049
2051,2041,2045,2034,2092,1986,2039,2059
2052,2046,2047,2040,2043,2009,2057,2074
2047,2048,2052,2052,2069,2029,2063,2096
2054,2049,2051,2056,2100,2051,2071,2102
2048,2049,2052,2058,2092,2067,2071,2115
2046,2049,2049,2057,2110,2075,2067,2121
2043,2043,2046,2057,2089,2074,2079,2117
2033,2028,2035,2043,2038,2060,2051,2109
2028,2023,2027,2030,1949,2056,2057,2120
2038,2036,2033,2028,1903,2056,2082,2122
2045,2042,2036,2045,1992,2076,2087,2126
2048,2036,2032,2058,2099,2096,2077,2116
2059,2042,2037,2062,2126,2080,2082,2104
2064,2054,2050,2063,2127,2077,2080,2086
2076,2060,2058,2075,2127,2075,2066,2073
2077,2061,2053,2078,2118,2062,2047,2057
2071,2054,2046,2075,2124,2054,2038,2029
2061,2048,2038,2067,2128,2036,2030,2009
2044,2048,2038,2062,2193,2019,2014,2004
2035,2038,2028,2057,2235,1995,2010,1995
2024,2024,2022,2051,2113,1990,2029,1997
2036,2029,2030,2014,1814,1991,2046,2007
2052,2045,2045,2036,1853,2024,2058,2022
2055,2054,2051,2050,1932,2042,2054,2019
2049,2057,2049,2041,1976,2078,2043,2020
2054,2058,2044,2049,1992,2105,2035,2019
2052,2055,2039,2037,1993,2111,2057,2009
2044,2046,2034,2031,1994,2110,2049,2008
2043,2040,2032,2034,2005,2074,2064,2029
2058,2043,2038,2073,2054,2024,2083,2059
2083,2054,2046,2094,2091,2033,2093,2079
2092,2057,2031,2068,2056,2032,2078,2082
2085,2045,2012,2043,2009,2031,2072,2082
2072,2027,2004,2028,1973,2021,2041,2078
2072,2016,2001,2026,2029,2025,2052,2062
2065,2021,2020,2048,2126,2043,2059,2069
2065,2044,2045,2066,2102,2031,2057,2088
2058,2052,2063,2059,2045,2031,2048,2114
2045,2056,2067,2046,2021,2033,2071,2121
2036,2049,2061,2016,1937,2014,2050,2125
2032,2047,2046,2012,1922,2010,2047,2127
2049,2060,2053,2033,1988,2017,2057,2121
2051,2051,2043,2042,2080,2018,2041,2113
2045,2047,2029,2029,2058,2008,2025,2094
2036,2039,2031,2009,1969,2004,2023,2082
2044,2047,2044,2026,1989,2020,2037,2069
2048,2050,2053,2036,1995,2021,2036,2056
2052,2048,2061,2043,2023,2035,2047,2061
2059,2047,2060,2053,2048,2046,2052,2056
2057,2053,2053,2056,2065,2055,2058,2046
2065,2049,2042,2050,2057,2034,2035,2028
2052,2038,2035,2047,2024,2018,2021,2028
2053,2030,2026,2042,2015,2018,2040,2016
2055,2030,2031,2055,2029,2037,2067,2020
2052,2036,2034,2056,2049,2042,2062,2012
2056,2032,2033,2053,2048,2067,2063,2004
2055,2032,2028,2057,2050,2079,2062,2010
2054,2039,2034,2064,2072,2087,2068,2013
2056,2041,2029,2060,2098,2090,2071,2012
2060,2046,2037,2064,2107,2070,2050,2019
2068,2061,2055,2076,2125,2027,2049,2041
2079,2070,2057,2090,2148,2030,2051,2049
2073,2065,2062,2086,2150,2045,2058,2045
2071,2064,2057,2080,2065,2046,2056,2054
2063,2064,2054,2053,1981,2041,2056,2059
2060,2058,2044,2044,2034,2041,2048,2072
2060,2059,2045,2053,2037,2042,2056,2090
2063,2052,2051,2058,1993,2054,2068,2105
2065,2048,2049,2051,1987,2045,2055,2112
2060,2040,2044,2063,2032,2054,2075,2126
2062,2043,2051,2077,2062,2055,2046,2136
2061,2032,2044,2068,2025,2050,2055,2130
2056,2024,2037,2058,2012,2061,2074,2125
2051,2029,2041,2052,1994,2041,2042,2106
2041,2029,2036,2050,1975,2034,2044,2101
2042,2044,2039,2052,2001,2050,2045,2097
2047,2039,2044,2058,2025,2073,2058,2095
2057,2052,2045,2060,2017,2083,2077,2091
2056,2045,2041,2051,2069,2064,2070,2076
2058,2038,2036,2038,2031,2029,2059,2073
2062,2042,2042,2036,1959,2033,2061,2066
2068,2045,2045,2046,1958,2049,2068,2050
2067,2045,2050,2048,1929,2050,2067,2038
2063,2053,2048,2037,1881,2049,2073,2031
2065,2044,2042,2036,1855,2048,2074,2020
2065,2054,2047,2030,1842,2039,2050,2004
2062,2052,2041,1999,1817,2003,2020,1986
2044,2042,2028,2000,1941,1995,2033,1988
2045,2024,2022,2023,2044,2013,2029,1990
2051,2030,2030,2055,2129,2046,2042,1996
2048,2035,2035,2078,2218,2090,2072,2002
2050,2039,2031,2085,2274,2110,2067,2011
2052,2044,2034,2088,2220,2097,2039,2006
2048,2041,2030,2065,2132,2068,2042,2000
2042,2035,2031,2045,2053,2035,2035,1994
2035,2027,2028,2039,2020,2009,2042,2012
2034,2038,2036,2049,2042,2035,2045,2035
2051,2054,2052,2080,2123,2069,2046,2054
2060,2053,2047,2087,2146,2078,2077,2067
2062,2056,2043,2067,2123,2067,2059,2070
2047,2048,2041,2055,2099,2067,2056,2080
2050,2043,2040,2056,2083,2081,2059,2094
2046,2037,2037,2054,2057,2070,2057,2107
2045,2036,2037,2050,2062,2023,2053,2113
2046,2051,2053,2051,2072,2000,2051,2116
2041,2042,2036,2051,2063,2002,2052,2118
2042,2043,2038,2048,2049,2024,2044,2128
2060,2046,2046,2048,2035,2038,2073,2115
2050,2041,2039,2044,2029,2033,2045,2107
2047,2034,2032,2037,2037,2041,2044,2098
2049,2035,2035,2051,2070,2062,2054,2092
2055,2041,2034,2050,2074,2063,2046,2087
2060,2038,2025,2046,2053,2050,2036,2073
2054,2032,2018,2039,2026,2038,2033,2044
2039,2031,2018,2037,2031,2038,2028,2018
2020,2032,2025,2044,2039,2030,2011,2006
2024,2033,2026,2042,2037,2033,2018,2002
2025,2032,2034,2050,2047,2061,2037,2009
2040,2031,2028,2043,2044,2067,2041,2008
2044,2037,2029,2041,2060,2063,2054,2003
2047,2036,2032,2040,2072,2061,2049,1994
2038,2034,2022,2032,2069,2038,2023,1987
2031,2021,2024,2037,2058,2001,2008,1989
2034,2033,2032,2047,2056,2009,2022,2002
2043,2037,2041,2050,2032,2031,2039,2012
2055,2044,2050,2048,2018,2040,2049,2018
2059,2050,2059,2058,2001,2057,2047,2021
2056,2055,2062,2055,2007,2059,2038,2026
2058,2056,2059,2040,2002,2058,2063,2041
2057,2061,2065,2046,2029,2064,2073,2045
2062,2063,2066,2056,2044,2065,2074,2055
2061,2066,2065,2058,2044,2056,2067,2065
2060,2061,2060,2061,2074,2059,2051,2077
2056,2064,2059,2069,2115,2073,2054,2089
2059,2063,2059,2075,2120,2083,2044,2100
2056,2064,2052,2074,2107,2091,2053,2112
2054,2061,2056,2080,2117,2095,2054,2118
2054,2061,2056,2084,2108,2088,2044,2117
2047,2046,2044,2063,2099,2082,2041,2115
2045,2043,2045,2062,2091,2080,2045,2120
2058,2059,2054,2052,2058,2058,2041,2116
2051,2056,2052,2037,1997,2018,2025,2105
2054,2054,2055,2039,1983,2011,2017,2089
2057,2054,2056,2044,1996,2002,2013,2072
2051,2055,2049,2050,2031,2008,2013,2064
2049,2059,2053,2059,2059,2004,2010,2049
2052,2058,2045,2042,2033,1984,2013,2030
2057,2059,2045,2045,2047,2005,2036,2028
2062,2058,2047,2048,2063,2027,2023,2021
2061,2061,2043,2049,2078,2046,2026,2020
2059,2064,2040,2043,2036,2059,2020,2016
2059,2061,2039,2044,2034,2080,2032,1999
2055,2052,2037,2044,2020,2078,2032,1989
2051,2052,2034,2044,2045,2079,2034,1990
2049,2039,2034,2048,2078,2072,2037,1982
2038,2041,2027,2047,2083,2060,2045,2001
2046,2055,2042,2068,2098,2053,2072,2024
2068,2063,2050,2085,2121,2058,2098,2022
2065,2065,2050,2082,2155,2057,2095,2022
2066,2060,2053,2076,2181,2068,2053,2027
2062,2053,2055,2062,2160,2062,2070,2029
2066,2050,2045,2052,2088,2048,2059,2026
2061,2051,2037,2031,1929,2026,2050,2032
2057,2043,2036,2016,1861,2023,2036,2041
2046,2042,2034,2033,1946,2046,2049,2038
2044,2036,2039,2044,2012,2054,2044,2045
2042,2043,2048,2053,2052,2056,2030,2062
2042,2042,2052,2056,2066,2051,2034,2068
2046,2041,2050,2040,2060,2050,2041,2082
2054,2048,2047,2045,2050,2030,2022,2088
2049,2052,2051,2039,2039,2006,2007,2088
2040,2037,2045,2043,2051,2002,2002,2091
2040,2041,2049,2048,2057,2017,2008,2092
2046,2045,2051,2049,2039,2026,2026,2090
2043,2045,2056,2045,2039,2020,2011,2080
2044,2048,2049,2035,2028,2001,1995,2072
2046,2052,2048,2044,2030,2016,2008,2059
2049,2058,2047,2050,2024,2029,2025,2040
2045,2049,2046,2049,2026,2055,2041,2034
2046,2047,2043,2046,2051,2078,2026,2014
2041,2044,2038,2038,2043,2085,2030,2006
2043,2048,2041,2042,2036,2088,2029,2003
2047,2042,2042,2041,2036,2070,2032,2000
2047,2051,2053,2047,2046,2035,2038,2001
2044,2052,2053,2050,2047,2042,2055,2000
2049,2052,2053,2046,2043,2034,2027,1993
2051,2050,2049,2044,2038,2029,2029,1981
2042,2040,2041,2034,2030,2020,2016,1967
2034,2034,2038,2033,2037,2024,2010,1966
2049,2046,2042,2047,2058,2046,2025,1985
2051,2051,2051,2054,2063,2055,2036,1982
2050,2056,2046,2050,2064,2054,2024,1979
2052,2055,2048,2051,2068,2050,2040,1985
2054,2061,2047,2057,2071,2049,2030,1995
2051,2057,2050,2053,2071,2050,2033,2006
2054,2056,2056,2052,2071,2047,2034,2013
2056,2058,2051,2051,2070,2051,2045,2030
2061,2065,2050,2059,2076,2060,2047,2044
2063,2056,2053,2058,2075,2053,2037,2054
2056,2050,2051,2060,2075,2054,2039,2063
2048,2054,2053,2057,2074,2056,2018,2064
2048,2057,2046,2059,2068,2062,2026,2073
2043,2057,2047,2048,2054,2068,2023,2069
2037,2046,2042,2038,2042,2051,2047,2065
2028,2036,2033,2030,2030,2045,2048,2064
2031,2050,2040,2035,2033,2052,2063,2077
2044,2058,2045,2042,2041,2020,2028,2077
2059,2069,2054,2046,2038,2019,2053,2071
2056,2077,2058,2047,2034,2005,2035,2057
2062,2068,2052,2047,2039,2012,2040,2046
2059,2064,2052,2047,2043,2036,2041,2027
2053,2051,2042,2042,2049,2038,2051,2005
2052,2054,2037,2039,2048,2035,2046,1997
2048,2047,2043,2042,2042,2037,2044,1986
2045,2050,2046,2039,2039,2041,2026,1987
2040,2053,2057,2045,2035,2037,2032,1989
2048,2050,2068,2052,2042,2047,2037,1982
2053,2062,2074,2051,2053,2076,2060,1987
2056,2067,2071,2056,2060,2079,2055,1986
2057,2064,2057,2051,2049,2060,2052,1977
2051,2043,2035,2043,2039,2042,2023,1972
2044,2041,2036,2048,2049,2053,2033,1976
2057,2053,2046,2051,2053,2060,2046,1983
2056,2053,2055,2055,2054,2052,2052,1987
2049,2063,2060,2051,2055,2047,2053,1985
2055,2055,2057,2055,2045,2052,2044,1995
2055,2059,2054,2049,2052,2052,2054,1994
2049,2061,2059,2056,2062,2064,2061,1994
2052,2049,2057,2056,2065,2071,2064,2006
2054,2060,2061,2062,2083,2077,2068,2013
2057,2060,2060,2067,2078,2086,2064,2035
2053,2056,2053,2070,2084,2088,2060,2049
2049,2056,2056,2064,2088,2068,2053,2070
2048,2055,2060,2063,2089,2068,2056,2076
2045,2051,2052,2056,2095,2072,2057,2079
2045,2044,2057,2056,2083,2064,2049,2072
2029,2034,2043,2043,2070,2060,2046,2084
2025,2029,2045,2047,2067,2062,2061,2086
2038,2040,2042,2046,2058,2058,2042,2074
2039,2043,2049,2052,2056,2045,2037,2061
2041,2050,2053,2046,2058,2047,2037,2052
2040,2047,2048,2049,2045,2053,2031,2047
2039,2045,2042,2044,2042,2039,2037,2033
2040,2049,2042,2046,2039,2044,2034,2015
2049,2055,2047,2049,2042,2065,2027,2017
2047,2052,2045,2057,2047,2074,2031,2005
2042,2053,2043,2055,2057,2097,2051,2009
2047,2053,2045,2059,2062,2097,2047,2000
2058,2055,2039,2058,2060,2081,2039,1989
2046,2049,2034,2050,2043,2081,2033,1977
2046,2046,2028,2052,2032,2085,2036,1964
2040,2048,2016,2049,2031,2080,2020,1964
2040,2040,2010,2045,2038,2046,2030,1972
2040,2039,2012,2045,2049,1980,2027,1976
2046,2048,2018,2050,2054,1983,2030,1978
2044,2054,2028,2056,2058,2016,2043,1987
2048,2056,2031,2059,2063,2038,2034,1994
2048,2055,2032,2058,2065,2045,2035,1995
2048,2050,2035,2051,2056,2045,2046,2002
2045,2054,2033,2047,2066,2054,2043,2015
2054,2052,2037,2050,2072,2061,2054,2027
2048,2050,2050,2051,2067,2050,2042,2035
2054,2061,2053,2050,2065,2045,2052,2052
2050,2066,2071,2052,2064,2050,2069,2064
2057,2071,2078,2053,2075,2072,2066,2071
2055,2068,2093,2056,2070,2078,2069,2080
2047,2061,2092,2055,2072,2076,2054,2077
2040,2056,2080,2059,2063,2076,2048,2079
2031,2043,2070,2052,2061,2084,2052,2083
2033,2043,2065,2055,2062,2081,2037,2087
2039,2056,2069,2055,2053,2055,2021,2071
2038,2067,2076,2055,2053,2024,2023,2059
2041,2065,2074,2059,2060,2020,2018,2051
2043,2063,2073,2070,2059,2037,2032,2049
2046,2062,2070,2069,2068,2048,2021,2026
2049,2063,2066,2065,2068,2036,2024,2008
2044,2056,2060,2059,2061,2014,2020,1997
2043,2054,2062,2066,2060,2010,2022,1995
2049,2051,2060,2065,2061,2026,2021,1992
2047,2050,2056,2063,2059,2047,2018,1994
2046,2050,2053,2060,2052,2053,2026,1988
2050,2050,2048,2063,2056,2072,2041,1982
2048,2046,2046,2058,2056,2084,2036,1971
2046,2045,2036,2060,2051,2074,2038,1966
2034,2024,2024,2047,2044,2043,2024,1964
2037,2026,2023,2048,2040,2044,2022,1969
2046,2038,2035,2062,2064,2062,2029,1976
2053,2045,2047,2075,2067,2077,2038,1975
2047,2043,2044,2068,2059,2076,2016,1976
2047,2039,2036,2057,2044,2066,2031,1976
2036,2038,2036,2057,2040,2048,2018,1983
2038,2038,2033,2058,2037,2029,2034,1984
2037,2038,2029,2055,2039,2009,2035,1987
2037,2038,2034,2071,2068,1968,2027,2007
2045,2042,2033,2080,2088,1971,2037,2029
2048,2051,2039,2087,2103,2004,2038,2037
2049,2050,2057,2093,2107,2045,2050,2052
2045,2057,2065,2089,2093,2065,2037,2068
2042,2052,2076,2085,2079,2060,2034,2070
2034,2048,2071,2083,2070,2047,2034,2073
2030,2036,2062,2072,2052,2032,2030,2067
2017,2025,2048,2060,2053,2031,2017,2067
2021,2034,2034,2052,2049,2048,2038,2064
2029,2031,2043,2051,2055,2058,2037,2063
2031,2034,2054,2054,2061,2056,2041,2059
2034,2043,2063,2060,2058,2050,2029,2040
2030,2055,2073,2067,2049,2048,2031,2033
2032,2055,2075,2064,2052,2050,2044,2022
2041,2057,2079,2070,2047,2053,2050,2023
2042,2061,2075,2074,2049,2050,2056,2020
2044,2056,2073,2080,2052,2052,2058,2014
2048,2060,2076,2077,2051,2047,2033,1999
2052,2059,2066,2076,2055,2054,2020,1996
2048,2050,2057,2073,2051,2037,2019,1988
2052,2047,2047,2066,2051,2048,2021,1983
2044,2053,2051,2070,2057,2055,2035,1981
2047,2046,2043,2063,2051,2039,2012,1967
2034,2033,2029,2050,2045,2027,2017,1963
2036,2037,2041,2046,2046,2032,2023,1973
2042,2055,2045,2041,2051,2039,2021,1977
2045,2058,2048,2034,2048,2038,2032,1976
2050,2061,2050,2035,2052,2042,2037,1980
2049,2063,2053,2034,2051,2046,2046,1993
2052,2059,2044,2026,2057,2051,2039,1999
2052,2057,2038,2025,2068,2053,2044,2012
2054,2061,2043,2022,2067,2057,2026,2015
2044,2062,2055,2032,2075,2074,2044,2029
2055,2073,2065,2042,2075,2082,2072,2039
2054,2065,2063,2041,2075,2076,2068,2056
2053,2067,2060,2049,2075,2068,2038,2065
2051,2061,2060,2050,2078,2066,2040,2082
2052,2063,2057,2050,2080,2066,2049,2088
2052,2061,2057,2048,2066,2063,2051,2092
2052,2058,2048,2039,2055,2064,2048,2093
2045,2050,2037,2035,2057,2066,2052,2092
2047,2064,2047,2041,2060,2073,2035,2085
2044,2055,2050,2041,2058,2058,2043,2083
2046,2053,2046,2036,2054,2051,2050,2069
2048,2055,2038,2039,2053,2031,2045,2054
2049,2053,2039,2034,2048,2026,2050,2050
2041,2052,2033,2035,2042,2022,2058,2032
2044,2053,2037,2037,2047,2024,2052,2021
2051,2054,2032,2037,2051,2030,2052,2011
2046,2052,2031,2047,2058,2056,2070,2001
2049,2050,2037,2042,2067,2068,2066,1995
2046,2050,2032,2040,2073,2066,2052,1982
2046,2044,2035,2038,2064,2058,2047,1970
2044,2047,2033,2046,2066,2055,2027,1965
2045,2038,2031,2040,2049,2054,2023,1963
2045,2026,2018,2026,2037,2038,1997,1963
2036,2013,2017,2028,2037,2024,2014,1966
2042,2027,2031,2038,2046,2049,2014,1974
2052,2042,2049,2048,2056,2056,2035,1979
2055,2050,2048,2053,2060,2054,2044,1980
2047,2045,2043,2050,2063,2053,2036,1978
2046,2045,2050,2054,2062,2057,2067,1984
2042,2044,2050,2055,2064,2053,2050,1998
2045,2046,2052,2056,2062,2050,2051,2000
2040,2039,2047,2052,2056,2048,2044,2010
2038,2043,2037,2054,2062,2054,2057,2018
2041,2043,2047,2060,2076,2067,2066,2043
2052,2047,2056,2061,2083,2077,2075,2065
2057,2061,2065,2065,2072,2080,2074,2078
2061,2060,2082,2067,2078,2101,2070,2094
2060,2063,2080,2065,2073,2109,2078,2099
2062,2057,2082,2059,2056,2105,2052,2089
2050,2047,2064,2041,2046,2111,2046,2088
2043,2048,2058,2038,2047,2135,2045,2093
2051,2055,2056,2029,2044,2125,2046,2086
2049,2054,2049,2033,2051,2056,2025,2072
2048,2054,2056,2029,2035,1957,2021,2069
2053,2061,2061,2034,2014,1966,2030,2057
2056,2050,2058,2033,1997,2000,2009,2038
2052,2055,2055,2027,1987,1999,1999,2024
2046,2044,2056,2019,1965,1985,1999,2009
2044,2042,2046,2010,1952,1991,2019,2003
2048,2039,2051,2021,1974,2012,2029,1996
2046,2044,2059,2030,1993,2011,2031,1994
2048,2042,2066,2042,2011,2003,2045,1996
2052,2048,2080,2063,2061,2029,2065,2005
2055,2063,2086,2074,2094,2062,2076,1998
2053,2059,2084,2077,2099,2085,2070,1988
2041,2050,2065,2060,2100,2101,2053,1979
2043,2047,2064,2054,2077,2109,2074,1986
2049,2059,2079,2064,2073,2137,2066,1990
2055,2065,2075,2065,2074,2127,2067,1988
2051,2060,2073,2060,2069,2095,2052,1996
2051,2055,2071,2055,2065,2094,2059,2003
2047,2054,2069,2056,2066,2110,2060,2006
2046,2051,2068,2059,2075,2118,2068,2018
2057,2056,2069,2062,2071,2096,2055,2024
2053,2058,2069,2054,2072,2033,2046,2031
2050,2056,2070,2054,2084,1994,2044,2047
2047,2053,2061,2060,2087,2002,2046,2059
2047,2054,2057,2061,2084,2030,2060,2069
2044,2049,2057,2050,2082,2041,2045,2080
2041,2047,2050,2048,2080,2047,2036,2084
2037,2044,2051,2047,2070,2053,2068,2084
2041,2042,2044,2037,2060,2046,2027,2091
2030,2037,2040,2040,2056,2032,2031,2090
2031,2040,2041,2042,2052,2014,2033,2092
2042,2045,2044,2044,2053,2037,2042,2089
2037,2043,2047,2037,2049,2042,2043,2079
2036,2043,2044,2043,2059,2054,2051,2074
2038,2041,2042,2043,2054,2050,2047,2068
2036,2043,2043,2046,2054,2048,2057,2050
2039,2044,2040,2046,2048,2044,2047,2031
2039,2037,2044,2050,2051,2037,2054,2022
2040,2041,2054,2056,2056,2039,2034,2008
2040,2043,2057,2064,2064,2039,2028,1998
2033,2042,2056,2066,2069,2050,2043,1993
2037,2044,2055,2067,2065,2060,2038,2001
2043,2048,2057,2066,2074,2058,2038,1995
2046,2042,2058,2062,2060,2032,2042,1992
2045,2043,2053,2056,2040,2018,2031,1983
2034,2034,2040,2041,2022,2022,2038,1979
2038,2031,2032,2042,2011,2031,2050,1991
2044,2046,2034,2046,2014,2033,2053,1988
2042,2042,2038,2036,2021,2022,2022,1988
2044,2045,2040,2033,2022,2018,2018,1987
2043,2050,2036,2037,2022,2024,2056,2003
2050,2059,2045,2036,2036,2028,2049,2018
2056,2061,2054,2030,2029,2032,2044,2025
2056,2060,2048,2031,2022,2029,2049,2035
2052,2058,2044,2022,2024,2022,2038,2035
2049,2051,2037,2018,2004,2036,2035,2049
2039,2052,2035,2023,2033,2050,2038,2064
2053,2054,2040,2027,2057,2059,2042,2072
2050,2055,2040,2035,2046,2058,2065,2092
2046,2054,2049,2038,2037,2055,2052,2093
2049,2053,2055,2037,2032,2060,2043,2103
2041,2046,2042,2030,2018,2047,2009,2094
2035,2034,2037,2024,2012,2036,2019,2100
2033,2038,2043,2022,2004,2021,2018,2099
2037,2042,2041,2015,2017,2016,2014,2098
2037,2048,2046,2028,2085,2040,2020,2089
2041,2050,2048,2039,2094,2052,2021,2075
2045,2054,2045,2042,2080,2052,2023,2066
2048,2053,2041,2038,2068,2051,2027,2048
2042,2052,2039,2034,2090,2052,2034,2041
2039,2050,2044,2046,2106,2050,2049,2039
2045,2050,2041,2048,2120,2046,2060,2030
2044,2051,2047,2054,2113,2052,2056,2032
2045,2048,2050,2054,2112,2054,2063,2034
2051,2049,2055,2052,2092,2051,2060,2031
2041,2048,2057,2055,2089,2047,2052,2014
2042,2053,2057,2052,2079,2052,2063,2012
2043,2051,2064,2052,2059,2058,2036,2011
2037,2039,2049,2043,1975,2039,2017,2002
2028,2035,2045,2024,1925,2032,2040,2008
2044,2048,2048,2034,1970,2044,2047,2006
2046,2049,2051,2043,2011,2064,2044,2011
2050,2048,2050,2042,2041,2062,2045,2021
2044,2054,2050,2041,2051,2057,2038,2020
2047,2048,2048,2036,2043,2038,2038,2028
2050,2049,2044,2035,2048,2031,2032,2034
2050,2052,2041,2036,2062,2044,2053,2037
2052,2053,2035,2039,2064,2071,2080,2060
2054,2052,2046,2042,2087,2089,2077,2072
2054,2059,2048,2050,2109,2086,2080,2080
2049,2057,2048,2046,2095,2071,2058,2098
2044,2054,2036,2038,2080,2056,2047,2112
2050,2056,2032,2038,2075,2011,2058,2125
2044,2051,2037,2032,2057,1975,2064,2128
2040,2045,2021,2018,2033,1974,2047,2117
2034,2033,2010,2011,2019,1984,2038,2123
2035,2037,2011,2016,2023,2010,2052,2116
2034,2032,2008,2014,2030,2047,2050,2120
2037,2035,2012,2028,2048,2084,2066,2119
2034,2044,2025,2046,2057,2097,2060,2101
2042,2044,2016,2039,2067,2084,2037,2084
2041,2045,2024,2043,2053,2064,2061,2082
2043,2048,2028,2043,2036,2070,2029,2062
2044,2046,2034,2036,2022,2075,2052,2047
2042,2049,2035,2034,2024,2082,2070,2038
2042,2053,2032,2040,2034,2054,2061,2034
2038,2052,2035,2039,2041,2038,2043,2026
2038,2044,2037,2037,2040,2034,2054,2022
2042,2048,2055,2039,2049,2044,2044,2020
2047,2052,2055,2040,2053,2042,2045,2020
2041,2048,2053,2031,2054,2044,2027,2015
2032,2035,2040,2032,2044,2043,2046,2011
2040,2036,2044,2029,2043,2057,2048,2018
2051,2051,2052,2035,2052,2072,2054,2021
2047,2058,2060,2038,2055,2078,2047,2025
2047,2056,2057,2039,2055,2074,2046,2024
2048,2056,2058,2042,2059,2062,2031,2026
2042,2056,2057,2037,2054,2056,2036,2031
2041,2050,2060,2038,2051,2039,2030,2044
2044,2054,2060,2037,2049,2013,2040,2053
2044,2053,2062,2043,2052,2020,2042,2066
2051,2056,2057,2043,2049,2035,2041,2084
2049,2054,2057,2042,2051,2035,2022,2082
2046,2054,2058,2051,2059,2029,2040,2099
2046,2052,2060,2046,2057,2030,2040,2108
2044,2050,2063,2049,2056,2033,2036,2116
2037,2047,2056,2043,2050,2032,2026,2116
2033,2045,2044,2027,2035,2027,2035,2120
2023,2031,2042,2033,2026,2029,2035,2116
2027,2038,2045,2029,2037,2037,2055,2121
2034,2044,2046,2031,2034,2039,2058,2123
2042,2047,2052,2032,2033,2043,2069,2116
2046,2052,2049,2024,2019,2036,2046,2098
2040,2056,2046,2024,2017,2050,2051,2086
2039,2049,2049,2027,2024,2054,2065,2080
2041,2043,2049,2030,2013,2043,2044,2064
2045,2044,2046,2027,2016,2025,2063,2056
2045,2040,2042,2025,2019,2014,2054,2045
2037,2039,2037,2021,2018,2021,2039,2032
2035,2041,2031,2015,2014,2052,2044,2025
2028,2033,2029,2017,2022,2090,2048,2017
2036,2036,2034,2010,2006,2105,2025,2015
2038,2034,2026,2004,1973,2099,2048,2014
2040,2044,2034,1999,1970,2075,2048,2008
2036,2031,2032,1997,1973,2013,2038,2015
2043,2035,2032,2018,2018,1977,2044,2040
2061,2056,2050,2049,2078,1971,2052,2052
2056,2059,2057,2056,2109,2001,2054,2058
2056,2061,2050,2057,2108,2031,2060,2055
2058,2056,2054,2053,2098,2036,2057,2052
2052,2051,2050,2046,2085,2049,2062,2051
2048,2046,2043,2044,2078,2057,2065,2067
2053,2042,2037,2033,2065,2060,2069,2077
2054,2047,2042,2037,2058,2059,2077,2082
2050,2048,2038,2029,2050,2053,2066,2093
2049,2040,2038,2026,2042,2058,2071,2097
2037,2046,2037,2029,2049,2061,2073,2106
2040,2051,2042,2028,2070,2067,2062,2120
2046,2055,2055,2046,2087,2062,2055,2135
2056,2064,2064,2050,2089,2051,2059,2144
2056,2064,2059,2048,2075,2046,2033,2147
2047,2052,2052,2040,2067,2046,2042,2145
2049,2044,2046,2044,2068,2051,2039,2142
2050,2065,2044,2041,2056,2038,2053,2137
2046,2061,2042,2038,2048,2033,2060,2116
2045,2053,2046,2032,2040,2044,2065,2099
2038,2043,2043,2027,2037,2048,2042,2089
2034,2037,2033,2024,2033,2044,2036,2077
2032,2034,2034,2024,2026,2055,2054,2072
2033,2041,2037,2027,2033,2065,2052,2063
2043,2043,2033,2035,2040,2060,2053,2054
2042,2050,2040,2035,2033,2059,2073,2049
2042,2053,2044,2038,2040,2060,2068,2048
2053,2056,2046,2037,2037,2064,2059,2042
2045,2048,2043,2036,2035,2064,2047,2029
2045,2048,2039,2036,2037,2083,2051,2026
2040,2047,2041,2039,2042,2097,2072,2021
2043,2045,2027,2031,2040,2093,2056,2013
2040,2036,2031,2029,2035,2045,2055,2019
2044,2052,2036,2039,2042,2008,2067,2021
2051,2050,2036,2039,2052,2014,2065,2034
2049,2048,2033,2037,2055,2034,2069,2035
2051,2047,2039,2036,2056,2057,2053,2033
2052,2049,2034,2040,2056,2062,2075,2053
2056,2049,2036,2041,2057,2060,2080,2058
2063,2055,2036,2040,2062,2060,2076,2067
2056,2055,2041,2045,2057,2052,2076,2072
2052,2050,2056,2056,2062,2058,2081,2081
2052,2054,2064,2065,2070,2058,2082,2098
2059,2061,2070,2072,2069,2052,2069,2100
2057,2058,2075,2079,2078,2045,2029,2101
2047,2056,2080,2075,2059,2008,2028,2107
2050,2053,2072,2067,2046,1993,2025,2113
2037,2045,2071,2060,2042,1995,2021,2118
2033,2029,2062,2046,2016,1997,2035,2115
2032,2026,2051,2040,1990,2005,2026,2109
2044,2032,2061,2037,1985,2024,2031,2115
2048,2032,2055,2038,1981,2030,2045,2113
2047,2030,2058,2032,1984,2039,2025,2097
2041,2034,2045,2037,1981,2055,2043,2093
2051,2041,2056,2057,2036,2072,2066,2095
2055,2041,2045,2060,2072,2071,2059,2080
2047,2034,2042,2049,2070,2076,2044,2072
2046,2032,2031,2045,2069,2070,2039,2066
2045,2035,2020,2038,2044,2068,2048,2057
2052,2039,2017,2030,2038,2066,2067,2047
2045,2041,2010,2021,2040,2064,2074,2049
2043,2034,2004,2007,2042,2071,2049,2039
2044,2027,1995,1994,2010,2058,2053,2034
2043,2027,1997,1994,2052,2080,2050,2028
2047,2027,2002,2008,2071,2085,2058,2025
2038,2018,1996,2007,2051,2066,2050,2023
2037,2016,1991,2003,2040,2055,2060,2022
2043,2025,2002,2010,2054,2046,2080,2032
2046,2022,2006,2014,2052,2041,2059,2033
2043,2029,2012,2015,2050,2027,2069,2038
2047,2038,2021,2020,2060,2017,2049,2046
2044,2037,2024,2024,2071,2023,2058,2045
2044,2035,2031,2030,2071,2027,2058,2059
2045,2037,2038,2027,2062,2026,2063,2060
2051,2036,2040,2019,2043,2023,2061,2069
2048,2042,2044,2009,2006,2023,2046,2086
2050,2043,2043,2009,1978,2025,2033,2099
2052,2042,2061,2013,2015,2037,2023,2102
2041,2048,2064,2024,2033,2048,2023,2110
2052,2050,2061,2026,2037,2047,2012,2118
2051,2048,2065,2022,2048,2048,2034,2126
2055,2048,2058,2023,2053,2057,2043,2133
2047,2038,2056,2022,2044,2065,2047,2141
2051,2041,2053,2024,2043,2066,2067,2139
2059,2054,2052,2010,2033,2050,2079,2132
2050,2046,2052,2004,2031,2041,2064,2117
2055,2049,2048,2021,2047,2052,2066,2114
2062,2052,2050,2027,2061,2061,2053,2099
2061,2051,2049,2026,2051,2057,2060,2084
2064,2054,2051,2023,2024,2046,2047,2072
2064,2046,2049,2024,2011,2032,2053,2059
2062,2049,2045,2019,2018,2032,2036,2051
2053,2045,2041,2020,2028,2037,2037,2040
2054,2054,2048,2032,2032,2043,2039,2044
2063,2060,2047,2032,2048,2041,2047,2048
2065,2062,2050,2032,2053,2041,2048,2046
2065,2063,2048,2041,2058,2051,2069,2039
2064,2054,2040,2037,2049,2046,2056,2024
2051,2047,2033,2031,2042,2031,2064,2015
2044,2037,2026,2029,2036,2031,2052,2018
2050,2044,2038,2041,2050,2044,2065,2024
2061,2048,2039,2044,2047,2041,2088,2030
2055,2056,2041,2045,2041,2036,2072,2027
2059,2052,2037,2042,2041,2037,2076,2029
2056,2057,2035,2040,2046,2033,2077,2030
2057,2055,2034,2039,2056,2034,2072,2039
2054,2052,2035,2046,2055,2037,2085,2052
2057,2052,2029,2041,2058,2039,2084,2064
2056,2049,2037,2050,2059,2039,2082,2072
2052,2050,2042,2049,2058,2038,2068,2083
2053,2050,2040,2049,2069,2046,2080,2102
2049,2046,2034,2048,2071,2061,2088,2109
2049,2043,2043,2055,2067,2062,2073,2119
2057,2044,2052,2071,2070,2065,2084,2120
2050,2044,2061,2073,2076,2054,2055,2115
2039,2034,2055,2066,2059,2044,2042,2107
2030,2032,2057,2060,2041,2040,2047,2115
2040,2043,2064,2064,2073,2026,2049,2117
2044,2055,2078,2070,2082,2012,2036,2109
2049,2053,2085,2067,2079,2011,2030,2103
2052,2063,2087,2073,2077,2024,2052,2102
2055,2062,2085,2074,2076,2042,2040,2087
2053,2057,2078,2075,2070,2054,2026,2072
2052,2059,2073,2074,2073,2067,2056,2055
2060,2059,2067,2070,2058,2045,2042,2048
2058,2056,2064,2064,2034,2021,2032,2040
2055,2053,2056,2063,1992,2024,2045,2038
2052,2043,2049,2042,1941,2020,2038,2032
2045,2039,2044,2029,1963,2034,2045,2031
2050,2042,2037,2018,2000,2051,2059,2028
2051,2038,2034,2007,2021,2062,2062,2020
2051,2045,2045,2002,2023,2058,2055,2017
2050,2037,2049,1994,2019,2038,2039,2010
2045,2040,2049,1993,2027,2043,2048,2025
2057,2055,2038,1993,2032,2046,2058,2025
2060,2044,2029,1990,2029,2038,2059,2027
2055,2051,2027,1993,2027,2035,2049,2034
2058,2051,2040,2003,2032,2050,2066,2037
2061,2051,2031,2009,2030,2052,2064,2044
2062,2053,2039,2011,2029,2046,2063,2050
2058,2057,2040,1997,2019,2037,2050,2054
2054,2054,2040,2006,2022,2045,2049,2070
2050,2052,2043,2014,2040,2061,2043,2082
2045,2051,2041,2018,2046,2063,2054,2085
2047,2046,2043,2028,2049,2054,2057,2096
2048,2049,2047,2026,2056,2032,2051,2116
2046,2053,2046,2036,2065,2004,2050,2128
2047,2046,2041,2038,2057,1995,2050,2121
2047,2036,2027,2032,2047,1994,2032,2126
2030,2026,2022,2034,2054,2000,2032,2119
2032,2035,2024,2042,2056,2006,2041,2120
2042,2038,2031,2045,2060,2012,2024,2115
2041,2037,2030,2043,2048,2009,2033,2103
2037,2038,2017,2042,2044,2018,2033,2099
2043,2039,2017,2035,2047,2023,2047,2091
2047,2041,2010,2036,2039,2024,2042,2089
2053,2045,2015,2037,2028,2016,2030,2070
2051,2039,2014,2036,2030,2011,2051,2063
2045,2033,2012,2041,2034,2025,2051,2043
2040,2034,2014,2034,2032,2043,2063,2044
2045,2036,2016,2033,2024,2054,2064,2040
2050,2033,2024,2028,2025,2065,2068,2033
2048,2030,2021,2022,2018,2072,2072,2026
2049,2034,2027,2015,2032,2079,2074,2014
2046,2033,2025,2018,2032,2084,2058,2007
2037,2025,2027,2014,2022,2076,2060,2005
2037,2022,2023,2009,2008,2063,2072,2004
2045,2034,2035,2017,2021,2053,2075,2015
2056,2052,2043,2022,2026,2054,2079,2024
2057,2053,2053,2028,2025,2053,2080,2036
2063,2057,2053,2032,2030,2044,2074,2033
2057,2055,2059,2032,2043,2044,2069,2024
2047,2054,2058,2032,2048,2032,2046,2037
2054,2054,2060,2030,2062,2041,2046,2048
2052,2061,2061,2037,2098,2057,2053,2061
2055,2058,2063,2045,2097,2063,2073,2076
2060,2064,2070,2046,2078,2053,2064,2081
2058,2064,2073,2053,2068,2054,2075,2099
2060,2060,2074,2051,2067,2058,2067,2111
2053,2060,2066,2044,2061,2056,2061,2121
2049,2046,2057,2036,2056,2061,2060,2120
2049,2040,2051,2036,2050,2057,2046,2120
2040,2034,2044,2029,2034,2045,2052,2121
2035,2036,2039,2026,2020,2042,2054,2124
2042,2045,2050,2034,2021,2042,2045,2117
2047,2038,2044,2030,2013,2037,2051,2104
2044,2040,2042,2023,2015,2031,2040,2094
2040,2042,2038,2028,2009,2029,2046,2083
2044,2041,2035,2022,2009,2033,2046,2071
2042,2038,2037,2024,2012,2043,2053,2060
2046,2033,2035,2026,2017,2040,2058,2053
2043,2026,2035,2026,2018,2045,2050,2043
2046,2032,2025,2026,2022,2045,2061,2032
2044,2031,2027,2026,2030,2048,2060,2030
2054,2033,2032,2029,2033,2048,2062,2024
2051,2035,2036,2034,2039,2048,2054,2021
2051,2039,2044,2037,2052,2051,2057,2014
2055,2047,2045,2040,2043,2049,2062,2015
2061,2048,2046,2033,2042,2044,2044,2003
2052,2038,2043,2025,2045,2043,2048,2002
2053,2042,2050,2034,2056,2054,2055,2009
2065,2052,2058,2041,2059,2054,2050,2011
2060,2050,2052,2042,2053,2058,2037,2008
2065,2040,2045,2040,2060,2065,2044,2020
2058,2039,2040,2040,2074,2068,2060,2020
2066,2046,2040,2042,2085,2079,2058,2036
2060,2052,2039,2050,2088,2091,2071,2046
2066,2054,2039,2051,2085,2098,2055,2054
2063,2046,2041,2049,2081,2107,2060,2062
2058,2045,2042,2051,2083,2111,2069,2073
2060,2037,2041,2049,2079,2090,2060,2081
2053,2039,2051,2046,2064,2013,2068,2102
2048,2043,2064,2045,2043,1994,2039,2111
2048,2048,2078,2041,2033,2005,2063,2124
2052,2050,2077,2051,2036,2029,2055,2129
2053,2045,2073,2046,2034,2031,2042,2122
2048,2034,2067,2050,2034,2041,2024,2111
2047,2037,2069,2052,2037,2057,2030,2103
2048,2034,2055,2045,2043,2063,2034,2106
2049,2038,2049,2041,2047,2059,2038,2107
2047,2047,2050,2033,2049,2048,2024,2090
2047,2042,2048,2040,2046,2035,2042,2071
2053,2048,2053,2037,2039,2032,2037,2067
2057,2051,2053,2037,2035,2038,2037,2047
2056,2047,2050,2042,2035,2039,2035,2040
2051,2050,2046,2037,2025,2032,2030,2027
2053,2044,2042,2035,2020,2021,2024,2018
2050,2038,2037,2033,2005,2017,2025,2011
2042,2040,2038,2034,2005,2027,2042,2012
2045,2037,2040,2032,1996,2044,2059,2010
2050,2038,2041,2038,2028,2059,2065,2015
2051,2041,2041,2043,2051,2057,2065,2004
2044,2036,2031,2036,2047,2056,2053,2006
2046,2038,2039,2043,2036,2051,2052,2002
2048,2053,2043,2046,2034,2066,2065,2011
2056,2052,2046,2050,2034,2061,2058,2009
2055,2046,2041,2049,2044,2070,2053,2010
2054,2042,2039,2045,2039,2064,2054,2015
2045,2040,2032,2035,2020,2047,2057,2015
2049,2042,2030,2031,2048,2049,2052,2028
2056,2043,2048,2047,2062,2068,2049,2046
2061,2057,2055,2056,2060,2082,2068,2063
2069,2062,2055,2055,2054,2084,2075,2072
2067,2057,2054,2053,2046,2080,2067,2086
2056,2052,2058,2050,2049,2076,2068,2093
2055,2045,2052,2059,2056,2078,2063,2102
2050,2043,2053,2060,2054,2058,2063,2102
2049,2034,2051,2056,2060,2050,2055,2102
2047,2034,2041,2051,2052,2043,2053,2104
2034,2017,2023,2039,2042,2039,2057,2107
2031,2016,2016,2034,2040,2039,2050,2108
2032,2029,2026,2036,2038,2043,2049,2104
2041,2037,2037,2044,2046,2049,2056,2097
2040,2035,2038,2043,2043,2050,2064,2082
2044,2038,2034,2038,2052,2050,2061,2071
2041,2033,2036,2038,2061,2054,2043,2066
2051,2033,2036,2039,2061,2056,2055,2066
2064,2041,2041,2037,2053,2055,2070,2053
2065,2051,2037,2038,2049,2042,2060,2039
2062,2046,2037,2029,2039,2028,2047,2023
2052,2044,2041,2027,2039,2023,2036,2019
2052,2041,2038,2021,2043,2025,2041,2013
2054,2042,2039,2021,2050,2037,2042,2013
2058,2044,2038,2015,2050,2051,2052,2010
2057,2039,2024,2009,2058,2059,2064,2009
2048,2026,2017,1999,2054,2054,2047,2000
2040,2018,2015,2002,2052,2051,2054,1992
2040,2018,2028,2013,2061,2053,2051,2003
2048,2031,2037,2024,2063,2059,2053,2008
2044,2037,2036,2025,2064,2064,2041,2016
2055,2044,2033,2038,2059,2060,2044,2018
2055,2040,2030,2036,2062,2051,2035,2022
2054,2035,2029,2036,2064,2057,2049,2031
2054,2039,2032,2046,2075,2064,2053,2044
2055,2041,2036,2049,2063,2068,2070,2060
2059,2045,2048,2050,2064,2068,2078,2071
2062,2049,2055,2061,2060,2073,2076,2082
2064,2052,2060,2061,2062,2078,2081,2098
2062,2052,2066,2059,2062,2075,2076,2104
2056,2050,2069,2060,2050,2067,2069,2115
2047,2048,2069,2054,2055,2071,2074,2118
2051,2043,2065,2052,2054,2064,2070,2121
2036,2028,2058,2050,2043,2056,2051,2119
2033,2022,2060,2043,2032,2048,2026,2116
2040,2035,2069,2036,2021,2047,2042,2112
2039,2043,2073,2033,2020,2043,2036,2107
2045,2050,2073,2027,2024,2054,2029,2098
2050,2056,2074,2027,2034,2068,2037,2096
2053,2057,2074,2028,2043,2070,2045,2078
2055,2051,2060,2020,2042,2081,2058,2064
2056,2047,2050,2018,2038,2071,2041,2050
2044,2041,2046,2016,2036,2035,2029,2038
2047,2043,2049,2024,2037,2023,2023,2031
2046,2036,2049,2027,2038,2014,2037,2020
2051,2035,2044,2029,2036,2012,2038,2014
2046,2029,2040,2024,2040,2029,2022,2009
2043,2033,2035,2028,2041,2042,2052,2007
2054,2034,2046,2024,2051,2046,2043,2008
2052,2036,2044,2020,2046,2043,2029,1999
2046,2027,2039,2025,2043,2040,2032,1991
2044,2030,2048,2027,2049,2049,2029,2005
2060,2043,2057,2033,2049,2051,2036,2010
2053,2045,2051,2030,2045,2047,2048,2014
2053,2044,2054,2035,2047,2057,2052,2014
2049,2039,2047,2036,2051,2065,2069,2024
2049,2042,2044,2033,2059,2073,2072,2029
2059,2039,2045,2033,2062,2071,2064,2044
2061,2036,2036,2038,2066,2069,2069,2053
2059,2030,2029,2035,2064,2068,2074,2065
2054,2028,2029,2036,2069,2070,2066,2072
2056,2029,2025,2039,2064,2069,2066,2083
2046,2027,2024,2036,2068,2067,2058,2095
2047,2023,2027,2036,2069,2069,2065,2103
2049,2027,2025,2033,2062,2067,2061,2112
2051,2026,2024,2030,2051,2064,2058,2119
2041,2013,2012,2021,2042,2050,2045,2106
2034,2016,2016,2021,2037,2048,2060,2111
2035,2030,2030,2028,2040,2046,2057,2113
2051,2033,2045,2034,2043,2049,2048,2113
2047,2043,2044,2030,2032,2048,2063,2096
2048,2040,2037,2036,2028,2044,2054,2086
2043,2038,2040,2031,2030,2043,2063,2072
2051,2040,2051,2037,2031,2050,2054,2064
2050,2046,2054,2038,2037,2068,2061,2061
2053,2044,2056,2039,2034,2057,2053,2038
2049,2044,2057,2036,2035,2048,2040,2032
2057,2045,2060,2037,2028,2041,2016,2017
2050,2047,2058,2037,2030,2047,2035,2014
2051,2047,2069,2046,2032,2051,2048,2004
2046,2055,2063,2050,2036,2047,2055,1996
2048,2051,2056,2040,2031,2033,2041,1995
2045,2053,2059,2041,2026,2028,2036,1987
2036,2034,2039,2030,2019,2024,2043,1984
2031,2034,2040,2031,2024,2029,2053,1989
2041,2048,2049,2037,2028,2037,2020,1997
2047,2046,2050,2035,2026,2046,2029,2004
2046,2047,2050,2045,2032,2065,2052,2011
2048,2043,2045,2045,2036,2070,2040,2013
2046,2048,2050,2050,2043,2067,2047,2024
2045,2056,2054,2055,2054,2070,2049,2030
2052,2057,2063,2066,2056,2072,2054,2034
2055,2058,2066,2077,2057,2067,2058,2052
2051,2061,2074,2085,2054,2067,2055,2063
2053,2061,2075,2080,2063,2062,2049,2075
2065,2056,2077,2087,2069,2068,2059,2090
2060,2061,2082,2089,2073,2055,2037,2098
2058,2059,2079,2092,2070,2050,2041,2096
2054,2055,2078,2092,2068,2050,2066,2105
2050,2045,2067,2083,2060,2044,2037,2100
2038,2038,2064,2083,2057,2054,2045,2095
2038,2047,2072,2087,2057,2060,2053,2105
2044,2047,2066,2080,2049,2059,2032,2101
2045,2043,2060,2076,2044,2056,2022,2097
2038,2043,2057,2072,2043,2053,2044,2077
2039,2043,2052,2067,2045,2059,2055,2074
2049,2035,2035,2049,2035,2058,2051,2066
2044,2033,2025,2028,2018,2059,2038,2049
2042,2033,2024,2006,2018,2062,2052,2044
2045,2030,2025,2002,2021,2056,2036,2034
2054,2045,2036,2009,2024,2047,2030,2033
2055,2046,2039,2014,2027,2014,2031,2021
2055,2045,2042,2014,2024,2005,2046,2020
2052,2046,2039,2010,2030,2026,2049,2006
2050,2043,2040,2009,2028,2051,2046,2004
2046,2040,2035,2009,2019,2065,2041,1990
2030,2022,2027,2004,1997,2058,2033,1983
2025,2023,2024,2002,1994,2052,2028,1986
2034,2032,2032,2015,2004,2068,2044,1996
2044,2036,2037,2020,2010,2059,2046,1994
2044,2045,2041,2027,2040,2047,2067,2013
2054,2049,2051,2043,2068,2050,2074,2023
2060,2052,2060,2052,2086,2063,2085,2032
2055,2052,2051,2053,2093,2072,2070,2031
2052,2055,2051,2056,2088,2063,2062,2046
2052,2049,2051,2051,2080,2056,2066,2056
2053,2048,2051,2049,2074,2056,2068,2068
2057,2047,2052,2052,2076,2050,2068,2078
2054,2054,2053,2057,2075,2049,2068,2096
2056,2050,2052,2051,2064,2036,2062,2098
2046,2045,2051,2044,2047,2031,2063,2104
2048,2049,2047,2043,2038,2044,2044,2110
2043,2048,2049,2040,2032,2036,2031,2102
2034,2031,2039,2030,2039,2042,2036,2103
2037,2027,2031,2035,2029,2054,2065,2110
2049,2045,2040,2035,2021,2055,2079,2118
2052,2048,2054,2041,2023,2060,2091,2114
2053,2055,2056,2039,2016,2056,2086,2107
2063,2063,2054,2037,2010,2052,2085,2089
2061,2059,2055,2038,2013,2052,2062,2069
2050,2054,2046,2044,2016,2050,2055,2060
2052,2051,2044,2041,2018,2048,2053,2047
2050,2048,2040,2039,2017,2044,2050,2032
2045,2043,2042,2040,2013,2037,2042,2017
2038,2043,2045,2036,2008,2036,2046,2007
2040,2037,2040,2039,2013,2039,2023,2004
2040,2039,2039,2037,2036,2033,2020,1994
2042,2033,2043,2039,2049,2023,2012,1993
2045,2037,2044,2042,2060,2025,2010,1999
2037,2025,2034,2035,2049,2024,2022,1989
2042,2028,2040,2038,2045,2028,2046,1991
2048,2040,2054,2038,2042,2039,2034,1995
2051,2050,2051,2042,2038,2030,2033,2001
2055,2048,2050,2045,2038,2033,2011,2010
2056,2044,2052,2047,2041,2037,2032,2011
2056,2051,2054,2046,2049,2041,2018,2022
2055,2047,2052,2053,2058,2041,2050,2031
2058,2046,2052,2047,2055,2039,2045,2030
2061,2049,2058,2055,2061,2041,2053,2043
2057,2047,2059,2054,2059,2040,2064,2058
2057,2049,2058,2055,2065,2048,2057,2071
2057,2054,2064,2059,2075,2052,2064,2085
2057,2058,2058,2057,2072,2051,2057,2097
2057,2055,2054,2056,2069,2047,2065,2101
2057,2051,2055,2050,2060,2031,2054,2103
2056,2046,2047,2044,2064,2024,2033,2095
2033,2034,2040,2042,2096,2019,2023,2093
2032,2030,2036,2051,2119,2025,2043,2096
2044,2040,2042,2054,2114,2021,2053,2102
2042,2040,2042,2051,2113,2032,2033,2093
2042,2036,2038,2055,2121,2045,2044,2091
2047,2038,2040,2050,2106,2052,2043,2082
2050,2038,2035,2044,2087,2050,2024,2065
2047,2037,2032,2048,2057,2046,2021,2048
2044,2039,2026,2041,2024,2050,2046,2034
2051,2040,2021,2033,1960,2047,2030,2031
2056,2036,2019,2027,1956,2071,2034,2034
2059,2047,2017,2033,1989,2098,2057,2031
2057,2042,2013,2036,2004,2093,2032,2019
2052,2040,2012,2034,2009,2084,2042,1995
2050,2038,2008,2034,2016,2080,2048,1986
2048,2033,2018,2041,2011,2078,2031,1978
2041,2026,2009,2040,2020,2025,2017,1970
2042,2022,2010,2037,2027,1982,2024,1978
2043,2035,2023,2050,2035,1996,2017,1986
2047,2043,2034,2053,2038,2022,2039,1998
2046,2052,2046,2063,2034,2042,2038,2004
2055,2054,2044,2069,2025,2054,2036,2015
2057,2052,2045,2074,2047,2065,2040,2015
2058,2055,2051,2078,2063,2072,2038,2024
2054,2050,2049,2059,2040,2049,2041,2030
2054,2052,2047,2041,2005,2020,2028,2033
2048,2054,2070,2046,2007,2032,2043,2048
2045,2060,2087,2054,1991,2038,2048,2064
2054,2062,2091,2056,2019,2050,2064,2075
2049,2056,2080,2055,2045,2051,2066,2081
2045,2046,2062,2043,2049,2035,2064,2091
2043,2043,2044,2043,2047,2021,2071,2096
2042,2038,2034,2037,2047,2016,2049,2085
2024,2029,2029,2032,2049,2015,2049,2091
2026,2023,2031,2033,2041,2031,2048,2098
2036,2043,2037,2035,2028,2033,2047,2088
2044,2047,2040,2038,2022,2033,2051,2084
2050,2056,2045,2040,2012,2031,2045,2079
2058,2057,2043,2038,2009,2026,2045,2078
2054,2061,2051,2041,2000,2027,2042,2067
2052,2060,2059,2043,2000,2021,2054,2046
2051,2057,2060,2046,1997,2025,2038,2035
2053,2059,2061,2045,2000,2029,2054,2026
2048,2057,2058,2042,2003,2034,2055,2020
2048,2053,2046,2044,2024,2040,2060,2011
2044,2052,2036,2047,2047,2037,2050,2002
2044,2052,2042,2047,2061,2046,2064,2008
2051,2050,2039,2048,2065,2051,2077,2008
2054,2058,2051,2051,2049,2045,2069,2004
2051,2051,2042,2042,2039,2028,2056,2000
2042,2047,2041,2042,2038,2038,2056,1998
2043,2063,2049,2054,2051,2054,2056,2014
2061,2066,2054,2048,2052,2060,2071,2018
2065,2068,2055,2053,2050,2054,2063,2021
2060,2066,2053,2047,2049,2048,2049,2026
2061,2061,2052,2047,2056,2045,2059,2026
2052,2058,2054,2045,2050,2040,2064,2032
2052,2063,2059,2059,2054,2055,2063,2040
2055,2057,2058,2060,2060,2049,2052,2033
2052,2054,2057,2061,2076,2044,2046,2037
2051,2052,2056,2060,2072,2062,2042,2051
2043,2052,2051,2050,2069,2059,2044,2062
2040,2051,2041,2045,2056,2038,2026,2072
2041,2049,2046,2042,2053,2025,2028,2083
2045,2054,2048,2047,2052,2043,2044,2099
2047,2061,2051,2051,2058,2049,2038,2104
2045,2054,2046,2048,2051,2041,2045,2108
2046,2053,2045,2046,2045,2033,2034,2108
2049,2067,2055,2054,2050,2041,2036,2100
