CH1,CH2,CH3,CH4,CH5,CH6,CH7,CH8
2050,2041,2088,2057,2027,2029,2030,2025
2049,2050,2091,2068,2053,2041,2048,2018
2054,2056,2087,2073,2081,2053,2054,2019
2064,2052,2074,2077,2076,2049,2048,2013
2056,2051,2061,2073,2068,2052,2044,2011
2059,2046,2056,2073,2061,2046,2040,2008
2053,2036,2055,2066,2052,2035,2046,2004
2051,2041,2063,2064,2058,2043,2052,2009
2059,2053,2063,2065,2070,2055,2068,2017
2061,2050,2056,2058,2065,2056,2059,2023
2064,2053,2051,2064,2074,2058,2043,2020
2054,2048,2043,2058,2064,2057,2061,2028
2057,2044,2034,2047,2050,2049,2049,2027
2047,2039,2027,2045,2041,2043,2053,2026
2060,2048,2024,2049,2035,2045,2050,2038
2057,2042,2023,2049,2037,2048,2062,2047
2056,2035,2024,2044,2022,2045,2069,2054
2047,2029,2024,2042,2016,2044,2060,2061
2051,2033,2026,2039,2011,2049,2062,2061
2045,2032,2026,2036,2007,2047,2053,2070
2046,2033,2024,2031,2002,2048,2060,2073
2045,2038,2035,2031,2000,2051,2045,2085
2048,2031,2024,2024,1983,2035,2051,2079
2037,2022,2024,2026,1979,2035,2045,2090
2047,2030,2033,2050,2025,2045,2060,2086
2049,2024,2042,2074,2059,2046,2050,2066
2054,2023,2038,2081,2092,2046,2060,2057
2046,2028,2030,2095,2187,2064,2058,2051
2047,2028,2033,2104,2252,2081,2048,2051
2049,2034,2031,2105,2289,2091,2059,2046
2053,2044,2040,2102,2272,2087,2056,2038
2063,2056,2060,2104,2222,2079,2056,2038
2069,2062,2076,2106,2177,2068,2046,2027
2069,2061,2074,2095,2160,2052,2058,2026
2061,2055,2063,2066,2062,2021,2039,2016
2052,2045,2054,2040,1949,2004,2038,2014
2052,2037,2050,2024,1913,2004,2033,2007
2055,2040,2053,2005,1868,2009,2049,2012
2047,2039,2056,1999,1954,2022,2040,2003
2043,2036,2068,1993,1957,2024,2043,2010
2052,2057,2070,1983,1952,2040,2056,2017
2058,2063,2078,2008,2040,2055,2060,2017
2061,2059,2078,2019,2091,2061,2062,2022
2060,2056,2087,2031,2082,2058,2072,2026
2060,2053,2082,2036,2064,2047,2045,2026
2056,2042,2067,2025,2064,2023,2052,2024
2045,2027,2047,2006,2069,2023,2043,2040
2040,2026,2039,1994,2089,2051,2050,2037
2042,2037,2046,1998,2076,2064,2034,2056
2048,2055,2063,2017,2078,2084,2043,2068
2052,2054,2069,2020,2058,2086,2049,2074
2056,2052,2065,2012,2032,2081,2050,2087
2053,2050,2056,2008,2004,2065,2032,2087
2053,2048,2053,2004,1964,2050,2055,2088
2048,2049,2052,2005,1834,1996,2044,2089
2048,2041,2041,1998,1811,1988,2044,2078
2042,2049,2043,2010,1910,2023,2053,2076
2045,2043,2040,2025,1975,2029,2043,2071
2046,2043,2039,2035,2018,2026,2047,2070
2044,2043,2046,2041,2066,2038,2055,2061
2049,2037,2054,2052,2068,2044,2047,2049
2053,2040,2054,2050,2045,2037,2046,2044
2052,2045,2060,2050,2022,2037,2069,2035
2050,2045,2054,2046,2007,2029,2050,2032
2056,2038,2046,2050,2015,2038,2053,2027
2045,2038,2048,2054,2018,2042,2024,2026
2054,2029,2046,2058,2014,2037,2062,2018
2048,2025,2038,2047,2014,2027,2051,2016
2048,2025,2034,2049,2009,2021,2054,2006
2046,2034,2035,2051,2017,2031,2048,2008
2049,2031,2034,2049,2038,2027,2036,2005
2041,2025,2039,2039,2044,2026,2048,2002
2047,2043,2046,2044,2067,2043,2050,2015
2053,2049,2055,2042,2094,2054,2034,2016
2053,2044,2046,2044,2101,2057,2052,2020
2059,2037,2029,2021,2090,2049,2039,2032
2056,2037,2022,2017,2082,2046,2050,2031
2052,2027,2024,2026,2076,2051,2053,2030
2052,2034,2035,2044,2081,2059,2034,2046
2053,2049,2047,2048,2081,2063,2034,2050
2046,2048,2047,2050,2075,2058,2046,2060
2056,2049,2047,2047,2064,2049,2057,2072
2058,2047,2043,2044,2045,2044,2037,2075
2058,2045,2047,2047,2044,2035,2044,2084
2055,2047,2066,2054,2045,2031,2050,2089
2053,2043,2073,2060,2042,2043,2059,2086
2039,2042,2069,2060,2038,2030,2046,2079
2035,2032,2073,2061,2039,2039,2037,2080
2041,2040,2075,2064,2044,2048,2049,2086
2052,2049,2073,2064,2040,2050,2057,2084
2054,2054,2064,2057,2034,2047,2048,2073
2056,2057,2072,2059,2035,2052,2051,2069
2056,2068,2070,2065,2040,2052,2056,2062
2057,2074,2070,2070,2036,2049,2042,2049
2058,2070,2059,2057,2036,2050,2050,2045
2058,2058,2050,2052,2036,2057,2043,2037
2059,2054,2044,2045,2038,2049,2047,2032
2063,2052,2032,2043,2046,2038,2036,2034
2056,2047,2030,2041,2034,2041,2024,2026
2050,2046,2023,2029,2041,2040,2048,2026
2047,2043,2010,2025,2044,2056,2057,2019
2046,2038,2010,2029,2056,2060,2059,2024
2042,2037,2008,2032,2060,2057,2063,2008
2040,2028,2010,2034,2056,2047,2055,2006
2040,2027,2012,2042,2039,2051,2066,2019
2056,2043,2033,2046,2045,2047,2073,2019
2053,2048,2037,2044,2050,2051,2061,2021
2062,2054,2044,2053,2056,2053,2057,2030
2063,2064,2056,2061,2054,2060,2066,2037
2064,2061,2054,2054,2056,2059,2068,2041
2060,2057,2049,2051,2052,2061,2071,2045
2063,2053,2037,2041,2048,2057,2060,2047
2061,2045,2026,2026,2046,2049,2046,2057
2055,2042,2029,2020,2054,2045,2064,2060
2060,2054,2046,2030,2052,2051,2065,2068
2065,2060,2056,2033,2046,2053,2066,2081
2058,2068,2058,2038,2056,2050,2036,2089
2055,2063,2062,2038,2052,2052,2049,2087
2058,2061,2055,2043,2053,2048,2056,2091
2056,2046,2055,2041,2033,2035,2044,2092
2047,2038,2043,2038,2037,2032,2044,2086
2050,2041,2054,2042,2037,2040,2047,2090
2042,2043,2053,2051,2037,2044,2046,2084
2042,2045,2051,2054,2036,2042,2045,2083
2041,2046,2048,2054,2038,2041,2053,2070
2043,2044,2043,2056,2034,2036,2050,2067
2047,2048,2040,2056,2030,2033,2030,2062
2044,2042,2035,2054,2027,2035,2051,2051
2047,2040,2038,2060,2036,2038,2057,2040
2048,2043,2038,2068,2043,2043,2053,2043
2050,2041,2028,2058,2045,2046,2051,2037
2046,2040,2030,2058,2044,2051,2045,2028
2048,2051,2040,2066,2046,2045,2047,2022
2051,2057,2066,2065,2041,2042,2056,2017
2044,2053,2074,2064,2042,2039,2045,2018
2048,2059,2077,2058,2038,2036,2011,2010
2044,2044,2069,2055,2034,2035,2052,2001
2037,2034,2054,2051,2049,2041,2048,2012
2044,2047,2057,2068,2056,2048,2051,2005
2042,2046,2049,2069,2050,2045,2043,2019
2046,2044,2041,2079,2049,2042,2029,2014
2044,2050,2041,2078,2047,2045,2044,2018
2054,2055,2053,2079,2052,2040,2058,2032
2059,2058,2066,2066,2055,2040,2063,2037
2051,2054,2056,2043,2047,2034,2060,2039
2047,2044,2045,2028,2046,2029,2043,2041
2039,2038,2028,2011,2039,2038,2035,2052
2043,2030,2011,1996,2035,2042,2057,2069
2049,2027,2008,1993,2039,2038,2053,2072
2049,2039,2025,2003,2037,2038,2052,2080
2045,2045,2039,2011,2049,2043,2050,2084
2050,2043,2038,2018,2049,2038,2057,2083
2038,2031,2027,2013,2039,2035,2049,2085
2037,2030,2013,2019,2047,2038,2050,2091
2040,2041,2016,2030,2041,2045,2050,2081
2045,2044,2026,2038,2047,2045,2055,2080
2055,2045,2035,2041,2042,2042,2052,2082
2057,2062,2041,2047,2047,2044,2045,2077
2059,2065,2048,2051,2044,2046,2062,2072
2057,2059,2044,2056,2040,2045,2049,2055
2060,2061,2045,2057,2039,2043,2046,2044
2051,2054,2045,2046,2034,2041,2044,2036
2046,2052,2044,2052,2035,2044,2061,2029
2053,2055,2058,2063,2047,2047,2053,2024
2051,2056,2073,2083,2047,2048,2059,2027
2056,2051,2088,2082,2052,2047,2047,2026
2053,2054,2093,2083,2046,2047,2038,2020
2060,2056,2094,2081,2047,2045,2052,2026
2061,2051,2082,2074,2037,2038,2051,2021
2057,2047,2073,2071,2044,2045,2045,2021
2052,2052,2071,2072,2064,2053,2052,2020
2063,2058,2059,2076,2080,2053,2058,2020
2064,2061,2061,2074,2070,2051,2052,2017
2062,2059,2054,2087,2075,2052,2052,2028
2060,2052,2040,2088,2091,2058,2055,2033
2051,2044,2036,2078,2100,2061,2054,2038
2051,2045,2019,2070,2098,2058,2067,2039
2058,2043,2015,2051,2082,2052,2044,2048
2046,2038,2017,2049,2077,2044,2054,2049
2047,2042,2014,2040,2045,2036,2064,2062
2042,2037,2012,2041,2039,2033,2054,2069
2042,2041,2020,2028,2038,2038,2051,2073
2044,2033,2021,2015,2035,2044,2039,2078
2043,2041,2027,2014,2026,2034,2030,2082
2051,2036,2033,2007,1971,2014,2020,2075
2034,2029,2029,2007,1980,2017,2009,2079
2032,2029,2037,2029,1996,2034,2036,2082
2040,2045,2047,2045,2001,2041,2035,2077
2045,2043,2042,2058,2066,2045,2061,2064
2042,2040,2043,2053,2110,2050,2043,2070
2042,2035,2046,2059,2113,2058,2048,2067
2055,2047,2052,2055,2119,2064,2053,2056
2046,2046,2040,2046,2086,2065,2056,2046
2042,2036,2026,2040,2056,2066,2053,2035
2050,2034,2016,2030,2047,2059,2047,2033
2040,2031,2016,2017,2034,2050,2048,2027
2045,2028,2013,1998,1943,2028,2046,2025
2048,2033,2025,2000,1904,2021,2038,2028
2053,2043,2033,2018,1930,2024,2035,2022
2052,2050,2032,2030,1979,2028,2053,2019
2052,2043,2026,2034,2010,2034,2042,2017
2048,2045,2034,2030,2006,2035,2035,2015
2042,2029,2034,2031,2014,2032,2048,2014
2036,2023,2038,2033,2001,2032,2047,2016
2049,2041,2051,2029,1984,2021,2045,2017
2045,2050,2054,2034,2023,2049,2041,2025
2051,2052,2054,2052,2082,2068,2052,2035
2054,2061,2055,2055,2092,2071,2064,2038
2054,2060,2055,2059,2061,2056,2060,2045
2053,2059,2053,2056,2072,2054,2064,2053
2057,2051,2069,2070,2114,2059,2068,2056
2052,2052,2070,2081,2152,2065,2067,2065
2053,2054,2071,2084,2146,2072,2057,2072
2051,2053,2078,2096,2167,2077,2064,2071
2049,2056,2082,2110,2192,2082,2070,2083
2055,2067,2092,2107,2157,2076,2062,2096
2063,2069,2082,2081,2072,2071,2056,2096
2053,2063,2073,2061,2052,2055,2061,2085
2047,2042,2052,2047,2066,2030,2029,2079
2040,2042,2037,2045,1970,2017,2031,2076
2036,2044,2043,2049,1933,2021,2059,2082
2045,2044,2044,2058,1969,2025,2049,2074
2043,2047,2051,2061,2004,2036,2054,2072
2053,2052,2043,2056,2019,2042,2027,2069
2054,2050,2045,2049,2013,2034,2027,2062
2056,2055,2041,2044,2006,2027,2011,2052
2054,2050,2038,2034,2008,2030,2017,2041
2047,2050,2036,2034,2019,2039,2059,2039
2052,2048,2029,2012,1983,2037,2040,2028
2045,2044,2022,1994,1969,2036,2052,2026
2039,2040,2035,2002,1976,2046,2039,2029
2042,2042,2043,2021,2004,2048,2053,2031
2042,2042,2031,2027,2039,2046,2063,2023
2050,2038,2016,2030,2056,2053,2049,2017
2045,2038,2009,2046,2073,2055,2049,2011
2047,2030,2006,2042,2074,2038,2036,2006
2036,2029,1999,2036,2045,2042,2043,2010
2042,2037,2010,2034,2039,2057,2044,2020
2046,2032,2003,2035,2037,2058,2043,2023
2054,2042,2010,2042,2038,2065,2063,2030
2059,2041,2020,2047,2045,2058,2043,2029
2060,2046,2029,2046,2048,2048,2056,2030
2056,2046,2029,2054,2061,2047,2064,2039
2047,2045,2024,2063,2068,2046,2056,2040
2042,2038,2029,2067,2075,2055,2053,2051
2045,2044,2045,2076,2078,2054,2057,2060
2047,2051,2051,2071,2074,2051,2050,2064
2045,2045,2051,2069,2078,2049,2034,2068
2047,2050,2066,2072,2088,2044,2040,2078
2045,2050,2075,2078,2097,2046,2033,2080
2041,2057,2078,2081,2098,2051,2039,2080
2045,2057,2085,2074,2083,2050,2040,2077
2035,2051,2081,2064,2049,2045,2044,2082
2036,2042,2068,2047,1943,2045,2052,2081
2044,2051,2058,2056,1966,2057,2039,2077
2044,2050,2058,2064,2037,2060,2036,2072
2042,2046,2051,2066,2055,2055,2034,2069
2046,2048,2040,2064,2044,2048,2023,2053
2044,2046,2042,2056,2026,2045,2026,2042
2036,2046,2049,2053,2027,2041,2022,2038
2039,2049,2054,2053,2065,2050,2035,2025
2040,2048,2040,2044,2082,2056,2028,2021
2039,2043,2031,2025,2058,2051,2039,2018
2040,2034,2027,2018,2040,2044,2031,2011
2035,2033,2030,2017,2030,2039,2036,2018
2030,2036,2045,2024,2035,2041,2026,2009
2038,2046,2060,2036,2036,2041,2033,2014
2035,2049,2079,2045,2039,2034,2027,2005
2033,2046,2081,2047,2027,2018,2015,1998
2032,2041,2078,2045,1999,1998,2026,1994
2029,2048,2078,2044,1987,2004,2038,2010
2043,2055,2075,2047,1991,2002,2040,2018
2047,2061,2069,2045,1985,1998,2040,2023
2049,2048,2062,2042,1987,2010,2028,2025
2048,2053,2061,2057,2032,2041,2044,2027
2050,2061,2078,2077,2077,2070,2063,2039
2061,2062,2075,2087,2101,2084,2064,2045
2059,2064,2075,2084,2113,2091,2068,2048
2064,2064,2069,2080,2101,2092,2063,2053
2055,2059,2064,2070,2085,2072,2051,2064
2053,2046,2052,2054,2072,2064,2063,2069
2052,2053,2046,2057,2076,2061,2048,2074
2052,2058,2053,2057,2068,2067,2051,2082
2054,2053,2046,2051,2066,2063,2047,2081
2048,2046,2038,2036,2054,2058,2056,2082
2040,2028,2020,2024,2049,2051,2041,2072
2033,2022,2014,2028,2045,2047,2050,2077
2040,2034,2026,2031,2045,2054,2044,2077
2042,2037,2026,2026,2048,2059,2046,2073
2043,2045,2031,2028,2043,2058,2042,2065
2051,2055,2038,2029,2039,2061,2046,2066
2053,2064,2035,2024,2046,2060,2050,2060
2056,2060,2042,2030,2047,2058,2064,2051
2059,2059,2047,2039,2053,2063,2046,2046
2060,2054,2053,2041,2053,2062,2056,2037
2060,2059,2043,2044,2053,2063,2056,2037
2048,2050,2041,2042,2060,2065,2059,2033
2052,2057,2038,2046,2061,2066,2044,2034
2049,2051,2035,2045,2061,2061,2039,2028
2051,2049,2035,2049,2056,2062,2036,2030
2051,2046,2033,2051,2070,2065,2050,2021
2049,2044,2033,2053,2093,2066,2038,2015
2039,2034,2024,2048,2094,2060,2040,2012
2035,2027,2015,2051,2108,2066,2052,2025
2046,2046,2025,2061,2105,2074,2039,2023
2039,2046,2030,2066,2104,2070,2050,2023
2048,2047,2024,2063,2099,2074,2049,2023
2048,2050,2022,2063,2087,2076,2050,2028
2045,2047,2020,2060,2076,2074,2053,2031
2050,2045,2019,2062,2061,2076,2048,2037
2049,2047,2017,2060,2050,2066,2037,2045
2046,2044,2029,2058,2016,2060,2037,2053
2046,2049,2050,2060,2018,2059,2038,2057
2052,2052,2056,2058,2027,2058,2036,2067
2049,2052,2054,2060,2038,2062,2054,2076
2050,2049,2053,2062,2047,2063,2032,2080
2047,2048,2059,2062,2072,2069,2027,2084
2053,2050,2055,2069,2087,2066,2030,2084
2044,2045,2046,2061,2071,2063,2036,2080
2038,2048,2051,2068,2068,2062,2052,2079
2036,2041,2047,2077,2073,2059,2035,2072
2027,2029,2036,2068,2067,2066,2044,2066
2024,2026,2040,2070,2059,2061,2045,2069
2025,2034,2041,2073,2053,2064,2060,2070
2028,2041,2050,2070,2029,2058,2043,2069
2033,2044,2049,2055,1976,2038,2028,2050
2034,2045,2044,2036,1978,2038,2026,2046
2037,2043,2032,2035,2005,2047,2029,2039
2035,2046,2013,2027,2019,2053,2032,2038
2039,2048,2015,2016,2028,2055,2035,2036
2046,2056,2028,2017,2026,2058,2032,2031
2047,2063,2043,2034,2032,2053,2041,2031
2046,2069,2049,2034,2033,2053,2039,2028
2046,2068,2057,2033,2032,2060,2034,2026
2057,2069,2060,2041,2036,2060,2047,2026
2049,2060,2050,2029,2026,2055,2027,2020
2044,2053,2047,2032,2085,2058,2061,2024
2050,2067,2060,2046,2140,2063,2068,2030
2058,2074,2083,2058,2145,2069,2066,2030
2060,2084,2097,2062,2150,2073,2069,2028
2057,2086,2102,2059,2114,2086,2062,2034
2059,2075,2084,2052,2092,2094,2080,2038
2049,2069,2077,2061,2089,2102,2082,2047
2053,2072,2072,2057,2075,2094,2066,2059
2045,2066,2060,2034,1973,2075,2074,2057
2051,2060,2058,2027,1910,2058,2062,2063
2046,2061,2060,2020,1915,2054,2062,2066
2045,2053,2057,2024,1941,2054,2046,2070
2040,2052,2052,2027,1992,2056,2061,2084
2041,2051,2056,2039,2023,2050,2035,2085
2039,2050,2055,2037,2024,2041,2046,2086
2045,2049,2050,2033,2020,2031,2051,2076
2033,2035,2042,2032,2025,2035,2021,2078
2030,2029,2034,2036,2047,2043,2058,2080
2039,2045,2045,2047,2056,2053,2062,2081
2040,2040,2042,2046,2056,2060,2062,2072
2038,2042,2040,2050,2057,2053,2043,2069
2039,2039,2038,2060,2053,2051,2036,2055
2037,2032,2039,2060,2047,2054,2049,2046
2041,2035,2045,2059,2033,2051,2050,2032
2039,2038,2046,2064,2023,2047,2048,2026
2036,2038,2047,2071,2055,2059,2047,2026
2041,2042,2045,2080,2082,2073,2039,2027
2039,2043,2045,2081,2096,2073,2044,2023
2044,2043,2036,2078,2122,2066,2063,2025
2043,2044,2032,2066,2134,2065,2058,2025
2040,2038,2024,2063,2122,2059,2053,2016
2046,2039,2025,2068,2126,2063,2057,2018
2046,2044,2025,2059,2124,2060,2060,2015
2039,2046,2018,2055,2116,2055,2049,2012
2041,2039,2019,2048,2122,2056,2057,2013
2044,2051,2026,2038,2120,2056,2056,2013
2043,2051,2030,2038,2087,2052,2047,2010
2034,2050,2030,2029,1937,2034,2048,2014
2032,2051,2032,2005,1864,2029,2043,2017
2043,2056,2035,2003,1898,2032,2047,2029
2037,2052,2042,2020,1959,2037,2066,2037
2043,2048,2047,2036,2004,2039,2058,2038
2040,2053,2055,2042,2020,2047,2073,2047
2035,2053,2055,2048,2019,2052,2072,2047
2041,2058,2064,2052,2039,2051,2068,2057
2045,2057,2068,2052,2061,2050,2062,2070
2045,2050,2063,2048,2051,2049,2062,2073
2040,2051,2064,2054,2048,2052,2044,2072
2033,2050,2068,2054,2058,2052,2045,2075
2030,2036,2056,2045,2049,2047,2032,2072
2023,2035,2051,2046,2045,2048,2058,2072
2027,2044,2053,2052,2042,2054,2056,2077
2036,2045,2056,2051,2039,2060,2061,2073
2036,2053,2059,2050,2033,2062,2063,2071
2040,2054,2053,2055,2030,2056,2037,2062
2041,2048,2055,2050,2030,2053,2044,2047
2038,2043,2045,2048,2029,2050,2048,2040
2029,2041,2041,2046,2032,2054,2061,2035
2035,2036,2045,2049,2037,2059,2046,2032
2042,2043,2045,2051,2041,2061,2052,2024
2043,2051,2050,2053,2037,2061,2073,2029
2046,2048,2045,2046,2027,2056,2060,2028
2051,2049,2050,2046,2021,2050,2059,2024
2045,2046,2047,2046,2010,2047,2068,2020
2041,2043,2043,2046,2018,2050,2057,2015
2045,2049,2048,2048,2023,2049,2051,2012
2036,2038,2036,2042,2023,2051,2049,2005
2037,2036,2039,2050,2035,2051,2048,2015
2049,2047,2049,2054,2034,2062,2066,2023
2058,2049,2043,2050,2025,2061,2072,2021
2056,2054,2045,2057,2021,2063,2072,2029
2047,2057,2044,2059,2030,2065,2066,2031
2045,2052,2043,2057,2037,2061,2074,2029
2054,2047,2040,2060,2038,2068,2072,2033
2047,2042,2039,2064,2040,2066,2074,2041
2048,2046,2043,2064,2052,2067,2084,2037
2039,2041,2047,2060,2063,2063,2080,2053
2036,2045,2047,2068,2061,2065,2066,2063
2045,2042,2045,2067,2067,2071,2075,2066
2042,2044,2045,2070,2074,2072,2070,2071
2034,2035,2037,2074,2083,2072,2060,2077
2038,2036,2025,2082,2084,2065,2059,2083
2039,2035,2013,2089,2095,2060,2055,2073
2031,2030,2003,2094,2108,2053,2056,2077
2026,2027,2007,2091,2079,2060,2053,2079
2037,2040,2014,2102,2073,2064,2044,2073
2047,2047,2023,2107,2071,2079,2060,2070
2053,2050,2022,2104,2059,2072,2073,2066
2050,2049,2021,2096,2050,2066,2063,2058
2045,2049,2016,2087,2024,2056,2059,2047
2048,2047,2009,2074,2005,2036,2043,2044
2050,2047,2014,2062,1983,2030,2053,2035
2046,2044,2025,2051,1999,2050,2061,2030
2052,2044,2026,2040,2014,2051,2067,2028
2045,2042,2033,2029,2003,2041,2056,2024
2039,2050,2051,2012,1995,2033,2060,2017
2034,2047,2056,1997,2003,2032,2051,2015
2042,2044,2066,2002,2033,2040,2059,2019
2045,2068,2097,2023,2079,2053,2061,2021
2051,2076,2105,2030,2108,2057,2065,2015
2054,2074,2118,2051,2134,2062,2066,2014
2051,2069,2115,2069,2147,2081,2075,2025
2056,2067,2105,2075,2147,2077,2067,2022
2048,2067,2098,2083,2170,2080,2072,2020
2049,2059,2093,2092,2162,2076,2071,2025
2044,2061,2085,2081,2136,2072,2072,2020
2046,2055,2076,2072,2102,2065,2057,2027
2047,2047,2064,2049,1995,2049,2059,2039
2043,2048,2049,2019,1880,2033,2058,2050
2039,2052,2054,2036,1936,2047,2066,2051
2046,2059,2064,2056,1995,2061,2071,2058
2048,2061,2061,2055,2023,2066,2067,2060
2042,2052,2047,2046,2034,2056,2051,2072
2042,2050,2042,2033,2038,2057,2047,2077
2041,2047,2039,2031,2034,2055,2035,2079
2049,2050,2033,2021,2031,2047,2024,2082
2036,2032,2027,2010,2022,2040,2029,2074
2036,2027,2029,2012,2025,2041,2027,2076
2042,2050,2036,2023,2033,2052,2050,2080
2052,2057,2046,2034,2022,2050,2048,2076
2057,2062,2043,2031,2011,2037,2038,2068
2058,2057,2045,2026,1979,2031,2046,2062
2055,2050,2060,2039,1966,2042,2044,2055
2048,2055,2067,2054,1999,2050,2056,2040
2050,2058,2083,2068,2026,2059,2052,2033
2045,2060,2073,2072,2055,2053,2054,2027
2049,2058,2070,2078,2066,2061,2049,2022
2046,2055,2058,2077,2086,2062,2041,2020
2047,2054,2056,2071,2090,2063,2048,2011
2038,2052,2052,2081,2083,2071,2053,2012
2042,2047,2049,2071,2073,2068,2044,2009
2042,2050,2047,2069,2065,2066,2025,2004
2042,2051,2034,2054,2048,2058,2016,2005
2032,2035,2032,2056,2035,2054,2040,2006
2031,2026,2032,2066,2026,2054,2050,2007
2029,2041,2031,2068,2018,2043,2051,2014
2034,2038,2024,2058,2007,2035,2037,2012
2035,2036,2015,2064,2037,2052,2041,2009
2028,2031,2007,2052,2035,2057,2046,2010
2035,2028,1985,2027,2011,2052,2056,2031
2034,2029,1971,2018,2015,2058,2065,2042
2038,2038,1983,2032,2034,2064,2064,2049
2045,2051,1993,2039,2057,2074,2074,2054
2051,2058,1998,2033,2054,2070,2072,2059
2049,2053,2000,2030,2057,2065,2061,2067
2051,2046,1999,2031,2055,2055,2066,2071
2046,2041,1994,2024,2044,2032,2072,2081
2046,2040,1989,2011,2014,2014,2055,2073
2032,2025,1992,1998,1997,2002,2056,2077
2023,2015,1999,1976,1974,1994,2034,2072
2020,2019,2006,1963,1970,2005,2039,2074
2026,2041,2036,1985,2010,2038,2051,2079
2038,2055,2066,2007,2053,2057,2054,2077
2048,2066,2070,2019,2079,2072,2063,2072
2049,2069,2071,2033,2086,2087,2056,2068
2054,2075,2077,2034,2089,2082,2063,2068
2054,2074,2081,2036,2069,2074,2040,2052
2048,2066,2080,2042,2062,2072,2066,2047
2046,2062,2083,2046,2061,2066,2055,2038
2041,2053,2083,2042,2045,2066,2045,2035
2043,2054,2066,2038,2036,2060,2054,2023
2052,2053,2065,2047,2037,2052,2037,2018
2045,2051,2064,2058,2043,2047,2040,2021
2046,2060,2070,2065,2052,2052,2035,2017
2044,2065,2076,2068,2047,2054,2045,2018
2042,2055,2066,2063,2040,2047,2030,2015
2042,2050,2067,2049,2046,2050,2051,2024
2042,2060,2083,2058,2059,2068,2054,2031
2053,2068,2085,2052,2058,2068,2064,2030
2049,2068,2082,2049,2062,2068,2052,2030
2054,2063,2077,2044,2062,2067,2054,2039
2046,2061,2070,2037,2058,2066,2064,2032
2049,2050,2057,2025,2049,2072,2054,2042
2041,2054,2051,2023,2043,2079,2053,2045
2037,2052,2062,2029,2044,2077,2055,2049
2044,2064,2060,2035,2052,2080,2049,2060
2044,2064,2065,2045,2052,2068,2046,2075
2051,2067,2062,2050,2058,2038,2069,2092
2053,2066,2060,2061,2066,2027,2053,2092
2046,2059,2054,2060,2059,2042,2069,2099
2049,2052,2055,2073,2114,2051,2059,2102
2044,2056,2053,2069,2148,2049,2050,2099
2030,2049,2052,2059,2154,2059,2041,2100
2029,2048,2047,2066,2168,2064,2046,2104
2040,2054,2051,2065,2133,2061,2055,2103
2041,2060,2052,2060,2097,2056,2049,2096
2051,2069,2060,2066,2095,2059,2069,2087
2058,2072,2065,2059,2080,2050,2043,2082
2057,2070,2050,2031,1980,2024,2053,2072
2054,2064,2051,2031,1937,2025,2049,2061
2054,2058,2039,2034,1969,2035,2051,2053
2055,2055,2041,2041,2010,2049,2058,2043
2054,2051,2041,2044,2033,2050,2050,2044
2047,2042,2037,2053,2056,2058,2050,2039
2039,2047,2038,2059,2056,2066,2044,2035
2042,2054,2043,2059,2032,2053,2057,2031
2041,2051,2044,2052,2010,2055,2056,2027
2045,2057,2042,2056,1974,2051,2054,2031
2042,2047,2031,2055,1976,2048,2040,2027
2043,2037,2021,2057,1980,2044,2035,2017
2048,2050,2025,2057,1983,2044,2049,2031
2049,2048,2030,2058,2023,2043,2055,2024
2044,2040,2029,2076,2068,2041,2058,2027
2043,2039,2024,2084,2092,2042,2049,2033
2042,2041,2028,2087,2090,2049,2052,2036
2045,2042,2035,2103,2128,2066,2059,2041
2042,2045,2042,2107,2162,2074,2062,2048
2040,2045,2050,2110,2178,2076,2070,2057
2051,2060,2062,2112,2173,2075,2068,2065
2051,2065,2076,2115,2177,2076,2051,2074
2043,2053,2078,2109,2164,2073,2066,2079
2043,2056,2071,2089,2153,2067,2053,2077
2036,2051,2058,2072,2132,2066,2052,2085
2040,2057,2057,2060,2107,2065,2032,2092
2042,2051,2057,2039,1992,2044,2038,2087
2037,2040,2056,2020,1842,2028,2025,2089
2034,2042,2062,2022,1848,2024,2038,2090
2046,2055,2070,2039,1909,2025,2051,2090
2044,2043,2058,2031,1943,2028,2034,2079
2042,2037,2036,2010,1951,2031,2022,2077
2050,2039,2044,2013,1974,2041,2017,2070
2052,2056,2058,2028,2009,2052,2008,2069
2057,2062,2071,2040,2030,2056,2003,2057
2058,2058,2055,2033,2019,2058,2010,2048
2058,2055,2042,2031,2011,2049,2007,2045
2053,2050,2044,2041,2031,2050,2015,2046
2053,2047,2038,2044,2037,2055,2035,2041
2053,2040,2032,2044,2044,2066,2025,2041
2058,2047,2037,2043,2057,2073,2046,2043
2060,2059,2052,2045,2043,2067,2055,2040
2066,2066,2058,2047,2034,2063,2027,2035
2057,2054,2039,2035,2020,2047,2027,2027
2052,2054,2031,2030,1989,2038,2019,2019
2055,2061,2039,2025,1945,2026,2019,2027
2060,2066,2043,2030,1947,2033,2045,2034
2064,2056,2045,2036,2001,2046,2019,2040
2064,2060,2040,2038,1997,2030,2019,2041
2061,2057,2038,2034,1984,2017,2013,2044
2055,2060,2047,2027,1992,2022,2033,2045
2057,2063,2048,2044,2040,2033,2031,2052
2050,2054,2046,2053,2089,2046,2026,2054
2056,2059,2051,2059,2105,2055,2040,2063
2058,2054,2059,2070,2116,2062,2028,2078
2057,2052,2062,2069,2111,2059,2045,2083
2058,2050,2057,2073,2094,2058,2050,2088
2054,2049,2064,2089,2084,2055,2045,2092
2057,2049,2064,2096,2085,2050,2047,2097
2052,2039,2053,2082,2013,2039,2044,2076
2040,2029,2030,2071,1968,2030,2033,2080
2037,2028,2023,2077,1931,2017,2027,2086
2044,2042,2030,2078,1929,2007,2034,2085
2045,2042,2029,2078,1937,2004,2020,2077
2045,2036,2032,2080,1955,2007,2024,2068
2046,2032,2024,2075,1960,2033,2026,2069
2040,2037,2037,2091,1999,2050,2038,2065
2044,2040,2045,2102,2029,2056,2052,2053
2044,2035,2036,2096,2036,2050,2033,2039
2044,2028,2025,2077,2066,2060,2039,2034
2038,2024,2024,2074,2122,2061,2053,2028
2034,2020,2028,2073,2125,2063,2029,2022
2041,2036,2061,2084,2110,2062,2046,2022
2040,2049,2068,2093,2088,2066,2026,2016
2040,2045,2057,2083,2091,2068,2029,2022
2037,2039,2036,2067,2076,2049,2030,2012
2028,2033,2026,2060,2059,2033,2020,2007
2029,2033,2029,2042,2035,2022,2020,2001
2032,2034,2026,2024,2022,2026,2021,2005
2033,2035,2017,1993,2027,2030,2009,2007
2032,2023,2012,1975,2021,2039,2037,2014
2038,2034,2022,1972,2021,2047,2039,2024
2041,2039,2024,1970,2014,2051,2033,2034
2047,2043,2018,1965,1978,2043,2036,2036
2044,2045,2026,1974,1981,2047,2036,2042
2047,2046,2041,2001,1999,2055,2041,2053
2048,2049,2044,2022,2016,2051,2041,2069
2048,2057,2059,2036,2031,2055,2049,2080
2057,2072,2070,2052,2056,2061,2053,2093
2058,2075,2069,2052,2062,2057,2036,2107
2064,2080,2077,2049,2061,2062,2040,2102
2061,2080,2068,2044,2050,2053,2041,2104
2051,2055,2046,2037,2048,2041,2048,2097
2042,2049,2041,2041,2058,2046,2046,2093
2048,2057,2038,2048,2078,2056,2052,2090
2051,2056,2043,2048,2074,2058,2037,2086
2054,2054,2036,2046,2054,2049,2029,2080
2057,2049,2033,2054,2057,2049,2017,2070
2050,2057,2034,2055,2049,2050,2017,2066
2050,2051,2038,2062,2049,2039,2025,2049
2048,2055,2039,2057,2050,2040,2016,2044
2057,2059,2044,2058,2063,2044,2037,2041
2055,2064,2040,2060,2068,2048,2034,2037
2055,2059,2034,2058,2064,2042,2034,2035
2048,2055,2040,2053,2055,2045,2025,2023
2053,2053,2046,2051,2041,2040,2035,2028
2050,2047,2043,2038,1994,2035,2024,2022
2047,2044,2039,2037,2001,2039,2043,2018
2044,2042,2037,2041,2012,2033,2022,2013
2040,2035,2036,2042,2026,2032,2029,2016
2039,2047,2051,2051,2030,2043,2047,2023
2044,2053,2062,2059,2038,2048,2035,2032
2050,2064,2068,2055,2047,2052,2045,2032
2055,2060,2059,2056,2046,2040,2014,2034
2052,2058,2054,2060,2044,2049,2043,2037
2055,2054,2055,2060,2046,2049,2042,2044
2057,2052,2053,2066,2049,2050,2045,2053
2066,2061,2051,2060,2058,2055,2051,2057
2056,2054,2049,2057,2044,2054,2068,2064
2054,2056,2050,2056,2050,2053,2052,2067
2056,2049,2053,2054,2052,2049,2044,2070
2053,2043,2040,2052,2055,2047,2044,2081
2047,2039,2044,2052,2047,2044,2050,2089
2036,2033,2048,2048,2039,2041,2030,2090
2031,2039,2037,2046,2039,2037,2022,2088
2028,2038,2038,2045,2041,2041,2046,2082
2034,2041,2044,2059,2040,2050,2067,2090
2040,2048,2047,2056,2045,2058,2053,2084
2047,2046,2036,2050,2040,2053,2028,2072
2041,2046,2036,2049,2041,2046,2045,2068
2047,2044,2029,2046,2041,2045,2031,2068
2038,2038,2027,2053,2042,2046,2019,2056
2043,2035,2027,2052,2042,2051,2032,2050
2042,2039,2024,2057,2052,2051,2046,2037
2045,2036,2026,2061,2045,2055,2054,2031
2044,2045,2033,2065,2053,2055,2067,2031
2047,2055,2043,2065,2051,2056,2047,2020
2050,2054,2046,2064,2046,2046,2032,2026
2048,2050,2046,2059,2040,2045,2036,2024
2046,2051,2048,2057,2036,2040,2036,2018
2042,2058,2042,2049,2038,2029,2029,2016
2039,2044,2039,2050,2041,2031,2006,2006
2036,2043,2041,2054,2037,2029,2020,2011
2043,2060,2051,2063,2041,2036,2024,2016
2045,2059,2050,2065,2047,2033,2041,2020
2045,2057,2045,2062,2052,2034,2042,2016
2041,2054,2039,2066,2044,2036,2026,2030
2045,2048,2032,2067,2072,2052,2036,2034
2056,2049,2022,2071,2139,2054,2051,2046
2049,2044,2012,2064,2160,2060,2058,2045
2049,2040,1998,2069,2172,2061,2056,2056
2046,2037,1990,2074,2158,2061,2063,2064
2044,2034,1978,2077,2121,2059,2043,2070
2040,2034,1975,2082,2098,2063,2046,2082
2040,2033,1990,2085,2091,2063,2055,2085
2037,2030,1990,2070,2026,2037,2041,2088
2035,2034,1991,2043,1927,2024,2019,2075
2031,2024,1982,2038,1943,2030,2024,2075
2027,2021,2002,2048,1982,2042,2019,2085
2037,2043,2030,2062,2007,2044,2024,2075
2041,2051,2042,2064,2012,2036,2039,2073
2051,2068,2040,2071,2018,2025,2030,2072
2052,2074,2059,2064,1992,2006,2021,2058
2047,2067,2067,2062,1972,1994,2018,2047
2045,2065,2082,2049,1955,1976,2013,2029
2041,2057,2089,2030,1944,1973,2016,2019
2030,2053,2082,2019,1961,1996,2032,2019
2036,2054,2093,2020,2010,2032,2029,2028
2042,2064,2099,2016,2056,2054,2044,2031
2052,2074,2109,2020,2074,2071,2049,2028
2055,2075,2117,2029,2075,2071,2046,2032
2051,2069,2114,2042,2065,2061,2052,2028
2056,2068,2101,2047,2055,2053,2058,2025
2043,2052,2078,2036,2047,2047,2048,2023
2045,2041,2063,2035,2041,2049,2046,2031
2051,2052,2064,2042,2037,2050,2052,2030
2046,2057,2065,2042,2039,2056,2058,2029
2058,2062,2069,2053,2050,2057,2042,2034
2058,2070,2081,2059,2061,2055,2049,2037
2061,2074,2085,2068,2063,2047,2058,2043
2060,2070,2077,2064,2071,2039,2050,2047
2053,2070,2077,2058,2063,2044,2048,2053
2054,2056,2069,2053,2068,2046,2054,2057
2050,2054,2069,2054,2073,2058,2053,2062
2045,2057,2069,2057,2071,2059,2071,2072
2048,2064,2084,2070,2070,2055,2055,2081
2051,2056,2096,2083,2076,2048,2070,2091
2046,2056,2105,2099,2077,2055,2062,2089
2042,2057,2118,2120,2080,2054,2053,2079
2038,2039,2124,2130,2080,2051,2041,2087
2036,2037,2122,2137,2077,2050,2037,2085
2047,2041,2109,2135,2061,2047,2064,2076
2044,2040,2096,2132,2042,2037,2059,2076
2043,2041,2079,2126,2039,2046,2053,2062
2044,2046,2070,2125,2029,2053,2059,2058
2049,2052,2049,2116,2017,2052,2055,2043
2055,2052,2037,2115,2003,2046,2043,2043
2048,2053,2032,2109,2006,2053,2056,2037
2062,2045,2019,2081,1996,2041,2049,2028
2048,2032,1993,2034,1960,2026,2036,2015
2034,2019,1971,1995,1967,2028,2025,2014
2037,2017,1983,1982,2019,2053,2030,2010
2033,2028,1983,1958,2101,2083,2035,2013
2038,2040,1989,1935,2140,2085,2024,2013
2041,2042,2002,1944,2155,2078,2034,2007
2040,2036,2021,1974,2198,2069,2022,2012
2044,2045,2057,2016,2231,2047,2037,2036
2063,2073,2069,2030,2211,2036,2043,2037
2070,2060,2064,2016,2165,2033,2042,2036
2062,2063,2059,1995,2103,2028,2053,2041
2061,2061,2063,2000,2024,2028,2045,2038
2066,2061,2064,1986,1881,2026,2056,2048
2068,2060,2061,1989,1860,2029,2063,2051
2063,2055,2053,1999,1895,2024,2060,2065
2059,2043,2044,2017,1938,2023,2050,2062
2054,2048,2044,2031,1982,2032,2066,2068
2056,2050,2052,2036,2026,2045,2058,2075
2050,2054,2059,2038,2030,2040,2059,2085
2053,2053,2056,2028,2012,2035,2049,2083
2055,2037,2051,2016,2005,2024,2044,2087
2047,2037,2041,2014,2029,2023,2037,2084
2035,2024,2040,2014,2031,2023,2034,2087
2033,2033,2042,2023,2033,2034,2045,2091
2042,2044,2052,2030,2037,2033,2048,2085
2040,2048,2055,2032,2038,2028,2058,2074
2039,2047,2058,2047,2067,2041,2060,2073
2049,2050,2061,2057,2099,2052,2043,2063
2047,2043,2055,2069,2121,2053,2031,2055
2051,2043,2049,2071,2124,2058,2060,2045
2061,2045,2044,2068,2135,2058,2047,2036
2054,2038,2050,2069,2141,2062,2053,2035
2049,2046,2046,2067,2130,2053,2057,2032
2051,2049,2052,2072,2131,2050,2062,2035
2056,2052,2061,2073,2120,2051,2047,2026
2055,2050,2064,2069,2111,2050,2059,2029
2056,2059,2057,2066,2080,2048,2060,2019
2048,2053,2048,2049,2008,2033,2049,2011
2040,2041,2037,2027,1918,2023,2034,2013
2038,2038,2038,2041,1948,2033,2058,2016
2047,2042,2035,2043,1960,2027,2051,2016
2039,2038,2038,2027,1920,2025,2041,2016
2041,2039,2047,2027,1963,2039,2051,2017
2041,2042,2047,2028,1952,2058,2044,2023
2034,2041,2041,2018,1937,2037,2050,2029
2040,2039,2047,2019,1986,2016,2057,2040
2049,2043,2060,2035,2085,2017,2067,2047
2053,2043,2070,2045,2129,2029,2064,2062
2049,2049,2073,2042,2126,2043,2063,2071
2052,2043,2076,2045,2132,2069,2082,2087
2051,2044,2078,2049,2134,2074,2080,2091
2047,2046,2073,2054,2132,2062,2066,2091
2048,2042,2071,2052,2117,2052,2064,2086
2049,2040,2060,2041,2098,2036,2059,2090
2048,2033,2052,2036,2090,2038,2049,2090
2044,2044,2061,2036,2054,2032,2053,2086
2044,2043,2062,2033,2035,2030,2055,2083
2042,2040,2067,2040,2055,2030,2037,2073
2047,2047,2060,2056,2065,2035,2065,2073
2043,2049,2063,2054,2071,2036,2059,2065
2045,2051,2066,2040,2009,2028,2059,2064
2046,2049,2058,2033,1990,2036,2067,2049
2045,2042,2054,2043,2020,2043,2063,2041
2043,2041,2048,2043,2050,2048,2055,2040
2050,2039,2044,2044,2069,2046,2064,2037
2057,2039,2043,2042,2062,2043,2053,2035
2047,2044,2046,2038,2059,2047,2057,2028
2049,2048,2044,2040,2052,2049,2053,2018
2048,2044,2043,2036,2017,2047,2045,2013
2049,2034,2034,2029,2039,2047,2046,2013
2040,2022,2029,2037,2107,2049,2050,2011
2047,2034,2042,2061,2152,2066,2059,2024
2054,2038,2057,2076,2174,2067,2058,2024
2049,2035,2074,2093,2150,2065,2055,2020
2047,2041,2097,2097,2105,2065,2064,2022
2052,2045,2104,2098,2067,2084,2073,2021
2057,2050,2104,2097,2048,2081,2056,2037
2051,2049,2094,2073,1971,2062,2058,2035
2051,2049,2085,2062,1884,2059,2058,2044
2052,2052,2087,2070,1925,2050,2049,2054
2054,2056,2096,2078,1986,2023,2052,2069
2057,2063,2102,2085,2031,2023,2056,2082
2055,2057,2096,2081,2019,2021,2046,2085
2062,2054,2086,2072,2022,2010,2052,2094
2057,2050,2068,2069,2048,2014,2051,2089
2050,2036,2042,2057,2081,2020,2046,2090
2039,2028,2033,2052,2099,2035,2045,2088
2046,2038,2029,2043,2104,2045,2044,2080
2048,2035,2024,2029,2092,2049,2056,2082
2050,2035,2016,2022,2093,2052,2066,2076
2053,2042,2006,2021,2096,2047,2062,2063
2052,2039,2011,2027,2093,2050,2061,2055
2045,2036,2002,2029,2092,2046,2056,2055
2043,2030,2004,2030,2090,2045,2063,2050
2050,2030,2008,2036,2077,2050,2062,2042
2044,2031,2000,2024,2049,2043,2060,2028
2044,2034,2003,2000,1976,2030,2053,2025
2043,2035,2030,2003,1979,2027,2029,2023
2040,2037,2045,2009,2012,2033,2050,2015
2043,2044,2062,2010,2019,2029,2042,2022
2048,2042,2058,2011,2004,2012,2055,2018
2043,2032,2040,2005,1995,1997,2018,2012
2042,2024,2030,2012,1990,1997,2032,2014
2049,2041,2047,2023,1989,1988,2043,2019
2044,2043,2045,2012,1972,1985,2047,2019
2046,2047,2049,2026,1991,1997,2039,2023
2054,2053,2060,2048,2009,1998,2045,2032
2045,2043,2062,2057,2004,2004,2052,2025
2041,2041,2069,2079,2050,2033,2042,2035
2052,2050,2097,2106,2103,2062,2054,2040
2052,2048,2092,2111,2132,2085,2060,2049
2047,2049,2073,2110,2138,2104,2048,2058
2052,2046,2063,2108,2119,2091,2067,2067
2051,2041,2046,2093,2103,2074,2063,2073
2039,2037,2026,2082,2085,2056,2063,2077
2039,2029,2012,2075,2070,2041,2029,2084
2035,2029,2003,2063,2064,2042,2034,2080
2029,2020,1993,2047,2056,2036,2032,2070
2024,2019,2004,2036,2050,2032,2039,2071
2035,2038,2026,2032,2045,2041,2050,2074
2029,2039,2026,2016,2038,2033,2053,2075
2030,2036,2026,1983,2025,2027,2038,2057
2025,2022,2021,1951,2005,2024,2028,2054
2023,2026,2034,1946,2010,2027,2043,2048
2030,2038,2052,1966,2021,2029,2046,2048
2042,2052,2084,2004,2040,2042,2045,2051
2054,2068,2109,2034,2053,2055,2065,2054
2064,2082,2124,2050,2070,2061,2071,2052
2061,2078,2121,2054,2075,2058,2049,2040
2058,2067,2113,2045,2074,2057,2039,2026
2053,2062,2106,2043,2067,2056,2034,2029
2052,2062,2095,2046,2064,2050,2043,2022
2046,2058,2082,2050,2052,2047,2022,2024
2041,2048,2071,2044,2044,2032,2041,2016
2048,2042,2073,2046,2040,2028,2034,2021
2052,2056,2077,2057,2047,2034,2047,2027
2061,2061,2078,2068,2062,2033,2049,2028
2066,2061,2081,2072,2070,2046,2064,2030
2061,2063,2081,2064,2069,2059,2062,2028
2058,2058,2084,2062,2065,2058,2057,2035
2061,2053,2080,2056,2073,2059,2058,2045
2057,2046,2087,2060,2064,2056,2051,2048
2059,2051,2088,2075,2064,2057,2066,2050
2054,2048,2097,2082,2062,2050,2062,2063
2043,2042,2089,2079,2062,2044,2065,2073
2040,2038,2088,2083,2065,2044,2040,2082
2043,2054,2087,2088,2065,2046,2035,2076
2046,2057,2086,2092,2073,2049,2043,2083
2046,2054,2086,2096,2062,2053,2047,2082
2035,2042,2074,2086,2051,2044,2041,2082
2026,2036,2056,2077,2045,2039,2030,2084
2032,2043,2045,2062,2042,2040,2024,2085
2037,2043,2029,2047,2039,2043,2042,2083
2039,2039,2034,2032,2033,2038,2053,2069
2034,2037,2029,2030,2024,2039,2044,2065
2037,2040,2035,2029,2036,2047,2037,2062
2037,2049,2039,2020,2027,2053,2051,2057
2047,2050,2042,2008,2033,2060,2050,2060
2047,2056,2032,2003,2038,2063,2041,2052
2051,2050,2029,2010,2031,2062,2038,2048
2049,2052,2043,2030,2025,2064,2048,2039
2046,2054,2045,2041,2020,2060,2054,2028
2048,2053,2047,2040,2008,2049,2049,2025
2037,2045,2051,2057,2014,2057,2046,2022
2041,2042,2054,2055,2019,2056,2062,2020
2038,2042,2056,2045,2020,2036,2037,2007
2031,2034,2051,2034,2019,2028,2029,2001
2029,2038,2050,2029,2015,2034,2022,2006
2035,2045,2052,2039,2038,2040,2018,2013
2031,2043,2049,2048,2073,2052,2031,2017
2036,2044,2050,2049,2097,2060,2052,2023
2038,2044,2053,2055,2105,2069,2027,2034
2041,2047,2054,2057,2116,2067,2029,2028
2043,2046,2055,2058,2136,2060,2042,2035
2042,2053,2060,2059,2157,2056,2035,2039
2041,2045,2051,2054,2195,2049,2035,2043
2031,2032,2038,2045,2189,2057,2047,2056
2030,2029,2039,2040,2166,2056,2059,2060
2031,2038,2046,2049,2147,2060,2063,2072
2036,2043,2059,2056,2129,2065,2061,2086
2035,2058,2065,2051,2059,2067,2062,2091
2045,2062,2057,2043,1887,2051,2034,2094
2042,2050,2058,2043,1848,2040,2017,2086
2042,2063,2059,2047,1879,2037,2046,2087
2052,2064,2062,2047,1920,2033,2032,2082
2047,2061,2056,2036,1932,2035,2047,2071
2043,2056,2045,2018,1925,2020,2057,2063
2044,2055,2046,2010,1933,2014,2056,2053
2039,2047,2037,2001,1956,2013,2043,2047
2037,2041,2030,2016,2059,2039,2059,2042
2042,2043,2025,2042,2116,2053,2065,2042
2046,2037,2027,2044,2098,2048,2048,2032
2044,2042,2039,2032,2046,2036,2062,2028
2047,2048,2056,2039,1994,2040,2045,2025
2053,2058,2064,2039,1962,2044,2025,2025
2052,2052,2069,2052,1975,2055,2035,2014
2042,2045,2066,2053,2018,2075,2036,2013
2037,2039,2050,2056,2000,2074,2032,2005
2036,2036,2048,2047,1961,2062,2018,2014
2035,2041,2058,2049,1975,2051,2051,2027
2039,2043,2059,2056,2018,2008,2050,2029
2050,2052,2072,2072,2129,2012,2037,2039
2049,2056,2070,2085,2202,2046,2067,2029
2051,2051,2064,2057,2165,2086,2046,2023
2040,2047,2057,2036,2120,2085,2044,2033
2046,2049,2052,2028,2111,2110,2059,2038
2046,2053,2052,2025,2106,2112,2043,2054
2050,2063,2054,2028,2082,2069,2065,2072
2054,2068,2056,2043,2107,1988,2076,2095
2069,2058,2049,2036,2040,1976,2080,2096
2061,2056,2027,2022,1949,2001,2075,2093
2053,2043,2033,2026,1941,2017,2069,2094
2047,2040,2034,2040,1994,2044,2071,2084
2038,2025,2026,2040,2052,2047,2069,2083
2025,2021,2033,2050,2106,2065,2066,2080
2039,2032,2052,2063,2130,2072,2069,2072
2038,2038,2059,2059,2115,2066,2065,2077
2036,2039,2054,2061,2104,2065,2062,2073
2040,2040,2044,2065,2100,2065,2065,2070
2041,2041,2032,2073,2108,2061,2061,2058
2034,2031,2050,2085,2094,2062,2059,2050
2043,2031,2068,2090,2089,2058,2060,2038
2043,2032,2075,2084,2035,2046,2055,2021
2037,2026,2069,2068,1972,2036,2058,2017
2032,2035,2078,2075,1992,2038,2038,2013
2031,2038,2083,2081,2010,2044,2027,2015
2038,2039,2077,2079,2012,2044,2046,2012
2034,2033,2061,2068,2027,2047,2059,2013
2037,2032,2052,2067,2031,2046,2037,2010
2035,2030,2036,2053,2024,2034,2030,2015
2035,2033,2041,2054,2031,2043,2037,2004
2042,2043,2062,2049,2026,2061,2056,2017
2040,2053,2058,2035,2027,2063,2049,2010
2040,2060,2060,2020,2029,2064,2028,2008
2036,2057,2052,2013,2024,2043,2035,2014
2037,2054,2044,1992,2034,2016,2029,2033
2046,2060,2033,1995,2066,2020,2039,2055
2059,2060,2023,1996,2096,2045,2051,2072
2066,2060,2029,2014,2108,2063,2060,2079
2060,2066,2038,2030,2105,2068,2053,2077
2058,2063,2036,2033,2065,2058,2065,2077
2053,2065,2044,2038,2058,2060,2071,2080
2050,2067,2048,2039,2060,2061,2072,2090
2052,2076,2060,2039,2061,2063,2076,2094
2058,2078,2062,2047,2062,2061,2063,2099
2050,2069,2045,2038,2049,2051,2047,2091
2043,2051,2033,2026,2050,2041,2060,2095
2051,2052,2044,2031,2028,2046,2075,2093
2050,2047,2035,2032,2029,2045,2060,2085
2051,2047,2036,2028,2028,2046,2067,2077
2050,2051,2030,2030,2026,2043,2057,2064
2046,2050,2037,2027,2034,2046,2056,2060
2041,2051,2036,2037,2036,2049,2060,2047
2050,2047,2037,2039,2039,2049,2061,2040
2047,2041,2028,2038,2036,2048,2054,2040
2045,2039,2025,2036,2042,2054,2045,2031
2044,2040,2025,2039,2052,2056,2062,2024
2042,2043,2024,2045,2049,2053,2058,2022
2041,2044,2027,2052,2051,2054,2052,2020
2043,2045,2025,2050,2047,2048,2043,2008
2049,2034,2030,2045,2040,2051,2029,2014
2039,2026,2025,2035,2040,2041,2027,2008
2036,2030,2039,2029,2033,2045,2031,2013
2045,2052,2067,2043,2043,2056,2044,2017
2053,2069,2099,2054,2047,2048,2054,2020
2054,2076,2106,2065,2052,2052,2047,2022
2060,2076,2107,2061,2052,2051,2053,2031
2056,2072,2097,2062,2062,2058,2057,2037
2061,2070,2087,2065,2068,2064,2064,2050
2066,2078,2075,2060,2068,2062,2058,2056
2058,2066,2073,2065,2066,2059,2061,2059
2061,2062,2073,2065,2068,2061,2053,2065
2058,2059,2060,2059,2067,2061,2039,2067
2056,2056,2066,2060,2067,2062,2064,2075
2053,2059,2069,2065,2066,2064,2061,2085
2056,2057,2066,2062,2066,2060,2064,2082
2054,2056,2061,2054,2057,2061,2046,2078
2044,2045,2047,2045,2044,2054,2042,2072
2036,2041,2045,2044,2047,2051,2033,2082
2047,2054,2049,2052,2044,2053,2038,2082
2045,2053,2040,2053,2045,2053,2044,2078
2051,2052,2035,2054,2049,2061,2061,2078
2050,2054,2041,2054,2045,2065,2060,2063
2051,2053,2039,2053,2046,2064,2070,2054
2048,2051,2034,2052,2044,2061,2039,2041
2050,2041,2029,2051,2047,2060,2058,2036
2045,2037,2018,2042,2043,2053,2057,2035
2049,2038,2016,2040,2026,2040,2056,2031
2052,2036,2014,2034,2002,2027,2050,2029
2049,2036,2011,2034,1981,2010,2049,2027
2048,2036,2012,2032,1981,2005,2048,2023
2049,2031,2012,2033,1991,2014,2048,2019
2052,2046,2022,2056,2037,2042,2032,2008
2051,2039,2025,2060,2076,2051,2032,2008
2049,2034,2025,2058,2093,2073,2043,2013
2048,2040,2040,2062,2094,2087,2041,2012
2043,2036,2044,2048,2073,2073,2058,2011
2039,2041,2056,2048,2053,2049,2042,2018
2039,2048,2059,2054,2036,2044,2049,2023
2040,2039,2060,2058,2038,2046,2040,2037
2047,2042,2049,2056,2038,2045,2033,2038
2048,2040,2051,2046,2045,2062,2029,2047
2054,2057,2072,2070,2084,2081,2063,2047
2062,2072,2092,2094,2109,2091,2063,2063
2067,2084,2106,2103,2108,2087,2042,2067
2071,2084,2103,2097,2101,2075,2057,2084
2067,2070,2088,2081,2076,2060,2051,2075
2054,2056,2070,2072,2057,2052,2055,2078
2046,2051,2060,2064,2040,2041,2028,2077
2033,2026,2048,2040,2022,2023,1997,2078
2029,2027,2055,2042,2021,2036,2029,2084
2048,2042,2063,2047,2035,2049,2052,2088
2050,2050,2069,2053,2044,2047,2041,2076
2042,2054,2067,2049,2033,2046,2026,2073
2048,2049,2067,2050,2026,2044,2022,2070
2057,2048,2065,2053,2027,2052,2045,2067
2058,2052,2066,2054,2038,2062,2036,2047
2052,2051,2056,2052,2094,2063,2055,2036
2052,2044,2049,2050,2114,2048,2047,2040
2050,2045,2045,2046,2147,2049,2044,2033
2056,2046,2050,2060,2182,2054,2016,2036
2055,2054,2059,2066,2219,2066,2053,2033
2060,2056,2058,2071,2218,2063,2035,2030
2061,2052,2056,2076,2200,2069,2055,2023
2059,2053,2049,2072,2177,2067,2035,2018
2051,2038,2036,2063,2116,2044,2018,2009
2042,2028,2033,2036,1908,2021,2025,2009
2053,2039,2034,2015,1819,2036,2056,2011
2057,2040,2036,2020,1865,2046,2040,2018
2051,2045,2043,2026,1923,2051,2035,2023
2055,2045,2043,2040,1969,2047,2037,2034
2056,2046,2052,2044,1980,2046,2046,2035
2058,2048,2052,2045,1981,2042,2037,2042
2062,2055,2052,2037,1978,2044,2049,2045
2052,2049,2047,2040,1980,2044,2041,2054
2055,2047,2043,2035,1994,2048,2053,2057
2054,2045,2042,2040,2009,2048,2047,2066
2055,2045,2042,2045,2028,2054,2032,2073
2056,2046,2045,2040,2043,2051,2026,2074
2053,2044,2048,2043,2060,2048,2015,2083
2056,2048,2050,2050,2069,2046,2033,2091
2052,2039,2042,2049,2068,2042,2031,2090
2041,2034,2044,2053,2050,2036,2044,2085
2046,2039,2054,2062,2046,2042,2048,2085
2051,2046,2056,2072,2100,2047,2043,2083
2052,2048,2055,2077,2127,2052,2032,2080
2061,2052,2057,2074,2135,2063,2028,2073
2066,2051,2057,2074,2114,2068,2042,2068
2059,2052,2049,2071,2073,2070,2045,2058
2050,2042,2048,2069,2086,2076,2042,2047
2053,2043,2045,2077,2089,2075,2049,2041
2051,2043,2046,2056,2039,2054,2058,2030
2053,2040,2040,2045,1950,2051,2039,2025
2049,2041,2043,2055,1960,2056,2027,2026
2046,2042,2044,2064,1968,2046,2023,2019
2055,2038,2039,2054,1987,2036,2039,2021
2047,2039,2038,2056,2038,2053,2042,2014
2043,2030,2034,2057,2052,2048,2019,2011
2037,2027,2034,2049,2048,2051,2030,2010
2040,2032,2049,2064,2050,2056,2040,2021
2043,2036,2056,2075,2057,2055,2033,2018
2044,2036,2073,2092,2060,2044,2056,2029
2044,2036,2083,2109,2051,2045,2052,2032
2052,2037,2086,2113,2052,2056,2052,2029
2046,2039,2082,2122,2059,2065,2036,2034
2039,2036,2078,2126,2083,2075,2047,2044
2041,2042,2068,2135,2107,2081,2048,2054
2055,2041,2060,2136,2072,2071,2043,2064
2053,2040,2040,2119,2028,2050,2054,2076
2050,2033,2026,2121,2073,2048,2068,2086
2050,2037,2018,2126,2109,2058,2045,2091
2056,2041,2006,2109,2088,2058,2043,2097
2056,2031,1985,2068,2056,2046,2035,2091
2040,2018,1941,2002,1989,2015,2031,2088
2023,1994,1913,1924,1869,1990,2007,2078
2021,2009,1948,1899,1815,1981,2008,2073
2033,2034,1991,1911,1902,2027,2034,2079
2044,2053,2026,1927,1990,2060,2013,2077
2054,2066,2050,1935,1995,2061,2016,2081
2067,2065,2061,1933,1990,2056,2039,2075
2070,2070,2067,1961,2029,2038,2046,2066
2069,2067,2078,1998,2107,2018,2061,2063
2074,2059,2073,2016,2142,2029,2038,2056
2062,2059,2073,2017,2137,2036,2046,2044
2052,2047,2068,2017,2117,2044,2045,2036
2054,2046,2063,2020,2128,2061,2041,2036
2055,2049,2056,2032,2146,2060,2056,2032
2054,2046,2055,2038,2143,2065,2041,2031
2057,2053,2056,2033,2101,2073,2046,2030
2056,2050,2059,2020,2056,2068,2028,2020
2053,2048,2047,2013,1980,2046,2004,2022
2053,2045,2055,2009,1937,2048,2012,2026
2063,2056,2056,2015,1965,2022,2018,2026
2064,2054,2061,2024,1984,2020,2018,2025
2064,2055,2060,2033,2002,2033,2018,2033
2062,2057,2054,2025,2013,2016,2017,2029
2064,2056,2059,2036,2065,1997,2027,2042
2062,2056,2060,2060,2137,2009,2017,2056
2066,2056,2063,2065,2148,2028,2024,2058
2061,2058,2058,2061,2139,2043,2020,2066
2061,2055,2060,2060,2109,2041,2008,2067
2056,2052,2055,2055,2085,2034,2025,2074
2054,2041,2052,2051,2074,2023,2026,2082
2049,2045,2047,2050,2057,2031,2003,2088
2051,2044,2052,2053,2029,2042,2017,2095
2046,2044,2048,2045,1988,2022,2029,2086
2039,2028,2033,2030,1941,2005,2039,2078
2033,2030,2033,2018,1927,1992,2022,2072
2039,2041,2029,2024,1941,1969,2022,2072
2042,2037,2033,2030,2008,1981,2047,2059
2042,2038,2030,2050,2086,2034,2056,2050
2046,2034,2038,2064,2144,2076,2046,2056
2040,2035,2033,2067,2152,2099,2073,2039
2034,2031,2032,2062,2115,2093,2057,2033
2038,2030,2033,2058,2078,2072,2045,2032
2039,2035,2027,2043,2046,2054,2042,2028
2035,2033,2023,2037,2046,2044,2057,2023
2033,2025,2013,2029,2053,2056,2054,2016
2028,2021,2012,2039,2073,2083,2061,2007
2038,2031,2017,2052,2097,2098,2053,2006
2038,2025,2017,2056,2101,2103,2050,2008
2036,2026,2018,2058,2107,2089,2053,1995
2039,2013,2016,2048,2092,2072,2037,1993
2033,2025,2029,2057,2106,2058,2023,2002
2038,2041,2049,2074,2125,2068,2048,2012
2049,2042,2044,2078,2128,2075,2047,2020
2049,2041,2050,2056,2062,2086,2046,2026
2053,2045,2042,2038,2031,2105,2046,2023
2050,2044,2045,2041,2028,2109,2038,2031
2052,2044,2044,2039,2041,2098,2029,2025
2051,2043,2038,2041,2027,2074,2016,2032
2044,2042,2048,2051,2046,2020,2028,2045
2052,2044,2055,2066,2077,1988,2045,2058
2059,2046,2057,2063,2076,2006,2028,2070
2052,2057,2058,2057,2106,2020,2042,2078
2066,2059,2061,2052,2137,2041,2033,2090
2075,2073,2064,2064,2156,2056,2033,2098
2082,2082,2068,2075,2162,2058,2021,2102
2069,2075,2064,2077,2164,2060,2031,2110
2080,2065,2067,2075,2150,2061,2055,2105
2078,2071,2074,2077,2141,2060,2060,2096
2073,2065,2069,2076,2118,2065,2062,2089
2064,2069,2073,2071,2061,2072,2062,2094
2064,2066,2071,2075,1980,2076,2053,2086
2061,2062,2070,2069,1993,2053,2049,2069
2063,2061,2066,2065,2021,2041,2040,2055
2064,2064,2067,2071,2036,2060,2055,2052
2063,2067,2078,2076,2017,2070,2062,2058
2067,2069,2072,2082,2020,2080,2057,2050
2068,2070,2074,2087,2023,2082,2036,2047
2075,2067,2064,2060,1927,2040,2049,2048
2071,2065,2064,2027,1783,1990,2016,2040
2071,2067,2065,2023,1804,1962,2029,2034
2074,2054,2059,2028,1862,1970,2027,2018
2062,2043,2041,2037,1971,1998,2018,2020
2053,2038,2047,2056,2108,2017,2047,2019
2055,2045,2048,2061,2169,2042,2072,2014
2052,2043,2044,2064,2163,2050,2060,2020
2054,2046,2047,2058,2132,2047,2058,2022
2061,2052,2051,2048,2092,2044,2051,2040
2063,2047,2049,2038,2047,2013,2036,2045
2061,2053,2049,2036,2041,2014,2049,2041
2059,2054,2042,2034,2039,2019,2060,2040
2059,2048,2042,2030,2039,2028,2050,2047
2068,2052,2051,2042,2064,2040,2049,2056
2056,2053,2047,2053,2068,2048,2050,2058
2056,2051,2050,2051,2078,2049,2079,2070
2048,2046,2051,2053,2075,2040,2080,2071
2046,2044,2046,2057,2089,2037,2062,2081
2046,2043,2044,2064,2092,2042,2035,2073
2039,2025,2037,2053,2085,2021,2014,2078
2041,2034,2034,2050,2082,2022,2017,2080
2052,2052,2047,2060,2097,2038,2019,2088
2046,2053,2047,2062,2107,2050,2021,2085
2047,2053,2049,2060,2105,2076,2031,2083
2052,2057,2044,2057,2097,2084,2047,2072
2051,2043,2034,2034,2023,2045,2021,2048
2046,2037,2028,1991,1867,2004,2015,2039
2038,2035,2033,2004,1907,2004,2017,2041
2044,2041,2045,2030,1999,2006,2024,2039
2046,2045,2043,2039,2043,1976,2033,2036
2043,2044,2048,2035,2059,1947,2013,2020
2043,2046,2043,2031,2084,1973,2010,2012
2057,2063,2060,2070,2133,2002,2024,2015
2072,2074,2072,2086,2122,2021,2021,2044
2079,2075,2071,2077,2078,2037,2035,2060
2072,2058,2056,2066,2087,2062,2056,2069
2081,2058,2056,2064,2082,2048,2074,2074
2090,2071,2056,2058,1971,2036,2059,2072
2087,2072,2047,2054,1974,2032,2072,2078
2095,2069,2058,2058,2013,2023,2083,2080
2100,2068,2053,2049,2029,2021,2074,2089
2091,2071,2052,2056,2080,2040,2072,2085
2089,2066,2050,2062,2152,2052,2028,2083
2100,2072,2054,2059,2191,2058,2017,2077
2105,2078,2062,2067,2174,2065,2049,2071
2116,2088,2066,2071,2138,2061,2010,2089
2121,2087,2068,2075,2117,2072,1992,2112
2122,2083,2067,2070,2088,2079,1980,2108
2100,2076,2061,2066,2065,2103,1967,2106
2087,2070,2055,2059,2041,2104,2036,2103
2070,2056,2047,2036,2021,2054,2118,2103
2060,2043,2031,2020,2007,2013,2134,2092
2037,2031,2024,2011,2001,1969,2109,2103
2049,2043,2035,2027,2009,1961,2108,2118
2040,2038,2035,2041,2021,1953,2114,2120
2026,2039,2041,2044,2026,1936,2076,2126
2028,2042,2044,2042,2009,1945,2058,2122
2034,2049,2051,2050,2003,1981,2030,2094
2033,2046,2048,2052,2022,2013,1985,2048
2026,2045,2040,2055,2039,2032,1922,2023
2018,2041,2041,2050,2042,2038,1912,1996
2025,2039,2037,2046,2027,2037,1916,1986
2021,2046,2037,2047,2032,2038,1938,1982
2018,2043,2037,2050,2034,2042,1988,1989
2014,2039,2035,2041,2017,2047,2044,2001
2016,2034,2039,2033,2015,2064,2068,2015
2024,2037,2037,2037,2029,2096,2079,2033
2035,2042,2035,2042,2038,2113,2107,2048
2046,2050,2037,2045,2044,2100,2084,2048
2074,2063,2040,2051,2044,2089,2097,2063
2079,2053,2036,2047,2057,2092,2126,2032
2061,2043,2032,2051,2116,2104,2135,2030
2055,2032,2028,2051,2172,2119,2123,2050
2046,2032,2023,2044,2160,2116,2112,2086
2042,2039,2027,2041,2151,2118,2107,2099
2040,2042,2035,2053,2176,2117,2091,2080
2030,2042,2038,2060,2175,2092,2077,2057
2028,2041,2038,2070,2172,2080,2082,2064
2035,2040,2046,2069,2154,2054,2066,2092
2038,2040,2043,2060,2082,2021,2054,2079
2035,2037,2049,2046,1909,2033,2062,2061
2038,2040,2047,2032,1904,2049,2091,2078
2035,2046,2051,2036,1994,2042,2097,2085
2029,2033,2034,2029,2057,2054,2095,2085
2025,2029,2040,2049,2150,2114,2089,2089
2042,2046,2053,2083,2165,2103,2068,2086
2050,2058,2054,2066,2100,2056,2056,2074
2055,2064,2051,2052,2049,2002,2044,2062
2060,2066,2054,2041,2019,2002,2044,2044
2060,2073,2068,2043,1933,1986,2018,2024
2060,2084,2066,2041,1902,1991,2034,2015
2065,2087,2066,2038,1922,2012,2047,2006
2060,2082,2063,2039,1944,2033,2029,1985
2062,2081,2067,2044,1990,2076,2070,1994
2060,2081,2070,2061,2029,2109,2059,2003
2057,2080,2066,2064,2044,2106,2049,1985
2049,2069,2060,2056,2046,2080,2019,1963
2038,2064,2056,2050,2034,2060,2016,1960
2029,2060,2048,2045,2036,2070,2020,1967
2027,2050,2041,2038,2072,2070,2015,1970
2020,2038,2038,2036,2072,2048,2020,1970
2021,2040,2042,2043,2025,2017,2040,1987
2024,2040,2045,2041,1983,1993,2032,1992
2021,2038,2046,2042,1978,2006,2031,1984
2023,2043,2048,2049,2008,2033,2030,1990
2038,2050,2051,2049,2018,2032,2026,1988
2042,2048,2053,2043,2006,2047,2030,1993
2029,2050,2052,2034,1999,2044,2033,1994
2029,2047,2045,2033,1993,2055,2027,1989
2018,2050,2042,2038,2003,2044,2005,1994
2018,2051,2044,2036,2020,2011,2005,2006
2022,2053,2051,2048,2075,2012,2035,2029
2033,2054,2056,2065,2132,2046,2075,2050
2042,2055,2059,2069,2134,2065,2078,2054
2033,2050,2057,2064,2123,2073,2070,2053
2033,2046,2052,2054,2100,2066,2047,2048
2025,2042,2044,2051,2090,2073,2054,2044
2026,2049,2045,2057,2088,2084,2067,2054
2032,2053,2046,2057,2089,2087,2040,2056
2031,2052,2048,2049,2085,2082,2052,2052
2031,2050,2044,2049,2073,2073,2055,2043
2033,2055,2044,2050,2065,2072,2058,2026
2034,2055,2048,2045,2037,2062,2021,2018
2032,2055,2042,2048,2017,2046,2014,2013
2036,2053,2047,2053,2026,2056,2010,1999
2037,2061,2049,2069,2068,2076,2042,1995
2038,2058,2051,2076,2106,2087,2027,1990
2039,2059,2046,2073,2116,2077,2015,1985
2037,2055,2042,2072,2104,2057,2021,1984
2035,2048,2034,2059,2070,2013,1983,1976
2023,2046,2036,2056,2051,1974,1989,1968
2020,2035,2028,2046,2024,1956,1975,1969
2020,2025,2022,2034,2007,1966,1996,1967
2023,2028,2028,2037,1994,1994,2012,1974
2024,2032,2022,1996,1830,1972,2006,1979
2022,2044,2041,2009,1873,2008,2030,1994
2040,2054,2055,2046,1966,2067,2036,2015
2056,2058,2057,2068,2053,2112,2043,2027
2058,2056,2055,2065,2082,2117,2038,2025
2042,2044,2046,2032,2042,2107,2033,2015
2027,2047,2040,2014,2005,2104,2053,2026
2030,2042,2042,2025,2010,2092,2058,2027
2031,2041,2042,2042,2061,2095,2064,2033
2035,2045,2050,2061,2129,2064,2090,2048
2033,2043,2056,2082,2176,2045,2090,2067
2033,2047,2055,2077,2174,2029,2090,2058
2037,2042,2052,2060,2180,1986,2088,2059
2027,2040,2037,2042,2128,1957,2041,2045
2024,2028,2031,2037,2072,1944,2034,2048
2033,2031,2034,2041,2041,1967,2044,2049
2042,2038,2038,2038,2036,2027,2063,2043
2034,2035,2044,2044,2040,2058,2076,2046
2029,2042,2047,2046,2050,2058,2060,2038
2029,2048,2043,2047,2061,2061,2063,2033
2030,2052,2048,2062,2077,2067,2069,2019
2037,2058,2052,2063,2081,2067,2064,2018
2042,2056,2054,2064,2081,2073,2060,2020
2045,2055,2055,2062,2075,2065,2066,2010
2046,2054,2052,2051,2069,2061,2046,2007
2035,2057,2043,2048,2054,2042,2027,1998
2031,2050,2038,2040,2038,2033,2056,1992
2026,2038,2036,2039,2045,2047,2074,1995
2032,2036,2034,2037,2062,2054,2080,1998
2032,2033,2026,2026,2054,2043,2066,1988
2019,2030,2025,2033,2083,2060,2068,1987
2030,2034,2038,2052,2112,2053,2078,1993
2035,2043,2044,2057,2112,2062,2076,1985
2034,2048,2041,2054,2102,2058,2074,2000
2035,2049,2042,2047,2061,2047,2070,1993
2036,2056,2048,2050,2052,2042,2069,2001
2038,2057,2042,2050,2052,2050,2060,2007
2038,2050,2048,2041,2033,2053,2058,2014
2032,2049,2050,2046,2041,2041,2038,2028
2038,2055,2058,2052,2052,2035,2042,2033
2043,2061,2060,2053,2061,2039,2030,2035
2039,2056,2058,2058,2061,2047,2038,2034
2037,2053,2057,2046,2063,2044,2049,2041
2030,2054,2054,2042,2067,2042,2054,2030
2037,2054,2056,2037,2068,2055,2073,2044
2031,2058,2056,2041,2058,2042,2080,2051
2036,2055,2047,2039,2058,2031,2082,2059
2045,2057,2055,2040,2059,2020,2071,2045
2041,2066,2061,2047,2051,2011,2066,2045
2035,2053,2054,2040,2044,2017,2070,2048
2036,2051,2047,2036,2038,2006,2061,2042
2032,2047,2048,2037,2033,2013,2081,2044
2033,2048,2051,2029,2016,2039,2064,2044
2038,2049,2051,2035,2037,2050,2058,2046
2042,2054,2059,2044,2082,2065,2049,2045
2049,2060,2068,2058,2080,2080,2026,2036
2041,2061,2064,2061,2064,2094,2049,2038
2043,2061,2072,2064,2073,2107,2067,2044
2041,2058,2062,2071,2110,2090,2065,2026
2029,2052,2059,2065,2125,2077,2035,2009
2021,2040,2048,2057,2112,2041,2009,2003
2025,2036,2041,2055,2110,1972,2015,2012
2025,2034,2041,2060,2166,1951,2007,2020
2037,2036,2048,2072,2223,2008,2049,2038
2053,2049,2057,2082,2258,2054,2056,2039
2046,2048,2050,2078,2308,2056,2047,2023
2037,2046,2055,2080,2259,2048,2018,2007
2033,2044,2057,2059,2017,2036,2021,2009
2037,2046,2057,2056,1947,2051,2049,2024
2045,2055,2055,2072,1951,2075,2065,2041
2045,2061,2054,2068,1954,2081,2062,2034
2041,2053,2054,2050,1981,2077,2052,2044
2039,2048,2042,2023,1983,2051,2062,2055
2039,2036,2036,2004,1924,2067,2057,2061
2034,2044,2044,2013,1933,2098,2077,2066
2029,2040,2043,2025,1952,2107,2062,2062
2021,2034,2038,2019,1974,2120,2053,2063
2014,2024,2033,2021,1984,2120,2058,2059
2013,2019,2026,2028,2017,2089,2051,2051
2004,2015,2017,2031,1989,2038,2039,2043
1999,2020,2023,2016,1890,1974,2039,2050
2010,2016,2021,2002,1864,1971,2035,2046
2012,2022,2021,2012,1951,1990,2029,2036
2021,2029,2029,2025,2054,2015,2026,2026
2027,2032,2036,2039,2113,2047,2031,2017
2034,2038,2037,2045,2125,2070,2029,2017
2041,2039,2034,2047,2085,2072,2009,2012
2042,2041,2035,2035,2017,2048,1994,2017
2046,2053,2034,2033,2024,2044,1991,2020
2058,2056,2047,2039,2063,2039,2019,2032
2059,2063,2049,2043,2086,2046,2014,2028
2062,2067,2055,2045,2079,2052,2008,2021
2062,2071,2057,2043,2077,2076,2001,2019
2059,2065,2053,2039,2042,2096,2027,2004
2042,2050,2044,2032,2010,2085,2050,1980
2020,2035,2035,2020,1995,2058,2042,1979
2019,2040,2041,2023,2002,2067,2033,1999
2029,2067,2059,2041,2021,2076,2063,2007
2025,2061,2060,2044,2029,2057,2061,2008
2027,2070,2068,2051,2034,2036,2054,2011
2030,2080,2069,2056,2030,2015,2043,2018
2042,2082,2075,2065,2052,2023,2048,2023
2040,2078,2062,2062,2121,2044,2053,2016
2032,2072,2051,2066,2180,2049,2058,2027
2035,2071,2061,2085,2226,2066,2064,2032
2036,2063,2058,2081,2193,2061,2060,2045
2031,2056,2055,2072,2179,2062,2070,2052
2029,2055,2053,2081,2176,2061,2066,2056
2025,2046,2051,2077,2172,2061,2083,2068
2016,2045,2048,2066,2139,2060,2090,2068
2021,2046,2043,2043,2001,2038,2064,2065
2010,2033,2034,2014,1876,1996,2038,2064
2009,2025,2022,2017,1926,1983,2036,2073
2020,2036,2040,2046,2021,2006,2060,2088
2026,2039,2042,2058,2052,2024,2047,2092
2029,2042,2040,2044,2041,2025,2046,2086
2038,2044,2039,2025,2015,2028,2054,2074
2044,2044,2043,2026,2006,2037,2056,2067
2045,2047,2040,2026,1996,2029,2060,2055
2039,2040,2041,2047,2046,2028,2066,2044
2038,2048,2047,2062,2089,2042,2064,2039
2040,2047,2046,2068,2092,2052,2059,2026
2038,2041,2044,2060,2088,2077,2087,2015
2029,2040,2038,2048,2078,2094,2078,2003
2029,2039,2040,2049,2066,2094,2068,2005
2022,2039,2039,2047,2067,2120,2064,2004
2028,2040,2045,2042,2062,2118,2059,2001
2025,2036,2033,2031,2051,2092,2046,1999
2011,2035,2028,2012,1986,2047,2021,1998
2019,2049,2044,2030,1991,2054,2035,2002
2028,2054,2056,2042,2035,2076,2035,1998
2036,2058,2054,2047,2071,2103,2034,1995
2018,2050,2051,2042,2073,2097,2054,2001
2020,2044,2040,2030,2021,2052,2028,2000
2015,2039,2035,2032,1978,2022,2043,2020
2022,2038,2036,2033,1976,1988,2040,2034
2030,2039,2035,2029,1988,1984,2042,2046
2027,2042,2039,2034,2031,2028,2063,2047
2030,2038,2040,2040,2059,2048,2054,2054
2031,2046,2045,2047,2084,2045,2065,2069
2033,2049,2049,2056,2115,2047,2071,2087
2034,2049,2052,2054,2140,2057,2058,2100
2040,2045,2055,2063,2134,2072,2066,2097
2033,2031,2037,2047,2119,2072,2053,2093
2025,2026,2029,2045,2101,2077,2068,2092
2032,2041,2044,2049,2094,2084,2069,2090
2038,2042,2045,2049,2075,2079,2078,2086
2035,2049,2055,2044,2059,2063,2062,2071
2030,2053,2056,2042,2053,2057,2048,2056
2028,2047,2042,2038,2038,2045,2052,2047
2031,2044,2040,2032,2031,2037,2049,2035
2036,2045,2041,2033,2046,2039,2043,2039
2036,2046,2040,2031,2049,2054,2056,2037
2041,2041,2049,2038,2057,2069,2068,2034
2038,2041,2045,2039,2062,2053,2068,2021
2036,2038,2050,2036,2044,2026,2048,2010
2035,2036,2045,2034,2050,2013,2052,2012
2038,2044,2050,2036,2059,2025,2052,2022
2042,2044,2045,2047,2063,2035,2062,2023
2042,2036,2039,2042,2058,2030,2065,2007
2035,2041,2036,2042,2061,2041,2054,1999
2037,2038,2044,2048,2056,2068,2064,2002
2034,2041,2033,2036,2023,2091,2047,2002
2029,2033,2035,2027,2007,2061,2034,2003
2027,2035,2032,2025,1995,2042,2045,2001
2029,2031,2033,2022,1998,2043,2047,2008
2029,2028,2027,2015,2012,2070,2051,2017
2039,2036,2043,2045,2068,2088,2080,2037
2042,2042,2048,2061,2091,2085,2083,2045
2040,2042,2053,2056,2081,2067,2074,2057
2035,2037,2049,2056,2076,2074,2088,2071
2033,2037,2051,2053,2075,2080,2081,2075
2036,2037,2043,2055,2089,2083,2086,2089
2037,2036,2042,2059,2103,2089,2079,2090
2035,2033,2042,2057,2101,2108,2038,2083
2021,2021,2027,2039,2068,2129,2050,2071
2025,2015,2020,2028,2047,2126,2052,2070
2027,2025,2032,2033,2052,2141,2060,2069
2026,2035,2045,2036,2057,2138,2066,2067
2029,2038,2041,2048,2068,2091,2062,2065
2030,2034,2048,2049,2076,2069,2073,2052
2030,2043,2055,2054,2078,2069,2064,2045
2033,2044,2046,2049,2052,2044,2025,2030
2025,2034,2028,2038,2000,2001,2024,2022
2028,2025,2016,2039,2073,2008,2041,2020
2032,2027,2010,2053,2150,2041,2063,2016
2027,2017,2000,2049,2146,2036,2058,2009
2022,2014,1990,2036,2105,2044,2056,2012
2026,2031,2007,2044,2139,2061,2080,2009
2042,2039,2014,2052,2121,2075,2084,2005
2032,2039,2014,2048,2043,2048,2067,2004
2030,2025,2011,2030,1965,2016,2062,1996
2019,2020,2012,2034,2019,2014,2058,2002
2028,2029,2031,2047,2081,2006,2013,2008
2031,2039,2048,2043,2122,1990,2016,2011
2030,2042,2054,2057,2176,2013,2003,2010
2037,2054,2072,2078,2207,2029,2023,2024
2038,2058,2077,2090,2220,2051,2028,2020
2040,2056,2078,2071,2135,2055,2021,2032
2039,2056,2068,2042,1918,2036,2012,2033
2032,2053,2074,2023,1810,2029,2016,2048
2043,2058,2084,2023,1833,2035,2031,2052
2041,2067,2085,2030,1923,2024,2024,2066
2040,2065,2085,2042,1985,2024,2044,2083
2046,2065,2078,2044,2018,2022,2058,2086
2046,2061,2068,2044,2030,2039,2054,2095
2037,2049,2066,2040,2021,2046,2079,2093
2033,2050,2060,2037,2000,2044,2076,2090
2025,2045,2047,2043,1999,2034,2070,2087
2034,2048,2053,2044,2004,2040,2068,2098
2047,2049,2052,2047,2053,2052,2060,2097
2046,2048,2047,2049,2087,2057,2082,2084
2051,2052,2047,2051,2097,2061,2077,2075
2048,2048,2045,2052,2069,2077,2052,2053
2033,2036,2035,2053,2058,2106,2038,2028
2021,2034,2039,2058,2049,2125,2046,2021
2028,2039,2043,2065,2029,2114,2024,2019
2035,2043,2042,2055,1986,2091,2001,2020
2034,2041,2044,2044,1962,2005,1997,2024
2029,2038,2047,2043,2019,2001,1988,2024
2039,2041,2052,2058,2054,2024,2027,2017
2040,2035,2048,2054,2029,2046,2028,2015
2035,2039,2048,2053,2023,2061,2044,2009
2037,2037,2044,2051,2047,2074,2058,2019
2026,2020,2031,2046,2061,2068,2053,2010
2028,2025,2033,2051,2090,2082,2046,2018
2043,2038,2042,2064,2093,2090,2059,2028
2046,2037,2041,2062,2095,2086,2078,2028
2050,2042,2045,2070,2085,2089,2069,2029
2054,2043,2049,2067,2088,2089,2052,2035
2052,2046,2044,2066,2074,2064,2063,2042
2050,2046,2046,2059,2056,2047,2055,2040
2052,2044,2041,2058,2083,2059,2045,2045
2055,2044,2046,2066,2085,2074,2042,2062
2046,2042,2040,2057,2069,2074,2035,2055
2037,2038,2034,2049,2073,2099,2031,2058
2032,2033,2033,2043,2052,2091,2045,2069
2022,2030,2031,2052,2051,2077,2047,2074
2026,2037,2037,2059,2082,2078,2017,2071
2030,2033,2038,2061,2080,2054,2025,2070
2026,2021,2027,2052,2056,2069,2041,2075
2027,2018,2028,2046,2036,2074,2033,2084
2039,2031,2035,2047,2039,2073,2022,2079
2037,2032,2036,2048,2062,2084,2043,2073
2030,2038,2043,2056,2041,2100,2050,2065
2024,2045,2041,2051,1976,2082,2040,2049
2016,2028,2026,2030,1872,2030,2019,2035
2009,2023,2019,2013,1788,1988,2015,2027
2018,2020,2013,1999,1742,1909,1986,2018
2016,2017,2009,1997,1862,1910,2001,2017
2024,2022,2023,2037,2054,2000,2042,2022
2030,2029,2045,2083,2197,2096,2066,2032
2035,2035,2043,2093,2255,2154,2075,2024
2036,2029,2039,2091,2228,2153,2046,2025
2040,2031,2033,2070,2175,2118,2057,2015
2027,2020,2031,2053,2107,2082,2055,2012
2024,2015,2021,2046,2072,2048,2067,2009
2027,2017,2031,2046,2066,2027,2059,2014
2036,2027,2040,2046,2086,2003,2040,2003
2030,2033,2046,2041,2097,1986,2046,2020
2035,2042,2060,2062,2122,1979,2048,2036
2046,2052,2060,2074,2147,2004,2057,2035
2040,2049,2059,2070,2150,2031,2053,2039
2049,2045,2050,2072,2143,2046,2060,2046
2045,2049,2049,2068,2136,2038,2053,2047
2042,2040,2056,2059,2088,2028,2036,2050
2044,2041,2051,2027,1925,2017,2044,2055
2049,2036,2055,2035,1941,2050,2050,2069
2044,2039,2059,2052,1990,2059,2063,2078
2055,2043,2058,2052,2011,2059,2049,2088
2046,2040,2054,2049,2033,2089,2051,2096
2048,2043,2058,2050,2037,2091,2039,2094
2047,2033,2045,2044,2035,2069,2040,2095
2037,2036,2048,2050,2044,2061,2036,2098
2055,2047,2056,2057,2050,2058,2034,2089
2053,2055,2061,2059,2050,2045,2036,2079
2060,2059,2061,2056,2042,2030,2057,2072
2056,2050,2060,2050,2040,2017,2056,2064
2043,2045,2048,2054,2045,1995,2042,2067
2044,2050,2057,2056,2051,1969,2042,2058
2052,2046,2051,2064,2035,1968,2017,2048
2045,2038,2047,2053,2027,1957,2044,2035
2031,2036,2042,2053,2021,1988,2046,2038
2039,2038,2042,2056,2027,2010,2064,2033
2049,2042,2045,2050,2025,2021,2059,2032
2054,2040,2044,2048,2033,2030,2058,2035
2056,2033,2045,2054,2031,2045,2051,2032
2064,2036,2042,2055,2041,2068,2037,2024
2049,2032,2046,2051,2030,2072,2029,2017
2045,2029,2045,2047,2013,2060,2025,2008
2041,2036,2051,2042,2032,2091,2023,2013
2048,2038,2042,2053,2096,2128,2046,2024
2047,2030,2049,2063,2102,2108,2046,2023
2045,2034,2050,2052,2086,2088,2029,2016
2040,2031,2036,2050,2074,2086,2033,2020
2028,2025,2035,2049,2067,2077,2038,2022
2030,2031,2037,2050,2063,2077,2062,2034
2032,2030,2039,2053,2063,2053,2051,2050
2036,2032,2045,2044,2004,2044,2056,2063
2038,2036,2044,2038,1986,2080,2089,2085
2043,2041,2052,2054,2020,2113,2095,2093
2046,2039,2050,2062,2074,2116,2093,2089
2045,2036,2044,2066,2097,2074,2075,2098
2048,2039,2043,2068,2151,1983,2059,2096
2043,2026,2038,2074,2144,1987,2055,2097
2039,2034,2049,2080,2111,2024,2064,2088
2046,2044,2046,2074,2078,2051,2065,2076
2045,2039,2037,2052,2011,2043,2055,2061
2038,2034,2033,2030,1934,2048,2050,2047
2040,2038,2034,2036,1969,2073,2064,2050
2045,2039,2041,2042,1995,2076,2048,2035
2040,2033,2039,2050,2014,2049,2028,2030
2039,2031,2039,2049,2015,2001,2023,2023
2040,2033,2037,2048,2014,2001,2029,2027
2040,2031,2040,2053,2024,2016,2030,2019
2034,2026,2030,2048,2030,2034,2043,2010
2029,2017,2031,2040,2021,2044,2041,2016
2030,2020,2024,2039,2026,2053,2044,2013
2031,2021,2028,2042,2024,2065,2049,2012
2035,2025,2029,2043,2015,2048,2048,2002
2027,2012,2029,2035,1995,2012,2039,2008
2027,2018,2026,2039,1979,2009,2056,2012
2041,2029,2037,2045,1995,2020,2069,2022
2045,2032,2037,2046,2012,2020,2063,2020
2040,2031,2035,2035,2001,2026,2062,2025
2041,2027,2037,2033,2013,2043,2060,2037
2044,2036,2044,2053,2070,2059,2048,2047
2047,2049,2052,2060,2079,2052,2044,2048
2054,2047,2051,2067,2114,2064,2053,2056
2049,2046,2057,2073,2115,2070,2040,2071
2050,2052,2054,2070,2084,2074,2057,2078
2055,2049,2056,2068,2066,2063,2048,2086
2053,2048,2058,2068,2037,2050,2058,2084
2047,2051,2056,2067,2035,2038,2055,2097
2048,2046,2050,2057,2022,2043,2057,2092
2046,2040,2048,2047,2027,2070,2036,2087
2038,2035,2038,2050,2076,2092,2032,2082
2029,2032,2030,2039,2124,2092,2052,2072
2026,2029,2029,2029,2083,2063,2039,2067
2031,2028,2032,2044,2049,2021,2042,2086
2043,2039,2036,2056,2068,2026,2060,2078
2041,2040,2042,2056,2112,2050,2061,2071
2044,2040,2040,2046,2121,2061,2072,2061
2039,2040,2037,2049,2132,2059,2069,2050
2035,2035,2033,2049,2134,2056,2063,2050
2042,2040,2033,2060,2146,2057,2079,2046
2043,2040,2037,2072,2166,2057,2084,2043
2047,2044,2037,2068,2141,2044,2068,2045
2046,2044,2036,2056,2054,1998,2062,2036
2038,2037,2025,2025,1869,1981,2043,2027
2043,2045,2032,2040,1879,2019,2062,2039
2054,2052,2051,2070,1971,2041,2072,2044
2047,2044,2038,2069,2026,2028,2054,2035
2043,2041,2032,2054,1990,2013,2042,2037
2052,2047,2042,2043,1941,2010,2046,2042
2051,2041,2043,2036,1965,1998,2042,2037
2046,2044,2036,2045,2008,2009,2065,2041
2041,2047,2041,2051,2002,2029,2060,2047
2048,2051,2042,2042,1968,2035,2059,2057
2049,2046,2033,2026,1940,2040,2072,2052
2049,2046,2036,2028,1965,2051,2078,2057
2044,2046,2029,2037,1994,2059,2070,2057
2036,2044,2038,2045,2030,2072,2074,2064
2028,2044,2042,2046,2027,2078,2066,2067
2041,2051,2042,2056,2021,2080,2086,2086
2054,2049,2050,2053,2002,2074,2088,2091
2044,2048,2041,2051,2001,2034,2064,2091
2039,2041,2036,2042,2005,2013,2050,2088
2034,2032,2025,2041,2035,2025,2053,2085
2029,2026,2021,2046,2077,2043,2050,2080
2035,2034,2031,2047,2073,2054,2058,2088
2039,2043,2035,2045,2046,2057,2063,2087
2038,2038,2038,2049,2035,2058,2063,2084
2034,2042,2039,2046,2029,2074,2065,2082
2040,2038,2038,2050,2033,2074,2057,2073
2046,2037,2037,2044,2028,2068,2059,2064
2039,2043,2034,2034,1993,2052,2041,2040
2032,2042,2037,2031,1982,2038,2043,2040
2039,2042,2036,2026,1986,2007,2046,2037
2035,2039,2037,2024,1986,2003,2028,2042
2041,2029,2029,2022,1954,2013,2041,2033
2038,2032,2026,2026,1957,2037,2042,2026
2037,2026,2025,2022,1946,2054,2050,2024
2032,2026,2021,2018,1966,2037,2059,2026
2043,2035,2022,2049,2046,2015,2049,2034
2042,2033,2034,2068,2110,2049,2046,2043
2048,2038,2049,2084,2180,2103,2054,2048
2055,2045,2051,2078,2210,2122,2058,2051
2047,2046,2052,2079,2192,2103,2056,2050
2047,2042,2051,2064,2137,2089,2055,2055
2053,2045,2051,2061,2098,2077,2070,2059
2048,2043,2048,2050,2052,2071,2060,2065
2051,2042,2043,2040,2012,2047,2065,2066
2046,2043,2041,2029,2003,2054,2052,2064
2043,2037,2040,2035,2038,2060,2061,2074
2037,2034,2034,2042,2045,2064,2069,2077
2038,2029,2037,2055,2058,2057,2073,2088
2041,2030,2035,2045,2036,2022,2049,2095
2040,2024,2043,2038,2033,2009,2016,2088
2042,2033,2036,2045,2035,2011,2040,2095
2043,2039,2040,2043,2006,1990,2029,2097
2042,2027,2034,2032,2008,1993,2028,2096
2044,2031,2039,2040,2028,2011,2018,2097
2045,2040,2043,2043,2040,2028,2027,2086
2044,2037,2037,2036,2030,2036,2018,2082
2040,2041,2040,2041,2032,2034,2036,2080
2039,2037,2044,2045,2034,2035,2049,2079
2038,2035,2040,2036,2028,2042,2037,2063
2047,2033,2040,2031,2012,2082,2032,2060
2052,2029,2034,2028,1977,2090,2041,2047
2043,2031,2036,2014,1955,2102,2036,2030
2039,2022,2035,2013,1952,2077,2034,2024
2036,2027,2036,2018,1963,2020,2035,2029
2045,2038,2040,2036,2006,2000,2056,2037
2054,2044,2043,2049,2120,2058,2053,2034
2053,2046,2053,2063,2173,2088,2072,2034
2055,2045,2052,2063,2166,2087,2070,2029
2048,2037,2042,2052,2137,2067,2059,2030
2034,2036,2033,2049,2087,2052,2045,2033
2055,2045,2045,2051,2062,2024,2064,2029
2051,2041,2042,2042,2023,1995,2058,2034
2056,2050,2040,2025,1936,1982,2034,2044
2058,2056,2049,2030,1944,1974,2057,2046
2064,2059,2049,2034,1972,1980,2055,2054
2060,2054,2048,2038,2004,1999,2063,2064
2055,2052,2050,2038,2010,2020,2046,2070
2060,2043,2040,2039,2020,2020,2039,2065
2050,2041,2039,2042,2022,2021,1995,2069
2047,2039,2040,2035,2030,2038,2026,2074
2050,2044,2049,2047,2038,2051,2051,2091
2055,2050,2050,2053,2050,2062,2040,2102
2056,2052,2054,2057,2053,2056,2047,2103
2050,2057,2051,2047,2034,2041,2039,2103
2040,2039,2044,2043,2025,2031,2038,2098
2043,2037,2042,2041,2033,2031,2059,2110
2052,2051,2047,2041,2025,2021,2049,2111
2057,2051,2044,2033,2019,2011,2050,2101
2052,2049,2042,2035,2013,2016,2059,2089
2053,2048,2040,2040,2027,2020,2035,2078
2052,2045,2040,2043,2021,2034,2037,2068
2046,2042,2036,2036,2031,2044,2048,2058
2042,2033,2032,2042,2042,2039,2051,2042
2042,2037,2032,2047,2039,2044,2033,2034
2040,2039,2035,2047,2040,2047,2032,2037
2044,2039,2037,2051,2061,2042,2057,2030
2050,2041,2042,2052,2080,2041,2057,2027
2050,2046,2045,2055,2064,2058,2052,2029
2052,2047,2044,2041,2037,2086,2052,2034
2059,2050,2043,2034,2030,2047,2029,2031
2052,2041,2038,2034,2035,2024,2023,2034
2048,2040,2043,2044,2037,2022,2044,2038
2062,2048,2051,2051,2029,2037,2066,2043
2061,2047,2054,2052,2038,2067,2057,2044
2061,2047,2050,2049,2032,2057,2068,2047
2057,2050,2049,2046,2024,2041,2071,2050
2058,2047,2055,2049,2010,2045,2072,2044
2056,2048,2048,2038,1993,2045,2056,2053
2055,2043,2046,2035,1991,2050,2056,2060
2054,2047,2046,2031,2005,2045,2061,2073
2058,2050,2047,2037,2041,2020,2069,2090
2055,2050,2050,2052,2095,2028,2083,2103
2055,2048,2054,2061,2135,2052,2081,2101
2057,2047,2054,2057,2129,2060,2076,2103
2049,2050,2047,2050,2130,2060,2062,2107
2048,2051,2049,2044,2134,2049,2058,2104
2042,2034,2042,2027,2086,2051,2052,2106
2036,2027,2038,2025,2079,2067,2049,2103
2042,2039,2045,2036,2108,2095,2072,2096
2038,2039,2048,2049,2142,2119,2078,2089
2044,2043,2046,2056,2126,2103,2064,2088
2046,2035,2046,2049,2134,2082,2060,2073
2040,2030,2034,2024,1989,2058,2064,2060
2042,2030,2033,2015,1923,2040,2050,2051
2043,2034,2041,2030,1964,2032,2031,2037
2050,2043,2042,2047,2011,2026,2026,2034
2049,2054,2045,2055,2023,2026,2046,2035
2053,2053,2051,2045,2021,2053,2065,2034
2055,2052,2051,2046,2017,2044,2064,2041
2058,2045,2049,2039,1993,2021,2019,2039
2055,2039,2047,2027,1984,2024,2041,2035
2048,2035,2042,2023,1984,2024,2032,2025
2035,2016,2030,2024,1997,2030,2033,2024
2037,2016,2023,2023,2006,2023,2010,2023
2039,2031,2038,2028,2038,2030,2018,2029
2048,2033,2046,2038,2075,2041,2007,2038
2049,2043,2052,2042,2088,2051,2020,2039
2047,2047,2056,2046,2087,2057,2046,2051
2048,2052,2063,2042,2083,2050,2030,2052
2061,2054,2064,2044,2072,2053,2034,2058
2051,2054,2056,2034,2029,2037,2032,2060
2052,2044,2049,2030,1998,2039,2034,2064
2049,2045,2049,2042,2024,2039,2039,2080
2052,2045,2051,2038,2038,2044,2043,2083
2046,2043,2053,2038,2059,2049,2050,2096
2052,2043,2050,2043,2074,2055,2053,2097
2043,2042,2046,2048,2086,2058,2065,2100
2041,2044,2044,2048,2097,2052,2057,2089
2037,2030,2027,2043,2132,2054,2048,2096
2039,2025,2023,2048,2189,2050,2039,2098
2038,2033,2034,2053,2210,2047,2033,2098
2044,2037,2043,2059,2228,2046,2038,2093
2059,2046,2049,2064,2200,2050,2039,2089
2057,2050,2048,2057,2152,2037,2030,2074
2061,2048,2045,2030,2056,2030,2026,2053
2050,2039,2035,2020,1980,2035,2033,2051
2044,2036,2035,2014,1863,2031,2055,2045
2047,2044,2041,2022,1848,2037,2059,2047
2051,2046,2037,2032,1934,2062,2074,2049
2057,2043,2041,2044,1990,2072,2067,2045
2056,2041,2039,2036,2022,2066,2070,2041
2051,2039,2037,2028,1999,2052,2090,2034
2049,2032,2033,2021,1965,2066,2072,2030
2049,2025,2034,2018,1928,2077,2057,2023
2036,2025,2025,2016,1901,2085,2058,2024
2041,2031,2037,2019,1902,2075,2064,2044
2058,2054,2055,2032,1916,2038,2062,2054
2066,2070,2070,2052,1962,1976,2059,2058
2071,2074,2075,2054,1992,1990,2067,2050
2072,2077,2073,2051,1996,2006,2051,2058
2070,2078,2067,2040,1999,2019,2039,2063
2070,2059,2056,2028,2035,2013,2041,2060
2067,2055,2048,2042,2127,2060,2081,2070
2069,2050,2056,2065,2170,2096,2080,2081
2066,2054,2060,2075,2160,2092,2079,2076
2064,2048,2058,2075,2148,2077,2092,2086
2061,2049,2053,2073,2120,2083,2088,2097
2059,2050,2057,2070,2102,2080,2072,2094
2050,2049,2057,2062,2079,2072,2062,2090
2048,2037,2054,2044,2040,2056,2043,2090
2031,2019,2034,2018,1994,2032,2038,2093
2034,2014,2032,2001,2009,2024,2038,2100
2045,2024,2042,2023,1999,2024,2041,2090
2056,2031,2039,2031,2006,2036,2038,2095
2052,2036,2049,2037,2023,2050,2024,2088
2056,2049,2051,2039,2029,2050,2043,2082
2061,2055,2051,2043,2031,2046,2025,2072
2068,2056,2056,2045,2035,2045,2023,2071
2068,2058,2051,2044,2040,2047,2040,2056
2062,2049,2040,2042,2041,2045,2016,2055
2056,2044,2042,2040,2025,2040,2035,2044
2056,2041,2034,2032,1993,2052,2029,2031
2055,2043,2037,2026,1980,2054,2036,2026
2057,2042,2035,2029,1994,2081,2045,2036
2062,2045,2039,2030,1999,2078,2055,2040
2064,2045,2035,2034,1990,2035,2041,2047
2069,2047,2041,2041,2010,1989,2036,2044
2064,2053,2044,2048,2001,2004,2042,2051
2071,2068,2060,2060,1987,2035,2025,2054
2072,2059,2053,2051,2007,2026,2027,2042
2064,2053,2047,2041,1999,2012,2022,2041
2058,2045,2045,2054,2058,2039,2053,2039
2057,2047,2042,2056,2037,2061,2056,2043
2058,2042,2038,2061,2025,2065,2062,2059
2061,2049,2049,2067,2066,2060,2042,2058
2066,2053,2053,2049,2034,2057,2060,2069
2058,2046,2051,2038,1968,2073,2057,2072
2057,2050,2054,2042,1980,2084,2056,2079
2048,2048,2046,2047,2056,2108,2090,2090
2060,2041,2043,2042,2103,2084,2086,2092
2060,2040,2039,2034,2088,2062,2062,2088
2055,2046,2034,2041,2104,2065,2041,2092
2050,2035,2031,2046,2126,2061,2013,2093
2052,2032,2028,2046,2120,2071,2028,2100
2056,2047,2040,2058,2101,2069,2025,2102
2053,2052,2037,2043,2055,2055,2021,2092
2055,2047,2038,2037,2039,2039,2046,2085
2059,2048,2034,2050,2064,2038,2043,2073
2060,2053,2046,2047,2056,2032,2055,2066
2062,2047,2050,2045,2068,2040,2054,2056
2060,2049,2045,2051,2073,2051,2044,2048
2058,2056,2043,2049,2057,2058,2041,2041
2057,2048,2041,2049,2057,2059,2054,2046
2056,2050,2038,2042,2049,2056,2059,2038
2046,2047,2034,2035,2046,2054,2041,2040
2046,2042,2029,2037,2020,2053,2029,2032
2046,2042,2031,2039,2017,2050,2028,2031
2047,2039,2036,2047,2026,2041,2040,2016
2029,2031,2027,2035,2010,2027,2005,2009
2040,2028,2026,2027,1998,2019,2046,2017
2048,2034,2032,2036,2014,2030,2049,2026
2046,2034,2027,2041,2033,2046,2068,2035
2054,2039,2034,2038,2040,2054,2063,2048
2051,2041,2033,2045,2056,2056,2060,2048
2058,2043,2041,2046,2055,2047,2070,2053
2062,2044,2041,2048,2058,2057,2054,2058
2056,2045,2035,2046,2052,2059,2053,2065
2058,2047,2043,2050,2052,2055,2070,2073
2061,2052,2048,2054,2045,2044,2065,2067
2055,2049,2057,2058,2056,2059,2074,2079
2056,2057,2060,2068,2060,2072,2067,2086
2060,2057,2051,2056,2060,2106,2053,2091
2056,2056,2049,2060,2054,2081,2037,2097
2053,2047,2052,2057,2044,2040,2016,2091
2049,2038,2037,2055,2037,2032,2037,2100
2046,2036,2038,2052,2034,2045,2049,2102
2052,2046,2046,2058,2029,2050,2055,2099
2052,2046,2042,2057,2030,2057,2059,2089
2059,2042,2040,2050,2034,2058,2061,2094
2057,2039,2033,2044,2034,2058,2068,2081
2052,2047,2037,2038,2022,2039,2048,2066
2047,2039,2035,2044,2029,2033,2048,2058
2050,2036,2035,2047,2041,2034,2042,2052
2046,2033,2029,2036,2052,2040,2052,2044
2046,2036,2030,2032,2056,2042,2039,2038
2050,2029,2025,2027,2051,2047,2032,2037
2047,2030,2024,2025,2031,2055,2056,2036
2046,2026,2023,2021,2037,2056,2037,2030
2047,2032,2032,2015,2043,2063,2041,2027
2049,2039,2033,2027,2033,2069,2052,2019
2045,2037,2024,2019,2039,2076,2048,2031
2052,2040,2041,2025,2046,2060,2064,2035
2056,2045,2046,2037,2039,2049,2054,2029
2056,2049,2054,2042,2041,2057,2059,2034
2057,2047,2056,2049,2047,2062,2064,2038
2055,2050,2045,2046,2050,2061,2067,2042
2065,2054,2045,2045,2050,2068,2077,2049
2072,2055,2045,2046,2064,2064,2065,2055
2064,2057,2044,2045,2061,2063,2046,2048
2050,2050,2046,2043,2054,2053,2037,2060
2054,2049,2050,2043,2057,2051,2053,2076
2057,2050,2050,2040,2058,2059,2070,2088
2057,2048,2052,2043,2060,2061,2061,2104
2053,2047,2053,2047,2059,2062,2060,2106
2048,2045,2048,2050,2059,2057,2056,2096
2043,2042,2045,2052,2044,2052,2049,2088
2045,2030,2035,2048,2035,2042,2047,2093
2042,2034,2038,2046,2046,2046,2060,2098
2054,2045,2038,2050,2048,2048,2054,2088
2056,2037,2035,2040,2040,2045,2042,2083
2048,2037,2035,2034,2018,2022,2046,2077
2045,2039,2038,2031,2003,2018,2049,2076
2058,2039,2044,2032,2005,2018,2037,2059
2049,2035,2043,2018,2004,2031,2008,2044
2044,2037,2040,2036,2055,2082,2057,2042
2056,2046,2056,2056,2102,2119,2062,2049
2061,2052,2058,2060,2095,2122,2064,2047
2059,2048,2060,2057,2097,2124,2040,2044
2064,2049,2064,2060,2094,2086,2053,2041
2067,2059,2068,2059,2069,2023,2046,2043
2070,2058,2070,2055,2065,2018,2061,2041
2071,2063,2077,2061,2054,2033,2036,2026
2064,2052,2062,2057,2048,2032,2053,2020
2058,2055,2062,2057,2048,2038,2051,2022
2064,2063,2077,2070,2033,2024,2040,2026
2060,2061,2075,2075,2057,2028,2035,2030
2058,2061,2066,2071,2065,2033,2045,2039
2061,2065,2065,2062,2043,2039,2049,2045
2070,2062,2067,2070,2052,2065,2072,2056
2078,2061,2064,2070,2074,2085,2083,2058
2073,2052,2057,2070,2103,2096,2077,2059
2062,2052,2058,2068,2107,2110,2054,2073
2069,2052,2059,2067,2092,2085,2032,2078
2056,2051,2054,2053,2063,2034,2032,2073
2055,2049,2055,2051,2043,2017,2008,2082
2064,2046,2059,2046,2021,2030,2034,2087
2065,2045,2059,2046,1998,2044,2040,2087
2056,2047,2064,2047,1983,2036,2037,2083
2056,2043,2051,2033,1979,2026,2023,2070
2048,2030,2042,2024,1980,2006,2021,2074
2040,2029,2039,2022,1997,1998,2035,2076
2048,2033,2037,2020,2035,2017,2028,2079
2048,2039,2040,2026,2066,2062,2037,2081
2049,2040,2043,2030,2068,2071,2038,2078
2059,2045,2049,2031,2069,2073,2051,2073
2060,2050,2053,2035,2061,2071,2050,2060
2058,2051,2050,2037,2041,2067,2047,2052
2057,2053,2045,2034,2031,2058,2037,2043
2056,2060,2049,2035,2032,2057,2035,2032
2058,2051,2046,2040,2025,2056,2036,2035
2051,2051,2051,2045,2026,2052,2044,2033
2060,2047,2044,2047,2029,2056,2063,2029
2057,2040,2046,2045,2024,2061,2061,2029
2058,2040,2040,2044,2033,2060,2044,2027
2058,2047,2043,2051,2040,2054,2057,2018
2057,2034,2030,2038,2036,2036,2038,2015
2050,2021,2025,2021,2019,2014,2033,2013
2050,2033,2040,2025,2052,2035,2056,2027
2067,2043,2050,2040,2130,2065,2046,2027
2067,2048,2043,2053,2177,2087,2052,2031
2063,2047,2044,2059,2246,2089,2066,2027
2065,2048,2045,2073,2287,2095,2049,2033
2061,2055,2047,2078,2284,2099,2059,2044
2065,2055,2047,2084,2272,2111,2070,2058
2068,2049,2044,2080,2156,2088,2083,2060
2058,2043,2045,2050,1939,2048,2069,2065
2055,2046,2042,2051,1907,2057,2047,2071
2050,2040,2041,2039,1899,2038,2056,2085
2053,2047,2037,2024,1842,2013,2043,2095
2061,2051,2043,2037,1884,2010,2037,2090
2063,2053,2046,2032,1876,2030,2038,2082
2049,2043,2039,2000,1822,2015,2015,2072
2032,2022,2015,1954,1777,1991,1998,2062
2032,2026,2021,1969,1840,1997,1993,2072
2044,2045,2042,2005,1902,1984,2009,2080
2054,2056,2054,2023,1958,1940,2019,2084
2060,2058,2052,2034,2038,1953,2041,2080
2064,2064,2056,2054,2123,2003,2057,2078
2072,2067,2062,2072,2184,2076,2076,2069
2063,2068,2058,2073,2186,2118,2042,2056
2060,2058,2056,2070,2161,2133,2039,2050
2060,2057,2052,2062,2120,2122,2037,2032
2055,2055,2046,2052,2089,2105,2014,2031
2060,2056,2041,2049,2080,2101,2018,2034
2064,2057,2041,2049,2077,2109,2039,2037
2061,2056,2039,2050,2076,2112,2056,2033
2058,2055,2045,2046,2057,2094,2056,2028
2061,2048,2047,2044,2053,2068,2050,2022
2056,2041,2032,2040,2045,2051,2036,2015
2046,2036,2032,2041,2050,2053,2029,2016
2048,2046,2037,2056,2084,2070,2040,2015
2056,2050,2041,2063,2128,2093,2049,2030
2060,2052,2048,2074,2141,2095,2054,2034
2058,2053,2047,2078,2143,2086,2034,2031
2061,2050,2054,2083,2146,2093,2056,2027
2057,2053,2059,2078,2126,2089,2050,2038
2059,2055,2053,2066,2065,2070,2035,2043
2057,2056,2051,2042,2028,2055,2027,2050
2053,2061,2043,2024,1966,2057,2038,2061
2057,2055,2053,2021,1956,2069,2058,2084
2059,2059,2055,2040,2017,2082,2069,2102
2059,2056,2053,2039,2034,2076,2084,2098
2050,2050,2055,2051,2050,2077,2086,2111
2057,2055,2052,2057,2028,2066,2106,2119
2064,2058,2052,2060,2017,2068,2085,2109
2053,2040,2038,2050,2023,2057,2076,2109
2041,2038,2029,2049,2020,2047,2081,2100
2051,2043,2041,2045,2014,2052,2084,2096
2055,2048,2047,2043,2043,2056,2066,2083
2051,2049,2046,2036,2068,2033,2048,2067
2047,2052,2045,2035,2036,2015,2044,2048
2046,2055,2049,2045,2016,2042,2023,2046
2051,2054,2045,2046,2011,2085,2035,2037
2046,2046,2032,2035,2028,2072,2027,2036
2046,2040,2029,2035,2021,2055,2023,2028
2045,2045,2036,2031,2024,2062,2044,2026
2051,2051,2042,2038,2008,2060,2060,2022
2059,2054,2042,2036,1986,2037,2038,2020
2057,2056,2043,2030,1987,2034,2036,2019
2056,2056,2044,2039,2004,2045,2044,2016
2059,2062,2046,2044,2002,2037,2044,2018
2050,2053,2039,2035,2008,2025,2048,2011
2044,2042,2037,2035,2036,2036,2045,2010
2044,2051,2042,2049,2064,2032,2049,2018
2054,2056,2044,2053,2044,2024,2043,2021
2060,2058,2044,2059,2035,2015,2047,2023
2051,2054,2041,2049,2027,1999,2033,2022
2047,2053,2038,2051,2018,2002,2027,2024
2041,2046,2037,2050,2021,2009,2043,2030
2045,2044,2036,2049,2038,2022,2044,2042
2048,2045,2033,2054,2053,2030,2038,2052
2050,2046,2039,2052,2051,2038,2037,2065
2053,2044,2039,2054,2060,2041,2026,2072
2053,2045,2037,2064,2066,2057,2041,2088
2056,2051,2034,2057,2070,2066,2053,2088
2047,2046,2034,2054,2071,2091,2049,2084
2048,2047,2035,2056,2064,2089,2069,2089
2043,2045,2033,2047,2053,2073,2052,2082
2041,2036,2024,2041,2042,2074,2029,2085
2043,2042,2025,2045,2033,2058,2028,2081
2051,2052,2034,2042,2009,2062,2024,2067
2049,2047,2038,2040,2009,2072,2023,2058
2048,2047,2032,2044,2018,2046,2038,2073
2060,2057,2037,2053,2040,2031,2042,2065
2062,2060,2037,2057,2039,2027,2034,2054
2052,2060,2038,2053,2030,2013,2021,2043
2053,2052,2040,2046,2019,2007,2018,2039
2055,2059,2040,2043,2017,2021,2026,2030
2056,2063,2042,2046,2039,2044,2029,2025
2053,2059,2040,2051,2065,2056,2047,2025
2057,2053,2035,2047,2061,2055,2013,2025
2054,2051,2032,2045,2054,2059,2037,2021
2050,2057,2035,2044,2047,2060,2048,2015
2054,2050,2036,2045,2052,2061,2047,2013
2037,2040,2025,2039,2046,2055,2044,2008
2035,2033,2026,2038,2051,2050,2047,2013
2051,2053,2039,2051,2059,2065,2078,2015
2053,2056,2047,2054,2061,2068,2068,2028
2064,2060,2044,2049,2051,2045,2059,2031
2057,2058,2043,2046,2028,2030,2027,2031
2049,2055,2045,2044,2031,2033,2037,2033
2054,2058,2043,2041,2038,2060,2056,2028
2052,2053,2035,2038,2025,2088,2035,2022
2039,2047,2032,2033,2022,2105,2029,2031
2043,2042,2036,2037,2028,2101,2044,2033
2043,2045,2040,2036,2029,2084,2042,2053
2052,2048,2038,2048,2045,2022,2040,2079
2060,2054,2047,2059,2078,1978,2049,2084
2054,2049,2046,2063,2073,1990,2039,2083
2043,2054,2042,2055,2060,2003,2034,2086
2053,2051,2045,2041,2044,2012,2030,2072
2047,2038,2024,2042,2046,2033,2036,2076
2042,2037,2031,2038,2046,2064,2038,2078
2053,2050,2038,2047,2053,2085,2045,2075
2054,2048,2039,2049,2055,2086,2074,2072
2054,2054,2037,2048,2048,2081,2073,2064
2050,2049,2038,2048,2043,2078,2050,2060
2051,2049,2037,2044,2045,2085,2056,2045
2052,2048,2032,2043,2033,2092,2069,2039
2049,2043,2033,2046,2037,2096,2073,2030
2053,2042,2033,2040,2048,2096,2064,2027
2049,2044,2034,2038,2050,2083,2056,2024
2054,2045,2034,2043,2038,2063,2043,2021
2056,2051,2041,2045,2038,2050,2042,2021
2063,2059,2047,2046,2034,2031,2044,2023
2061,2059,2046,2051,2020,2008,2045,2031
2065,2054,2047,2047,2011,1981,2037,2032
2068,2056,2044,2040,2014,1949,2026,2023
2055,2050,2042,2040,2032,1964,2021,2011
2057,2050,2042,2052,2066,2000,2018,2020
2070,2064,2052,2054,2062,2025,2031,2027
2070,2072,2059,2056,2057,2038,2040,2032
2066,2071,2051,2061,2053,2050,2015,2031
2068,2065,2049,2054,2059,2056,2044,2032
2060,2056,2044,2054,2081,2065,2048,2041
2056,2052,2049,2056,2061,2069,2048,2043
2059,2046,2049,2054,2027,2070,2028,2054
2060,2053,2052,2055,2027,2075,2048,2055
2059,2054,2052,2056,2025,2067,2058,2066
2061,2049,2053,2051,2035,2044,2045,2073
2064,2044,2047,2043,2029,2019,2029,2071
2059,2042,2043,2050,2078,2019,2025,2073
2050,2041,2043,2061,2158,2036,2030,2079
2045,2042,2040,2060,2163,2048,2032,2085
2042,2031,2035,2060,2152,2059,2026,2089
2039,2028,2031,2053,2094,2064,2046,2095
2051,2034,2032,2043,2042,2056,2052,2092
2053,2034,2036,2038,2017,2044,2049,2089
2053,2036,2036,2033,1965,2019,2042,2078
2052,2043,2035,2017,1927,2014,2044,2074
2056,2049,2040,2034,1975,2030,2041,2070
2054,2045,2041,2038,2009,2039,2036,2056
2057,2043,2039,2039,2014,2042,2035,2051
2056,2043,2038,2036,2009,2044,2049,2046
2056,2050,2040,2028,1990,2048,2050,2046
2056,2050,2035,2027,1994,2064,2059,2032
2057,2043,2046,2033,2015,2053,2055,2024
2051,2044,2040,2037,2022,2036,2057,2018
2050,2037,2036,2038,2022,2030,2043,2005
2044,2038,2046,2041,2008,2026,2044,2010
2052,2037,2052,2033,1997,2035,2053,2002
2042,2032,2042,2026,1973,2044,2038,2003
2038,2033,2048,2025,1960,2052,2053,2004
2049,2038,2052,2029,1975,2050,2032,2002
2049,2038,2050,2034,1990,2022,2045,2010
2042,2041,2055,2045,2054,2003,2041,2018
2054,2048,2059,2067,2152,2014,2058,2030
2061,2056,2071,2082,2210,2050,2067,2040
2069,2059,2064,2096,2224,2062,2063,2048
2065,2060,2067,2092,2237,2070,2057,2048
2066,2054,2063,2086,2209,2063,2059,2057
2062,2052,2059,2080,2175,2057,2059,2063
2065,2052,2053,2065,2118,2061,2088,2067
2062,2054,2050,2055,2065,2058,2072,2085
2064,2060,2054,2034,1891,2032,2061,2091
2069,2063,2053,2018,1796,2029,2069,2090
2072,2063,2057,2024,1879,2038,2065,2092
2065,2055,2048,2020,1935,2036,2047,2079
2049,2047,2038,2020,1952,2026,2036,2082
2051,2051,2044,2023,1956,2026,2042,2081
2052,2049,2044,2026,1962,2029,2033,2078
2049,2041,2043,2032,1964,2034,2053,2062
2048,2047,2044,2038,1976,2030,2039,2061
2042,2046,2049,2044,1983,2025,2031,2053
2040,2046,2049,2054,1997,2037,2052,2046
2047,2052,2046,2054,2065,2057,2071,2045
2057,2053,2059,2066,2117,2070,2084,2045
2056,2053,2058,2064,2098,2063,2070,2039
2056,2052,2055,2046,2057,2044,2064,2026
2053,2040,2050,2029,1994,2029,2070,2024
2047,2039,2039,2016,1984,2025,2073,2013
2045,2032,2041,2023,1998,2020,2068,2019
2047,2032,2035,2007,1966,2008,2055,2012
2042,2031,2025,1999,1953,2010,2048,2009
2048,2036,2037,2002,1922,2011,2063,2006
2048,2046,2044,2007,1876,2024,2085,2015
2050,2053,2053,2036,1947,2060,2091,2025
2054,2055,2057,2052,2037,2092,2087,2024
2059,2050,2048,2053,2077,2102,2099,2035
2052,2044,2034,2048,2098,2091,2091,2039
2062,2052,2042,2048,2104,2075,2085,2049
2065,2051,2040,2050,2127,2080,2099,2053
2063,2057,2040,2057,2115,2066,2067,2055
2051,2057,2045,2056,2088,2040,2015,2051
2050,2052,2043,2057,2073,2069,2014,2053
2045,2055,2047,2052,2070,2100,2036,2066
2044,2050,2050,2046,2061,2099,2041,2077
2045,2052,2057,2046,2055,2092,2053,2081
2044,2049,2057,2040,2017,2062,2041,2081
2037,2036,2051,2024,1976,2010,2029,2072
2028,2025,2047,2024,1990,2001,2012,2068
2029,2033,2060,2042,2030,2027,2033,2065
2041,2044,2070,2054,2051,2043,2033,2063
2045,2043,2072,2055,2043,2038,2040,2064
2047,2048,2070,2055,2047,2045,2043,2064
2046,2050,2069,2062,2066,2045,2056,2068
2056,2056,2064,2062,2071,2043,2057,2054
2048,2051,2061,2068,2079,2050,2052,2046
2050,2051,2060,2070,2079,2053,2073,2039
2048,2054,2064,2070,2070,2054,2067,2029
2044,2051,2062,2067,2064,2072,2058,2008
2040,2040,2051,2059,2053,2080,2043,2008
2042,2035,2046,2048,2024,2087,2045,2004
2040,2032,2044,2034,1967,2080,2056,2007
2041,2039,2042,2020,1936,2067,2052,2008
2049,2037,2042,2026,1973,2027,2050,2017
2040,2037,2045,2034,2007,2021,2073,2014
2049,2042,2052,2043,2016,2038,2072,2021
2057,2055,2053,2044,2032,2040,2057,2016
2056,2055,2054,2045,2052,2054,2067,2018
2056,2048,2050,2049,2068,2062,2050,2022
2054,2057,2050,2045,2072,2067,2056,2024
2053,2052,2051,2050,2060,2055,2073,2025
2054,2050,2050,2044,2040,2038,2072,2034
2058,2058,2054,2054,2029,2033,2069,2042
2060,2059,2068,2051,2035,2026,2056,2048
2054,2056,2076,2053,2036,2022,2062,2055
2055,2055,2079,2057,2051,2037,2067,2073
2054,2058,2081,2053,2051,2047,2078,2080
2063,2059,2077,2048,2062,2045,2078,2079
2057,2062,2074,2052,2070,2050,2062,2082
2058,2060,2072,2051,2085,2042,2058,2076
2040,2044,2071,2052,2079,2033,2058,2079
2042,2044,2077,2056,2078,2039,2033,2083
2051,2057,2079,2058,2059,2042,2050,2078
2048,2056,2080,2054,2046,2040,2053,2071
2055,2051,2075,2052,2042,2047,2057,2064
2052,2053,2063,2047,2035,2048,2075,2053
2046,2046,2061,2043,2026,2043,2038,2041
2041,2042,2055,2040,2024,2039,2048,2026
2038,2042,2058,2040,2035,2043,2049,2018
2043,2037,2049,2037,2031,2056,2055,2019
2050,2048,2049,2038,2036,2052,2061,2016
2049,2039,2048,2034,2030,2027,2058,2015
2045,2036,2048,2030,2032,2033,2060,2011
2048,2040,2047,2032,2039,2043,2059,2006
2043,2033,2050,2029,2039,2058,2066,2004
2040,2035,2042,2023,2038,2066,2070,2005
2034,2025,2034,2019,2035,2072,2060,2006
2038,2026,2040,2028,2042,2077,2034,2013
2048,2039,2047,2037,2050,2073,2047,2013
2052,2051,2050,2035,2059,2066,2054,2019
2061,2050,2054,2042,2068,2060,2050,2022
2058,2054,2058,2045,2065,2060,2045,2030
2062,2057,2066,2048,2070,2046,2047,2040
2066,2057,2065,2052,2067,2025,2044,2049
2068,2058,2068,2052,2066,2031,2050,2049
2068,2057,2066,2053,2073,2024,2031,2051
2061,2058,2070,2051,2074,2033,2040,2057
2061,2054,2062,2058,2076,2054,2051,2069
2063,2056,2060,2052,2064,2043,2059,2075
2060,2054,2055,2045,2030,2018,2061,2078
2058,2046,2051,2036,2013,2009,2039,2066
2052,2045,2048,2036,2004,2019,2034,2064
2044,2033,2036,2030,2033,2030,2006,2066
2046,2030,2042,2035,2041,2028,2029,2073
2058,2049,2056,2046,2065,2047,2065,2072
2059,2057,2053,2046,2062,2051,2044,2066
2054,2049,2043,2049,2044,2038,2061,2059
2054,2041,2039,2041,2035,2025,2064,2058
2053,2043,2033,2034,1994,2001,2053,2052
2049,2039,2025,2011,1918,1986,2048,2049
2051,2040,2024,2017,1960,2002,2047,2044
2044,2032,2011,2020,2007,2022,2036,2024
2046,2035,2013,2024,2056,2048,2042,2021
2046,2039,2021,2038,2074,2047,2059,2026
2043,2035,2017,2035,2050,2023,2059,2020
2039,2030,2019,2031,2015,2011,2050,2013
2044,2028,2026,2028,1996,2001,2038,2008
2039,2025,2026,2021,1984,2014,2029,1985
2029,1999,2012,2005,2021,2046,2037,1977
2027,2006,2035,2038,2087,2080,2073,1994
2038,2024,2053,2057,2115,2097,2084,2013
2052,2037,2066,2059,2106,2089,2080,2014
2063,2057,2082,2071,2112,2089,2066,2028
2068,2069,2099,2074,2129,2093,2065,2029
2061,2063,2093,2065,2128,2099,2029,2025
2056,2057,2088,2061,2126,2081,2037,2030
2052,2047,2070,2038,2074,2050,2040,2032
2039,2041,2071,2026,2059,2030,2042,2045
2038,2044,2074,2043,2107,2001,2041,2060
2048,2056,2082,2057,2150,2002,2037,2071
2052,2056,2086,2058,2150,2012,2029,2079
2052,2061,2083,2047,2081,2030,2041,2080
2047,2050,2067,2017,1941,2032,2057,2075
2036,2045,2061,2028,1955,2045,2039,2070
2032,2036,2051,2025,1994,2052,2044,2070
2039,2039,2058,2035,2029,2062,2052,2082
2049,2047,2062,2036,2040,2065,2067,2076
2053,2050,2068,2041,2048,2060,2044,2068
2056,2045,2071,2041,2047,2057,2053,2068
2054,2043,2080,2050,2049,2046,2060,2059
2053,2042,2084,2050,2053,2029,2061,2045
2056,2051,2085,2053,2044,2027,2064,2035
2060,2060,2096,2058,2039,2026,2083,2033
2059,2060,2096,2060,2028,2029,2078,2031
2064,2049,2083,2059,2016,2028,2078,2029
2056,2051,2077,2057,2014,2034,2086,2033
2056,2049,2076,2059,2013,2041,2078,2027
2056,2048,2079,2063,2028,2036,2066,2019
2059,2061,2076,2057,2021,2014,2068,2021
2062,2064,2071,2058,2035,2013,2056,2012
2056,2046,2064,2050,2045,2010,2035,2016
2049,2042,2065,2049,2054,2017,2020,2013
2060,2049,2070,2056,2066,2043,2014,2017
2054,2046,2066,2052,2071,2041,2007,2023
2048,2047,2070,2058,2093,2034,2010,2024
2042,2042,2063,2053,2098,2036,2032,2027
2046,2045,2061,2061,2100,2053,2076,2035
2049,2047,2056,2047,2079,2053,2081,2037
2046,2044,2058,2040,2059,2059,2095,2050
2046,2046,2052,2040,2031,2075,2116,2049
2056,2049,2052,2038,2026,2070,2101,2058
2052,2053,2050,2025,2032,2052,2080,2059
2047,2050,2047,2025,2037,2081,2106,2072
2054,2048,2045,2027,2037,2070,2087,2077
2058,2048,2044,2036,2043,2048,2074,2075
2051,2054,2042,2040,2041,2041,2066,2067
2050,2043,2035,2030,2027,2038,2050,2062
2041,2038,2033,2021,1988,2028,2030,2053
2046,2046,2039,2026,1973,2026,2001,2046
2040,2043,2040,2026,2018,2041,2021,2041
2037,2041,2044,2038,2054,2034,2036,2041
2041,2045,2050,2043,2109,2015,2038,2049
2048,2056,2054,2059,2183,2024,2036,2044
2045,2050,2048,2060,2210,2055,2043,2039
2042,2046,2043,2062,2215,2084,2053,2036
2048,2045,2046,2059,2177,2075,2067,2032
2055,2042,2038,2051,2107,2058,2058,2032
2057,2050,2040,2035,1936,2032,2047,2034
2052,2043,2040,2025,1883,2034,2050,2030
2049,2048,2043,2033,1940,2033,2049,2017
2051,2047,2045,2048,1980,2030,2056,2012
2050,2052,2041,2048,2001,2033,2031,2010
2043,2041,2033,2036,2001,2024,2049,2005
2034,2031,2033,2038,2009,2026,2064,2009
2050,2044,2041,2048,2014,2041,2070,2021
2048,2047,2043,2043,2018,2053,2075,2018
2052,2048,2038,2047,2029,2073,2057,2012
2053,2049,2040,2040,2030,2096,2068,2020
2054,2048,2048,2044,2036,2079,2071,2027
2048,2051,2052,2050,2051,2076,2052,2040
2055,2055,2050,2053,2062,2076,2067,2057
2065,2068,2060,2055,2060,2066,2067,2066
2070,2064,2057,2054,2049,2042,2057,2068
2063,2064,2055,2046,2034,2031,2058,2067
2058,2065,2057,2047,2037,2036,2060,2076
2052,2060,2054,2045,2035,2038,2068,2083
2050,2055,2047,2041,2037,2050,2071,2086
2050,2048,2042,2037,2044,2056,2047,2081
2049,2039,2034,2022,1990,2047,2044,2080
2037,2032,2029,2011,1944,2033,2050,2072
2038,2044,2034,2020,1922,2025,2048,2063
2042,2044,2033,2012,1904,1988,2040,2057
2036,2040,2029,2012,1911,1965,2029,2064
2042,2044,2040,2034,1986,1972,2030,2056
2052,2050,2048,2049,2051,2009,2039,2047
2046,2054,2054,2053,2067,2058,2015,2033
2045,2056,2059,2064,2104,2109,2046,2025
2054,2059,2062,2076,2146,2131,2049,2028
2057,2059,2058,2069,2152,2147,2047,2021
2057,2059,2056,2058,2121,2125,2054,2026
2050,2056,2049,2055,2081,2058,2053,2036
2053,2053,2054,2062,2095,2023,2056,2024
2056,2055,2051,2056,2083,2033,2050,2023
2062,2051,2051,2043,2024,2040,2046,2019
2054,2050,2047,2039,2029,2042,2037,2012
2042,2048,2044,2041,2064,2056,2031,2006
2051,2054,2047,2043,2075,2060,2058,2016
2052,2059,2053,2042,2063,2054,2054,2014
2058,2062,2050,2043,2058,2053,2050,2015
2063,2066,2056,2054,2067,2058,2062,2031
2061,2064,2060,2058,2078,2062,2066,2036
2066,2068,2058,2068,2083,2045,2062,2039
2062,2065,2060,2066,2081,2041,2064,2034
2056,2064,2065,2069,2074,2032,2054,2039
2054,2056,2067,2059,2043,2026,2044,2040
2050,2052,2061,2064,2052,2026,2028,2049
2050,2052,2067,2075,2120,2056,2061,2061
2047,2052,2068,2077,2140,2061,2044,2070
2047,2051,2063,2061,2086,2048,2042,2079
2047,2052,2059,2060,2072,2050,2060,2084
2056,2057,2058,2054,2079,2044,2055,2083
2047,2044,2045,2052,2083,2022,2020,2075
2046,2045,2051,2052,2076,2018,2034,2066
2046,2049,2052,2047,2086,2012,2039,2064
2045,2048,2047,2029,2018,2003,2036,2061
2044,2047,2037,2022,1986,2009,2028,2055
2048,2045,2034,2027,2004,2020,2043,2052
2042,2043,2045,2040,2014,2031,2016,2036
2045,2047,2050,2033,2009,2042,2042,2039
2055,2052,2048,2037,2002,2036,2054,2027
2049,2046,2051,2035,1998,2032,2058,2018
2055,2049,2053,2030,1996,2044,2045,2016
2045,2053,2052,2033,2039,2056,2061,2011
2048,2052,2047,2030,2093,2063,2048,2018
2048,2052,2044,2029,2114,2060,2044,2020
2053,2044,2039,2030,2105,2042,2040,2012
2053,2040,2035,2029,2072,2034,2046,2008
2045,2031,2039,2037,2060,2026,2043,2012
2048,2037,2049,2039,2076,2031,2076,2026
2054,2060,2054,2024,2012,2019,2054,2015
2056,2054,2045,2013,1962,2026,2064,2017
2053,2060,2055,2026,1991,2051,2061,2031
2061,2071,2060,2036,2024,2054,2073,2034
2064,2064,2057,2031,2039,2049,2064,2036
2058,2064,2052,2034,2034,2030,2042,2051
2061,2065,2056,2041,2066,2056,2056,2048
2059,2073,2059,2051,2092,2065,2050,2054
2056,2064,2056,2050,2086,2063,2057,2051
2051,2066,2054,2037,2073,2053,2050,2062
2048,2057,2049,2039,2055,2036,2045,2067
2047,2056,2047,2034,2038,2022,2048,2076
2043,2057,2048,2028,2035,2011,2057,2073
2042,2054,2042,2030,2034,2002,2028,2077
2032,2036,2033,2024,2037,1999,2022,2079
2038,2036,2035,2028,2041,2033,2042,2075
2049,2046,2031,2036,2062,2049,2059,2076
2049,2049,2035,2039,2080,2041,2042,2069
2050,2048,2033,2036,2059,2028,2042,2060
2051,2048,2031,2033,2042,2031,2063,2056
2045,2050,2035,2039,2047,2040,2049,2046
2041,2043,2033,2032,2045,2045,2048,2031
2041,2039,2028,2030,2034,2044,2016,2014
2026,2030,2020,2030,2018,2044,2034,2019
2031,2036,2020,2034,2038,2047,2044,2020
2031,2026,2020,2040,2058,2061,2020,2008
2040,2031,2018,2038,2044,2075,2035,2010
2038,2039,2025,2037,2047,2082,2030,2009
2043,2038,2022,2044,2046,2083,2038,2011
2047,2045,2030,2042,2044,2065,2046,2006
2046,2044,2030,2048,2062,2026,2045,2019
2049,2047,2035,2058,2092,2030,2044,2016
2050,2061,2042,2061,2098,2044,2040,2019
2046,2053,2035,2066,2096,2039,2020,2022
2053,2055,2033,2064,2092,2034,2029,2022
2048,2062,2037,2062,2091,2041,2038,2030
2053,2066,2042,2069,2087,2053,2065,2043
2059,2064,2044,2073,2064,2047,2050,2044
2056,2064,2048,2064,2046,2036,2053,2046
2043,2059,2051,2049,2004,2041,2038,2057
2043,2056,2048,2029,2000,2031,2040,2061
2044,2052,2050,2027,2014,2017,2044,2077
2045,2048,2048,2037,2033,2011,2050,2080
2042,2047,2056,2046,2038,2032,2041,2088
2050,2055,2056,2050,2035,2033,2036,2088
2054,2056,2053,2043,2023,2013,2018,2088
2049,2045,2050,2042,2010,2009,2031,2089
2045,2048,2047,2036,1994,2015,2038,2095
2058,2058,2047,2032,1997,2020,2039,2086
2051,2056,2046,2034,1995,2018,2034,2075
2051,2053,2045,2029,1988,2009,2018,2063
2048,2060,2047,2016,1966,1971,1991,2055
2040,2052,2045,2015,1962,1973,2000,2050
2040,2053,2050,2022,2017,2002,2021,2040
2045,2050,2054,2044,2061,2027,2044,2036
2046,2052,2056,2054,2053,2034,2036,2026
2052,2056,2056,2055,2086,2043,2042,2028
2046,2049,2055,2059,2124,2060,2035,2023
2042,2048,2050,2061,2124,2076,2012,2017
2042,2050,2057,2067,2122,2101,2016,2009
2039,2053,2064,2071,2125,2135,2028,2002
2041,2047,2054,2056,2098,2088,2026,1999
2029,2029,2042,2038,2088,2054,2013,2004
2030,2028,2047,2037,2122,2059,2019,2011
2042,2050,2062,2057,2168,2071,2022,2014
2039,2051,2066,2064,2174,2070,2040,2020
2048,2052,2066,2067,2160,2063,2020,2023
2046,2057,2063,2068,2159,2056,2018,2029
2041,2050,2053,2068,2154,2058,2045,2033
2049,2052,2053,2064,2121,2052,2041,2049
2062,2058,2049,2058,1963,2045,2034,2051
2057,2056,2041,2051,1899,2042,2036,2060
2058,2052,2044,2048,1954,2043,2038,2067
2050,2050,2042,2052,1993,2046,2057,2071
2051,2051,2042,2043,2011,2040,2062,2077
2042,2046,2039,2042,2002,2027,2048,2077
2040,2044,2034,2037,2010,2030,2045,2079
2045,2046,2037,2036,2000,2035,2032,2077
2050,2043,2028,2034,2000,2031,2024,2080
2038,2041,2029,2033,2003,2036,2040,2091
2040,2054,2046,2045,2011,2040,2049,2080
2049,2046,2048,2048,2025,2035,2042,2071
2047,2047,2049,2053,2037,2025,2040,2055
2043,2043,2053,2062,2032,2029,2032,2049
2050,2040,2057,2062,2034,2041,2036,2052
2054,2047,2056,2062,2063,2054,2037,2039
2051,2048,2057,2056,2072,2061,2039,2033
2056,2046,2061,2064,2057,2063,2035,2033
2046,2048,2051,2061,2049,2049,2017,2024
2045,2047,2049,2055,2052,2044,2035,2015
2050,2051,2053,2056,2055,2054,2032,2015
2045,2047,2061,2057,2050,2047,2018,1999
2046,2052,2061,2055,2042,2040,2011,2000
2042,2050,2054,2054,2040,2040,2026,1997
2037,2041,2051,2042,2041,2042,2026,1996
2042,2034,2043,2043,2039,2047,2041,2006
2048,2052,2059,2049,2043,2044,2055,2018
2054,2052,2059,2052,2034,2033,2054,2016
2049,2055,2057,2043,2034,2041,2037,2021
2059,2059,2061,2039,2039,2045,2044,2026
2054,2062,2062,2038,2032,2044,2042,2029
2052,2067,2061,2040,2040,2050,2043,2034
2052,2067,2065,2039,2045,2050,2053,2030
2051,2060,2058,2038,2041,2051,2038,2048
2052,2064,2057,2041,2043,2051,2043,2056
2051,2062,2058,2044,2043,2049,2054,2073
2046,2061,2057,2046,2040,2055,2068,2074
2046,2059,2056,2047,2039,2041,2055,2073
2044,2059,2052,2046,2037,2056,2040,2076
2045,2051,2051,2044,2040,2082,2031,2080
2040,2046,2045,2036,2035,2084,2061,2076
2041,2048,2044,2036,2019,2076,2057,2079
2045,2052,2053,2037,2020,2060,2054,2086
2054,2062,2058,2060,2042,2023,2037,2089
2060,2067,2061,2066,2057,2018,2046,2075
2065,2060,2062,2063,2044,2021,2042,2065
2063,2059,2058,2061,2032,2022,2029,2060
2061,2060,2056,2053,2025,2028,2043,2039
2059,2055,2052,2050,2033,2030,2034,2032
2056,2056,2056,2057,2031,2037,2034,2025
2056,2054,2053,2052,2035,2037,2052,2021
2056,2048,2053,2053,2038,2032,2042,2022
2051,2055,2049,2056,2039,2035,2044,2010
2055,2050,2049,2050,2027,2027,2056,2011
2054,2046,2045,2052,2006,2017,2037,2005
2042,2040,2041,2043,1969,2000,2022,2002
2043,2029,2029,2034,1957,1990,2019,1998
2026,2021,2022,2022,1948,1992,2004,1998
2036,2029,2028,2030,1969,2027,2028,2008
2045,2042,2037,2049,2025,2059,2054,2020
2051,2046,2041,2062,2068,2072,2061,2025
2051,2048,2048,2069,2092,2080,2056,2025
2056,2047,2043,2064,2074,2062,2052,2030
2058,2046,2039,2048,2044,2041,2036,2021
2051,2045,2038,2043,2016,2038,2008,2026
2049,2046,2030,2050,2007,2050,2023,2032
2041,2041,2027,2040,1995,2056,2030,2043
2041,2033,2028,2032,2004,2040,2045,2048
2043,2042,2035,2064,2078,2044,2069,2068
2056,2053,2046,2084,2167,2067,2083,2081
2060,2059,2054,2099,2243,2078,2063,2092
2054,2056,2054,2089,2235,2087,2053,2092
2053,2055,2046,2084,2203,2083,2042,2086
2048,2044,2035,2068,2145,2095,2055,2081
2053,2051,2044,2064,2105,2092,2045,2081
2054,2053,2045,2059,2054,2043,2042,2077
2053,2041,2033,2039,1973,1997,2023,2062
2046,2049,2034,2026,1900,1994,2038,2057
2050,2049,2045,2045,1947,2020,2023,2052
2051,2051,2052,2058,1989,2027,2043,2047
2048,2058,2047,2050,1995,2023,2033,2034
2050,2047,2047,2039,2000,2030,2035,2027
2045,2047,2040,2037,2004,2039,2038,2021
2048,2042,2037,2038,2039,2049,2044,2020
2043,2044,2036,2047,2054,2052,2033,2028
2050,2045,2042,2049,2052,2041,2041,2026
2049,2045,2045,2050,2041,2054,2060,2017
2056,2047,2047,2053,2039,2064,2054,2011
2054,2049,2048,2050,2039,2054,2043,2007
2043,2040,2035,2046,2018,2040,2045,2004
2043,2037,2037,2049,2029,2030,2060,2007
2042,2047,2041,2053,2037,2042,2040,2006
2039,2040,2046,2054,2033,2044,2053,2010
2050,2055,2049,2055,2042,2048,2056,2010
2055,2052,2051,2056,2037,2052,2059,2008
2048,2052,2056,2064,2042,2051,2070,2024
2047,2052,2060,2064,2057,2058,2061,2030
2045,2053,2052,2065,2068,2066,2063,2033
2039,2052,2045,2061,2063,2052,2055,2032
2040,2045,2045,2055,2042,2031,2058,2042
2049,2037,2037,2056,2035,2047,2075,2057
2044,2041,2038,2063,2068,2058,2065,2073
2044,2042,2037,2051,2036,2051,2076,2079
2049,2038,2038,2048,2020,2066,2076,2077
2042,2042,2034,2046,1998,2076,2076,2071
2037,2028,2029,2040,1970,2066,2061,2068
2025,2029,2025,2031,1957,2040,2054,2075
2035,2033,2030,2017,1927,1991,2057,2065
2036,2034,2032,2022,1964,1952,2052,2064
2047,2045,2044,2045,2045,1981,2064,2069
2054,2053,2050,2067,2113,2042,2068,2065
2060,2059,2055,2073,2133,2063,2054,2054
2059,2060,2053,2072,2118,2050,2042,2039
2053,2050,2046,2067,2094,2014,2027,2039
2056,2057,2049,2065,2074,2026,2054,2039
2065,2058,2052,2070,2069,2056,2066,2029
2065,2052,2050,2064,2054,2073,2069,2031
2062,2056,2044,2059,2024,2071,2061,2021
2050,2049,2046,2054,2024,2062,2042,2015
2045,2050,2038,2045,2010,2040,2056,2013
2045,2046,2039,2047,2010,2020,2050,2008
2035,2037,2033,2048,2045,2021,2047,1998
2033,2034,2035,2046,2074,2034,2075,2008
2046,2045,2042,2049,2084,2039,2072,2004
2054,2040,2037,2056,2078,2046,2064,2015
2049,2042,2040,2054,2078,2048,2085,2021
2048,2050,2043,2064,2092,2057,2074,2033
2058,2049,2047,2066,2100,2075,2076,2030
2050,2056,2052,2065,2100,2081,2042,2045
2057,2056,2048,2057,2080,2076,2053,2044
2054,2061,2045,2058,2066,2077,2046,2047
2052,2054,2044,2049,2048,2118,2056,2049
2042,2045,2043,2042,2046,2106,2059,2062
2037,2050,2048,2036,2029,2056,2053,2069
2037,2044,2048,2038,2058,2038,2064,2074
2037,2047,2043,2047,2064,2021,2064,2072
2028,2039,2042,2045,2093,2012,2038,2065
2017,2031,2033,2045,2115,2038,2038,2074
2032,2038,2041,2050,2124,2053,2048,2080
2047,2043,2054,2058,2102,2047,2056,2079
2055,2049,2054,2053,2061,2040,2045,2068
2054,2049,2049,2027,1962,2016,2056,2069
2055,2046,2050,2023,1928,2015,2048,2059
2052,2053,2056,2035,1966,2015,2044,2049
2050,2050,2057,2040,1996,2018,2040,2043
2049,2056,2057,2041,2010,2026,2046,2040
2051,2058,2045,2050,2006,2025,2044,2038
2055,2050,2036,2037,1978,1997,2044,2029
2051,2050,2034,2036,1973,1995,2041,2025
2054,2050,2030,2044,1989,1998,2039,2024
2048,2047,2022,2036,2008,2020,2050,2018
2046,2046,2021,2038,2040,2043,2058,2014
2052,2051,2034,2069,2113,2074,2079,2014
2049,2040,2033,2073,2118,2072,2058,2010
2043,2031,2034,2062,2092,2061,2058,2013
2041,2044,2048,2060,2074,2065,2061,2020
2043,2052,2054,2055,2065,2066,2061,2014
2044,2049,2057,2054,2069,2054,2045,2020
2042,2051,2053,2059,2075,2034,2044,2018
2038,2049,2061,2058,2079,2032,2042,2024
2044,2049,2061,2054,2083,2051,2062,2043
2051,2056,2058,2058,2088,2074,2073,2047
2053,2057,2063,2055,2088,2071,2068,2060
2054,2061,2053,2064,2090,2076,2077,2061
2057,2057,2052,2065,2092,2076,2066,2069
2053,2054,2048,2061,2086,2072,2070,2079
2052,2051,2042,2047,2048,2066,2065,2085
2051,2049,2037,2041,2029,2057,2056,2088
2045,2051,2038,2042,2064,2051,2063,2089
2041,2039,2031,2040,2075,2041,2060,2095
2048,2036,2030,2038,2093,2046,2062,2088
2049,2050,2049,2055,2100,2044,2059,2084
2053,2061,2052,2059,2091,2033,2048,2086
2053,2057,2049,2057,2085,2030,2068,2080
2054,2049,2052,2057,2082,2034,2070,2069
2060,2050,2045,2054,2065,2033,2062,2058
2052,2048,2046,2053,2045,2033,2051,2043
2053,2047,2041,2035,1981,2037,2053,2026
2045,2042,2045,2028,1973,2041,2049,2024
2047,2049,2045,2037,1999,2043,2022,2018
2050,2043,2046,2044,2025,2046,2020,2015
2046,2042,2043,2051,2077,2051,2023,2014
2044,2040,2043,2047,2116,2051,2024,2014
2046,2035,2040,2049,2120,2050,2041,2011
2042,2031,2043,2056,2141,2058,2035,2007
2045,2023,2032,2052,2140,2081,2019,1999
2039,2027,2028,2050,2124,2104,2061,2012
2052,2041,2038,2051,2109,2104,2060,2026
2056,2041,2042,2044,2058,2080,2044,2023
2051,2046,2047,2032,1910,2026,2048,2036
2064,2051,2044,2045,1894,1997,2074,2046
2060,2056,2047,2054,1961,2028,2073,2044
2056,2056,2053,2054,1996,2052,2068,2040
2063,2060,2052,2053,1984,2037,2055,2047
2055,2060,2051,2045,1984,2023,2060,2054
2058,2055,2049,2044,1988,2025,2058,2065
2050,2049,2048,2042,2000,2033,2062,2068
2055,2046,2040,2041,2034,2048,2050,2071
2054,2046,2031,2040,2078,2049,2060,2082
2055,2046,2031,2044,2071,2044,2052,2090
2056,2050,2045,2055,2047,2038,2047,2089
2051,2045,2040,2055,2032,2029,2034,2090
2054,2043,2042,2061,2030,2034,2040,2089
2057,2062,2044,2056,2033,2030,2033,2081
2058,2056,2045,2061,2037,2032,2035,2073
2046,2051,2039,2056,2047,2040,2051,2074
2042,2046,2041,2058,2075,2064,2044,2057
2040,2043,2039,2060,2156,2074,2036,2044
2039,2040,2029,2057,2177,2082,2051,2039
2045,2040,2032,2061,2167,2081,2050,2032
2048,2042,2039,2057,2096,2063,2045,2025
2044,2040,2034,2049,2078,2065,2048,2028
2048,2042,2036,2054,2083,2071,2047,2024
2050,2050,2037,2038,2026,2049,2053,2020
2050,2050,2043,2028,1954,2043,2060,2026
2048,2048,2043,2041,1985,2056,2052,2020
2043,2045,2036,2033,1992,2025,2026,2009
2036,2029,2028,2020,1993,1999,2041,2012
2037,2031,2031,2033,2023,2015,2045,2027
2042,2048,2041,2037,2044,2027,2061,2021
2051,2050,2046,2040,2046,2027,2050,2029
2052,2062,2044,2044,2053,2033,2052,2029
2061,2064,2044,2043,2064,2039,2031,2039
2058,2056,2049,2053,2061,2037,2052,2039
2055,2058,2058,2054,2061,2042,2068,2044
2056,2052,2057,2055,2056,2043,2078,2052
2051,2055,2060,2051,2041,2045,2076,2060
2052,2056,2059,2051,2042,2048,2080,2067
2047,2058,2063,2052,2047,2072,2066,2073
2049,2063,2065,2058,2055,2078,2063,2078
2056,2060,2074,2058,2024,2058,2037,2092
2052,2065,2074,2043,1983,2036,2031,2099
2051,2063,2067,2039,1945,2016,2034,2094
2043,2049,2061,2024,1940,2007,2022,2084
2041,2045,2061,2022,1932,2017,2042,2079
2042,2054,2063,2033,1983,2064,2045,2079
2044,2061,2069,2051,2030,2089,2050,2073
2045,2059,2062,2051,2041,2099,2038,2068
2042,2054,2060,2058,2071,2099,2034,2056
2044,2063,2052,2067,2085,2059,2039,2055
2046,2061,2061,2075,2081,2020,2017,2050
2047,2059,2060,2073,2083,2030,2018,2044
2047,2063,2055,2071,2055,2039,2039,2036
2045,2060,2054,2053,2023,2039,2044,2028
2044,2053,2049,2042,2000,2031,2049,2028
2043,2056,2046,2037,2009,2018,2054,2026
2042,2054,2050,2053,2036,2028,2038,2022
2039,2052,2048,2067,2068,2031,2023,2021
2040,2051,2046,2062,2095,2051,2028,2008
2033,2043,2037,2061,2112,2064,2032,2012
2032,2035,2038,2054,2058,2064,2024,2009
2040,2052,2043,2042,1999,2036,2019,2017
2037,2049,2050,2045,1995,2001,2025,2024
2046,2054,2053,2056,2040,1991,2036,2021
2045,2049,2050,2057,2069,2001,2048,2033
2047,2051,2058,2077,2129,2047,2046,2047
2053,2052,2059,2092,2140,2075,2041,2043
2053,2053,2058,2071,2096,2080,2043,2038
2049,2053,2056,2065,2101,2080,2048,2047
2044,2055,2069,2071,2114,2074,2046,2047
2048,2056,2072,2072,2117,2096,2046,2061
2040,2050,2063,2060,2098,2089,2026,2061
2035,2040,2049,2049,2082,2049,2021,2067
2033,2041,2044,2048,2075,2027,2009,2059
2030,2031,2033,2038,2058,2030,1992,2064
2028,2026,2035,2040,2060,2041,2018,2071
2034,2038,2049,2054,2071,2056,2031,2074
2041,2049,2050,2049,2060,2039,2030,2071
2043,2047,2046,2049,2056,2028,2022,2066
2038,2041,2047,2050,2056,2034,2024,2060
2043,2046,2047,2055,2058,2041,2019,2047
2042,2047,2047,2053,2052,2039,2026,2050
2048,2052,2045,2053,2058,2049,2029,2044
2057,2047,2054,2058,2057,2057,2025,2033
2055,2054,2056,2060,2061,2055,2043,2031
2046,2052,2047,2062,2057,2048,2037,2026
2044,2039,2053,2059,2057,2049,2038,2018
2040,2041,2048,2057,2048,2052,2042,2007
2039,2043,2054,2056,2049,2051,2046,2012
2044,2044,2055,2053,2050,2053,2038,2008
2038,2044,2054,2053,2043,2045,2028,2005
2032,2044,2050,2046,2058,2046,2013,2007
2038,2053,2059,2062,2073,2056,2041,2019
2046,2054,2058,2064,2074,2056,2034,2007
2041,2056,2052,2059,2068,2047,2036,2016
2037,2051,2054,2058,2065,2044,2018,2017
2036,2049,2053,2056,2062,2052,2043,2019
2040,2044,2048,2052,2060,2049,2040,2026
2041,2045,2046,2049,2057,2042,2058,2031
2038,2041,2045,2048,2035,2036,2054,2041
2034,2038,2049,2058,2040,2041,2033,2044
2036,2038,2050,2061,2052,2052,2043,2053
2045,2044,2056,2066,2067,2072,2037,2068
2044,2058,2054,2062,2070,2069,2016,2073
2043,2060,2052,2061,2066,2070,2000,2079
2041,2050,2041,2056,2054,2067,2009,2071
2031,2040,2029,2047,2042,2058,2018,2069
2027,2030,2022,2050,2047,2064,2024,2080
2032,2036,2030,2054,2046,2077,2038,2079
2050,2047,2036,2056,2045,2078,2043,2077
2049,2046,2036,2049,2024,2064,2038,2074
2052,2047,2036,2039,1998,2048,2036,2057
2049,2040,2026,2040,1993,2037,2024,2057
2050,2049,2030,2044,2001,2033,2032,2046
2056,2049,2035,2050,2040,2039,2048,2034
2052,2041,2034,2053,2072,2026,2051,2029
2055,2045,2037,2051,2082,2032,2043,2026
2056,2046,2044,2053,2061,2041,2058,2021
2054,2049,2048,2050,2045,2050,2061,2014
2041,2046,2049,2049,2044,2050,2042,2011
2041,2041,2060,2054,2049,2044,2041,2007
2052,2039,2076,2058,2063,2043,2024,2007
2039,2034,2068,2050,2042,2033,2026,2000
2034,2032,2059,2039,2014,2024,2013,2012
2041,2046,2075,2055,1999,2014,2001,2010
2049,2049,2074,2067,2020,2025,2003,2009
2046,2056,2085,2066,2060,2054,2028,2009
2048,2055,2084,2066,2086,2073,2044,2006
2046,2057,2076,2064,2088,2066,2034,2018
2057,2069,2074,2068,2076,2057,2045,2017
2062,2065,2079,2064,2064,2048,2030,2024
2056,2065,2081,2065,2065,2042,2018,2038
2060,2064,2080,2059,2069,2042,2054,2048
2057,2062,2074,2051,2044,2043,2062,2052
2055,2059,2067,2047,2031,2052,2062,2060
2052,2054,2060,2044,2030,2065,2059,2066
2051,2046,2063,2040,2029,2068,2041,2072
2052,2035,2054,2035,2027,2055,2070,2065
2045,2032,2042,2030,2039,2043,2044,2062
2035,2036,2047,2037,2052,2052,2039,2064
2039,2039,2050,2051,2063,2060,2054,2061
2039,2040,2052,2040,2061,2052,2053,2053
2044,2046,2059,2049,2065,2044,2037,2060
2047,2046,2055,2054,2062,2044,2039,2054
2053,2050,2059,2054,2064,2045,2044,2048
2054,2039,2058,2045,2061,2048,2043,2031
2043,2039,2053,2044,2054,2032,2032,2018
2042,2037,2049,2035,2043,2022,2025,2022
2040,2037,2046,2037,2039,2033,2039,2023
2039,2039,2050,2041,2036,2050,2048,2029
2047,2046,2057,2039,2036,2067,2062,2034
2054,2050,2058,2046,2050,2085,2047,2034
2051,2050,2059,2042,2052,2092,2057,2023
2042,2050,2054,2045,2066,2084,2051,2018
2040,2037,2046,2040,2066,2060,2050,2002
2035,2025,2043,2036,2061,2045,2026,1998
2030,2028,2040,2045,2075,2045,2028,2002
2038,2033,2041,2047,2074,2051,2024,2005
2035,2036,2048,2045,2077,2039,2016,2007
2037,2038,2050,2054,2076,2050,2038,2016
2047,2047,2051,2052,2072,2056,2043,2015
2048,2047,2058,2056,2075,2059,2057,2028
2044,2048,2059,2055,2065,2042,2035,2028
2044,2045,2054,2056,2056,2042,2040,2031
2048,2051,2056,2060,2054,2047,2034,2052
2054,2056,2056,2054,2111,2043,2044,2062
2050,2050,2063,2071,2153,2051,2034,2074
2057,2055,2057,2064,2157,2057,2052,2077
2054,2054,2057,2067,2140,2069,2072,2084
2054,2051,2059,2061,2104,2073,2064,2084
2055,2038,2045,2054,2076,2052,2045,2080
2042,2033,2040,2047,2065,2029,2028,2075
2044,2033,2040,2026,1974,2003,2030,2074
2054,2035,2043,2036,1990,2023,2052,2069
2051,2042,2049,2048,2029,2035,2047,2065
2042,2038,2046,2057,2061,2046,2042,2053
2045,2028,2051,2054,2075,2056,2049,2045
2037,2027,2049,2052,2070,2054,2042,2031
2038,2031,2054,2052,2070,2051,2026,2033
2045,2039,2048,2038,2005,2046,2048,2028
2042,2037,2044,2032,1960,2050,2066,2022
2043,2038,2051,2043,1987,2050,2068,2013
2050,2039,2052,2042,2010,2043,2057,2015
2044,2044,2045,2044,2017,2042,2054,2010
2042,2044,2049,2043,2027,2052,2045,2008
2051,2048,2051,2045,2036,2050,2027,2007
2042,2038,2040,2041,2031,2038,2021,2011
2034,2036,2042,2044,2038,2035,2013,2017
2046,2040,2050,2052,2050,2052,2053,2023
2049,2044,2050,2054,2060,2050,2042,2024
2056,2053,2058,2056,2061,2058,2064,2031
2052,2060,2064,2065,2065,2064,2054,2037
2056,2060,2060,2066,2077,2065,2052,2041
2055,2063,2065,2064,2075,2070,2060,2050
2060,2061,2069,2062,2071,2066,2053,2053
2056,2060,2063,2061,2051,2061,2061,2055
2058,2060,2062,2047,2020,2056,2065,2058
2066,2058,2061,2049,2030,2055,2049,2068
2057,2058,2060,2047,2064,2056,2050,2072
2062,2064,2061,2048,2066,2058,2045,2074
2049,2054,2053,2048,2056,2044,2040,2070
2041,2043,2052,2048,2051,2035,2033,2071
2036,2035,2048,2044,2050,2045,2001,2080
2028,2039,2047,2046,2056,2052,2039,2089
2040,2053,2068,2055,2053,2047,2037,2089
2046,2058,2064,2049,2027,2027,2027,2083
2050,2061,2060,2054,2030,2037,2032,2071
2050,2057,2060,2054,2072,2055,2046,2066
2045,2059,2064,2059,2121,2058,2043,2057
2047,2052,2062,2059,2146,2068,2038,2058
2046,2054,2060,2056,2150,2071,2042,2048
2047,2053,2054,2056,2162,2064,2038,2042
2046,2049,2058,2063,2151,2055,2036,2046
2046,2051,2057,2057,2139,2054,2047,2037
2039,2050,2055,2056,2109,2041,2026,2024
2035,2042,2046,2046,2014,2015,2004,2006
2032,2037,2033,2032,1848,2003,2033,2006
2035,2037,2038,2032,1837,2008,2034,2004
2036,2034,2036,2035,1904,2022,2048,2009
2042,2036,2036,2040,1960,2026,2067,2018
2046,2049,2040,2055,2018,2043,2056,2020
2047,2050,2046,2054,2055,2046,2047,2022
2045,2048,2043,2047,2070,2039,2046,2019
2041,2046,2036,2042,2059,2021,2035,2026
2040,2050,2039,2040,2017,2000,2036,2031
2040,2051,2040,2037,1997,1986,2037,2034
2036,2048,2032,2030,1984,1978,2041,2039
2034,2042,2031,2027,1977,1980,2025,2041
2038,2054,2048,2039,2012,2019,2041,2059
2049,2064,2060,2068,2070,2063,2049,2070
2054,2064,2062,2080,2124,2096,2068,2079
2052,2066,2065,2085,2132,2117,2064,2087
2051,2060,2073,2087,2115,2129,2075,2085
2042,2054,2062,2073,2086,2136,2060,2087
2035,2044,2050,2068,2071,2082,2027,2078
2034,2038,2053,2054,2057,2056,2029,2081
2034,2049,2058,2060,2050,2064,2029,2088
2037,2048,2056,2059,2030,2049,2022,2081
2041,2051,2056,2049,1987,2029,2020,2072
2048,2050,2056,2043,1972,2024,2030,2071
2045,2047,2050,2037,1947,2026,2041,2052
2041,2045,2043,2021,1933,2015,2026,2039
2040,2043,2042,2031,1972,2021,2037,2039
2043,2045,2046,2039,2010,2036,2064,2038
2045,2050,2052,2046,2018,2048,2044,2035
2045,2049,2048,2039,2006,2035,2032,2024
2035,2046,2041,2027,1985,2012,2028,2014
2039,2043,2045,2048,2036,2021,2015,2011
2033,2043,2049,2056,2063,2035,2047,2008
2039,2043,2052,2052,2036,2042,2038,2000
2038,2041,2043,2040,2001,2038,2016,1996
2030,2033,2039,2037,1993,2038,2028,1999
2032,2034,2047,2050,1991,2043,2033,2007
2044,2043,2053,2055,2030,2042,2039,2013
2044,2051,2059,2064,2075,2036,2049,2024
2048,2058,2066,2070,2107,2046,2040,2034
2058,2070,2069,2076,2096,2049,2040,2037
2056,2071,2063,2071,2097,2039,2019,2040
2052,2062,2067,2064,2084,2029,2030,2042
2047,2059,2068,2062,2076,2032,2029,2044
2042,2063,2065,2060,2061,2036,2047,2060
2042,2062,2074,2061,2037,2029,2057,2066
2046,2062,2068,2057,2010,2031,2056,2085
2040,2062,2068,2047,1982,2036,2040,2088
2049,2060,2071,2039,1966,2038,2033,2078
2044,2065,2051,2024,1962,2051,2029,2073
2035,2053,2043,2017,1964,2039,2033,2074
2036,2048,2049,2044,2027,2026,2045,2081
2043,2056,2057,2068,2091,2043,2061,2083
2050,2063,2060,2077,2127,2071,2039,2086
2054,2064,2060,2081,2136,2086,2036,2087
2047,2060,2056,2081,2125,2080,2052,2077
2053,2050,2052,2072,2104,2056,2062,2063
2055,2050,2051,2066,2092,2048,2059,2054
2054,2052,2056,2069,2079,2053,2061,2046
2052,2051,2056,2065,2068,2050,2054,2051
2058,2051,2058,2041,2042,2036,2076,2040
2060,2058,2054,2040,2028,2028,2060,2033
2056,2057,2055,2044,2037,2019,2056,2035
2056,2060,2052,2042,2046,2029,2045,2026
2054,2055,2059,2047,2038,2025,2050,2024
2063,2056,2061,2048,2042,2034,2036,2017
2067,2061,2056,2046,2047,2031,2020,2006
2053,2041,2044,2040,2058,2037,2053,2006
2048,2038,2048,2051,2065,2052,2062,2013
2056,2051,2054,2057,2069,2068,2066,2017
2055,2059,2056,2052,2072,2074,2082,2027
2045,2055,2053,2058,2069,2070,2044,2021
2052,2054,2055,2054,2054,2063,2052,2028
2049,2057,2057,2053,2039,2054,2057,2036
2049,2050,2053,2049,2021,2038,2057,2039
2050,2052,2051,2041,2009,2032,2060,2046
2047,2050,2052,2050,2036,2050,2064,2061
2050,2045,2050,2064,2064,2063,2044,2069
2048,2044,2052,2066,2071,2077,2046,2087
2053,2047,2048,2054,2054,2074,2044,2089
2045,2048,2046,2046,2051,2066,2041,2090
2048,2050,2047,2049,2057,2069,2050,2097
2045,2045,2053,2059,2067,2062,2040,2089
2035,2031,2040,2066,2129,2050,2021,2092
2036,2042,2036,2068,2145,2039,2021,2090
2044,2050,2052,2079,2131,2037,2030,2094
2048,2050,2058,2072,2100,2044,2059,2086
2046,2047,2054,2066,2066,2045,2054,2075
2046,2039,2047,2054,2037,2044,2050,2059
2036,2043,2043,2044,2011,2030,2045,2046
2041,2039,2044,2017,1919,2000,2035,2039
2037,2038,2042,2030,1941,2017,2032,2040
2041,2036,2041,2043,2002,2037,2036,2031
2045,2044,2041,2052,2070,2050,2038,2028
2042,2043,2039,2051,2076,2065,2047,2026
2038,2041,2032,2039,2060,2072,2039,2016
2040,2037,2032,2028,2047,2086,2061,2016
2041,2041,2041,2039,2059,2098,2065,2021
2043,2048,2046,2045,2061,2073,2064,2024
2038,2030,2042,2041,2081,2032,2071,2025
2044,2031,2041,2044,2089,2048,2072,2024
2052,2047,2051,2039,2055,2068,2081,2024
2050,2040,2051,2037,2072,2078,2076,2027
2050,2046,2052,2044,2099,2076,2074,2027
2046,2044,2049,2057,2109,2065,2052,2030
2043,2048,2055,2066,2138,2035,2046,2037
2050,2047,2054,2072,2127,2033,2061,2042
2047,2040,2051,2054,2068,2022,2051,2037
2043,2041,2044,2056,2049,2021,2014,2045
2036,2044,2037,2049,2011,2002,2023,2054
2037,2032,2034,2044,2009,1989,2026,2068
2036,2035,2030,2049,2015,2004,2026,2073
2045,2037,2025,2047,2028,2022,2041,2079
2035,2045,2030,2047,2037,2034,2044,2085
2040,2044,2031,2041,2034,2046,2044,2078
