CH1,CH2,CH3,CH4,CH5,CH6,CH7,CH8
2031,2032,2047,2072,2057,2036,2034,2015
2042,2047,2061,2081,2059,2049,2048,2028
2045,2050,2069,2083,2054,2050,2036,2029
2045,2051,2061,2071,2050,2055,2045,2035
2039,2050,2058,2057,2042,2052,2054,2037
2041,2055,2055,2059,2038,2054,2051,2052
2043,2056,2054,2046,2032,2054,2059,2064
2048,2056,2052,2027,2038,2058,2065,2074
2047,2057,2036,2016,2046,2062,2071,2079
2051,2049,2025,2006,2045,2062,2077,2075
2050,2052,2028,2002,2043,2055,2054,2075
2053,2059,2030,2006,2050,2060,2069,2081
2057,2062,2037,2017,2047,2055,2063,2082
2051,2055,2044,2016,2044,2054,2061,2076
2053,2049,2046,2010,2043,2053,2045,2074
2045,2042,2037,2008,2036,2045,2038,2065
2042,2041,2043,2014,2031,2050,2041,2068
2039,2051,2047,2027,2045,2059,2060,2081
2052,2056,2043,2033,2049,2059,2063,2073
2058,2050,2044,2031,2035,2049,2062,2074
2062,2057,2048,2037,2041,2054,2079,2070
2056,2053,2048,2039,2041,2053,2077,2067
2058,2057,2054,2039,2042,2057,2074,2064
2055,2060,2068,2041,2043,2053,2063,2051
2054,2065,2077,2053,2038,2056,2072,2050
2050,2058,2077,2054,2030,2053,2070,2044
2049,2051,2067,2058,2050,2057,2051,2029
2055,2055,2058,2059,2093,2059,2070,2027
2049,2047,2055,2057,2109,2060,2056,2019
2047,2050,2065,2061,2122,2062,2061,2021
2050,2054,2064,2068,2132,2062,2059,2013
2048,2051,2065,2070,2132,2051,2039,2011
2040,2035,2054,2060,2122,2039,2030,2003
2037,2037,2045,2060,2112,2042,2038,2016
2053,2054,2062,2065,2096,2042,2045,2020
2053,2051,2055,2062,2069,2045,2045,2026
2051,2054,2054,2055,1987,2030,2051,2029
2061,2055,2051,2038,1915,2019,2051,2041
2054,2052,2050,2030,1941,2028,2044,2049
2058,2057,2053,2036,1965,2031,2059,2056
2063,2058,2052,2036,1979,2031,2046,2062
2058,2058,2044,2029,1981,2033,2012,2062
2058,2049,2030,2023,1953,2035,2042,2065
2052,2043,2023,2014,1949,2032,2060,2069
2044,2038,2011,2017,1980,2041,2058,2077
2049,2042,2001,2026,1988,2035,2054,2085
2052,2048,2009,2033,1994,2035,2046,2095
2059,2054,2021,2039,2015,2037,2049,2092
2065,2049,2017,2046,2006,2023,2043,2080
2044,2037,2016,2055,2008,2031,2047,2075
2046,2035,2026,2082,2076,2068,2061,2084
2060,2055,2034,2088,2084,2062,2066,2083
2057,2050,2034,2061,2022,2044,2071,2081
2056,2056,2044,2059,2021,2045,2066,2084
2061,2058,2055,2060,1986,2041,2052,2081
2064,2066,2051,2053,1950,2037,2069,2074
2060,2057,2045,2044,1967,2034,2064,2069
2061,2059,2040,2037,1981,2037,2054,2059
2052,2055,2039,2040,2000,2038,2068,2053
2053,2056,2045,2035,1984,2040,2051,2042
2056,2055,2060,2022,1967,2037,2041,2035
2053,2056,2071,2020,1962,2042,2039,2037
2047,2056,2089,2015,1965,2044,2045,2028
2048,2055,2096,2006,1974,2046,2048,2020
2044,2053,2093,1996,2022,2051,2049,2013
2044,2042,2078,2004,2077,2054,2034,2003
2036,2029,2055,2014,2093,2057,2036,2007
2040,2038,2057,2031,2109,2044,2052,2024
2047,2042,2058,2040,2118,2031,2041,2037
2048,2044,2057,2047,2119,2045,2063,2043
2050,2048,2056,2046,2115,2058,2060,2041
2056,2054,2062,2042,2114,2062,2057,2040
2052,2054,2065,2040,2107,2049,2045,2058
2044,2049,2070,2043,2062,2039,2063,2062
2045,2052,2072,2050,2053,2040,2043,2066
2045,2050,2063,2052,2056,2042,2052,2073
2049,2054,2058,2062,2061,2048,2058,2076
2052,2056,2055,2060,2072,2049,2070,2076
2053,2049,2058,2054,2074,2051,2062,2082
2051,2053,2060,2052,2076,2052,2056,2082
2052,2049,2065,2048,2077,2053,2052,2084
2055,2051,2069,2045,2064,2046,2051,2082
2050,2043,2062,2039,2059,2028,2042,2076
2045,2032,2052,2040,2056,2028,2045,2079
2053,2048,2061,2052,2068,2042,2046,2080
2056,2053,2058,2049,2071,2040,2032,2081
2058,2051,2059,2053,2074,2040,2030,2076
2061,2044,2055,2046,2071,2046,2056,2070
2060,2049,2056,2050,2071,2047,2049,2066
2055,2047,2047,2053,2071,2050,2065,2063
2055,2044,2042,2044,2054,2050,2060,2051
2044,2045,2044,2042,2045,2047,2058,2054
2044,2046,2042,2040,2044,2058,2048,2045
2052,2044,2043,2041,2046,2059,2038,2042
2052,2046,2043,2049,2057,2059,2044,2032
2049,2038,2039,2045,2061,2066,2040,2031
2048,2043,2039,2050,2065,2067,2064,2029
2045,2046,2041,2047,2064,2067,2073,2027
2046,2042,2041,2052,2057,2056,2057,2024
2037,2027,2020,2038,2043,2048,2052,2018
2036,2019,2028,2040,2046,2050,2055,2023
2045,2038,2040,2047,2052,2061,2055,2036
2042,2039,2037,2045,2046,2063,2040,2041
2043,2044,2050,2039,2042,2055,2051,2051
2051,2050,2060,2046,2034,2049,2048,2051
2052,2054,2060,2052,2022,2032,2043,2052
2051,2051,2071,2069,2017,2033,2039,2062
2051,2053,2080,2091,2030,2037,2049,2066
2050,2051,2066,2091,2031,2028,2043,2067
2051,2048,2060,2088,2039,2026,2043,2074
2058,2054,2064,2085,2061,2029,2040,2079
2056,2060,2054,2086,2064,2045,2053,2088
2059,2059,2045,2080,2061,2046,2042,2080
2051,2051,2025,2072,2065,2044,2060,2083
2057,2051,2034,2070,2066,2049,2043,2084
2054,2042,2035,2062,2059,2043,2047,2069
2041,2030,2015,2046,2057,2040,2049,2072
2036,2028,2022,2047,2079,2052,2056,2083
2055,2051,2032,2043,2083,2056,2060,2082
2054,2050,2031,2036,2075,2054,2040,2080
2050,2044,2039,2025,2060,2050,2051,2078
2055,2047,2044,2017,2058,2039,2062,2070
2048,2051,2055,2020,2050,2039,2049,2065
2052,2055,2060,2026,2050,2046,2058,2062
2048,2067,2068,2036,2058,2052,2064,2059
2049,2064,2076,2041,2063,2049,2048,2059
2058,2063,2080,2038,2061,2053,2050,2052
2059,2062,2074,2045,2057,2054,2042,2045
2056,2056,2067,2045,2064,2054,2037,2038
2057,2060,2054,2044,2060,2052,2046,2034
2050,2063,2055,2039,2065,2049,2041,2029
2051,2057,2048,2033,2067,2053,2036,2032
2048,2039,2036,2026,2050,2043,2020,2018
2037,2026,2031,2035,2044,2040,2036,2013
2049,2048,2042,2041,2050,2042,2033,2031
2046,2046,2036,2038,2054,2045,2056,2031
2045,2050,2032,2040,2050,2043,2052,2036
2041,2042,2025,2037,2045,2042,2030,2037
2038,2031,2021,2035,2038,2042,2054,2046
2038,2031,2030,2036,2050,2049,2040,2047
2044,2040,2028,2041,2054,2053,2047,2056
2041,2044,2029,2041,2052,2061,2048,2066
2043,2047,2028,2045,2061,2063,2051,2066
2041,2051,2028,2047,2055,2061,2023,2067
2045,2050,2025,2041,2052,2057,2022,2062
2047,2044,2029,2033,2053,2057,2007,2064
2044,2042,2028,2044,2052,2054,2020,2066
2043,2040,2047,2052,2048,2042,2006,2067
2042,2044,2061,2058,2049,2029,1998,2056
2030,2032,2045,2040,2040,2022,2011,2062
2027,2032,2041,2047,2042,2029,2031,2071
2041,2044,2058,2064,2057,2054,2028,2073
2055,2052,2060,2072,2053,2052,2044,2078
2052,2057,2058,2066,2057,2046,2048,2077
2057,2059,2052,2065,2054,2047,2032,2075
2058,2066,2064,2074,2056,2045,2030,2069
2067,2074,2072,2075,2055,2044,2037,2068
2063,2071,2079,2079,2056,2043,2036,2062
2060,2064,2070,2073,2059,2043,2050,2058
2059,2066,2068,2065,2064,2049,2054,2044
2058,2063,2058,2057,2061,2053,2047,2046
2057,2062,2056,2055,2054,2058,2045,2034
2051,2059,2047,2040,2056,2055,2050,2036
2047,2058,2040,2035,2047,2052,2027,2032
2053,2055,2033,2027,2038,2052,2040,2030
2052,2052,2037,2024,2028,2048,2039,2022
2036,2038,2026,2020,2017,2037,2045,2019
2037,2036,2032,2022,2011,2033,2036,2028
2050,2060,2049,2033,2012,2033,2050,2038
2055,2060,2046,2035,2036,2036,2048,2038
2055,2058,2042,2043,2044,2033,2046,2049
2056,2064,2059,2048,2046,2036,2033,2056
2056,2056,2055,2046,2041,2040,2055,2057
2056,2056,2050,2047,2048,2043,2041,2063
2057,2059,2051,2053,2051,2052,2039,2069
2051,2052,2048,2054,2058,2059,2051,2071
2049,2053,2054,2062,2070,2059,2061,2073
2050,2057,2059,2062,2066,2059,2060,2080
2050,2061,2056,2058,2063,2054,2041,2082
2054,2054,2046,2050,2053,2050,2035,2079
2054,2054,2040,2047,2053,2051,2042,2083
2056,2051,2047,2048,2046,2046,2043,2082
2056,2051,2047,2050,2040,2032,2033,2075
2042,2044,2049,2053,2037,2031,2029,2072
2034,2041,2056,2061,2040,2057,2049,2081
2054,2057,2065,2064,2043,2062,2054,2077
2053,2052,2061,2067,2037,2058,2049,2075
2050,2054,2056,2064,2031,2058,2047,2061
2049,2051,2057,2065,2026,2039,2032,2067
2056,2059,2061,2072,2040,2010,2048,2068
2051,2061,2064,2079,2049,2011,2048,2069
2062,2065,2061,2078,2046,2031,2043,2055
2054,2064,2053,2088,2072,2050,2038,2039
2053,2062,2045,2094,2092,2058,2042,2036
2053,2057,2046,2084,2117,2059,2034,2028
2049,2060,2044,2072,2124,2056,2019,2027
2039,2054,2030,2054,2125,2047,2023,2023
2037,2043,2021,2048,2130,2057,2030,2023
2032,2037,2007,2033,2133,2058,2036,2019
2020,2025,1989,2026,2111,2048,2024,2014
2022,2027,1996,2035,2109,2051,2018,2021
2038,2049,2027,2054,2097,2064,2054,2033
2047,2054,2031,2063,2068,2058,2050,2040
2038,2054,2043,2055,2008,2048,2040,2049
2048,2053,2039,2048,1915,2036,2026,2055
2050,2054,2034,2052,1966,2039,2046,2056
2047,2053,2044,2059,2023,2047,2042,2065
2044,2051,2032,2055,2028,2040,2035,2067
2043,2046,2021,2046,2041,2049,2051,2070
2043,2040,2025,2049,2044,2055,2050,2079
2047,2049,2032,2058,2050,2061,2053,2083
2042,2043,2030,2062,2077,2062,2050,2082
2043,2045,2028,2058,2066,2057,2049,2079
2048,2038,2021,2051,2024,2041,2046,2083
2046,2039,2014,2044,2027,2048,2052,2088
2049,2048,2017,2051,2034,2047,2050,2081
2041,2032,2005,2039,2001,2031,2026,2075
2029,2033,2009,2035,2013,2034,2024,2082
2045,2044,2031,2028,2008,2045,2029,2085
2046,2047,2045,2025,1971,2042,2044,2081
2052,2061,2077,2026,1987,2058,2029,2077
2055,2072,2100,2033,1991,2072,2049,2073
2058,2078,2105,2037,2000,2079,2062,2069
2059,2074,2086,2034,1991,2068,2046,2065
2055,2074,2071,2035,1990,2045,2042,2064
2053,2064,2060,2036,2018,2023,2034,2067
2053,2061,2059,2044,2068,2027,2044,2061
2049,2063,2059,2054,2094,2038,2050,2054
2050,2058,2059,2054,2088,2055,2047,2046
2049,2058,2067,2053,2077,2064,2041,2037
2051,2066,2072,2050,2066,2065,2045,2037
2048,2064,2073,2044,2059,2049,2048,2035
2040,2062,2059,2042,2032,2026,2002,2018
2033,2044,2046,2028,2000,2007,2011,2018
2031,2040,2042,2034,1986,2008,2025,2031
2047,2059,2065,2031,1982,1999,2011,2035
2047,2052,2062,2031,1970,1998,2026,2038
2050,2058,2074,2043,1991,2018,2029,2052
2051,2058,2078,2051,2034,2034,2045,2056
2051,2061,2064,2052,2061,2047,2050,2063
2044,2054,2057,2053,2101,2068,2036,2068
2049,2051,2054,2054,2101,2068,2024,2074
2044,2050,2050,2038,2050,2058,2032,2072
2050,2054,2047,2032,2005,2053,2052,2073
2051,2053,2047,2030,1990,2046,2041,2074
2054,2060,2048,2035,1996,2056,2042,2079
2054,2056,2046,2036,1995,2052,2075,2082
2053,2055,2045,2041,2000,2052,2068,2080
2052,2057,2048,2038,2002,2051,2058,2088
2048,2051,2042,2032,2005,2040,2043,2075
2038,2037,2033,2037,2020,2038,2028,2068
2037,2045,2043,2049,2034,2058,2061,2076
2050,2058,2059,2059,2056,2063,2066,2074
2053,2052,2060,2069,2094,2064,2065,2074
2047,2045,2060,2072,2132,2069,2046,2063
2049,2043,2055,2073,2151,2077,2043,2061
2054,2051,2056,2080,2134,2074,2067,2064
2047,2051,2057,2073,2112,2062,2065,2054
2048,2046,2044,2071,2097,2062,2061,2050
2050,2043,2030,2077,2079,2060,2062,2045
2048,2045,2022,2075,2070,2056,2044,2038
2041,2040,2009,2071,2049,2043,2054,2032
2039,2036,2010,2057,2047,2038,2059,2016
2040,2036,2003,2057,2060,2041,2047,2020
2037,2031,2002,2048,2072,2046,2020,2019
2036,2033,2007,2048,2070,2048,2034,2006
2026,2017,1994,2028,2067,2038,2008,2004
2021,2009,1993,2023,2064,2038,2020,2013
2035,2027,2000,2022,2074,2054,2044,2018
2036,2026,2003,2029,2070,2052,2048,2029
2045,2031,2010,2026,2060,2055,2046,2034
2045,2036,2015,2029,2054,2054,2045,2040
2052,2046,2019,2029,2043,2047,2061,2049
2056,2050,2033,2030,2034,2044,2060,2057
2056,2058,2066,2038,2022,2043,2052,2069
2054,2070,2096,2044,2032,2044,2049,2070
2052,2060,2088,2043,2032,2052,2045,2080
2051,2056,2071,2044,2032,2052,2052,2078
2052,2059,2072,2046,2029,2057,2060,2082
2049,2058,2068,2049,2033,2059,2067,2090
2048,2062,2074,2051,2039,2056,2078,2088
2051,2067,2076,2050,2041,2055,2063,2087
2049,2060,2068,2042,2046,2042,2050,2086
2038,2042,2060,2035,2055,2039,2033,2082
2034,2040,2055,2033,2058,2041,2045,2077
2049,2054,2066,2025,2053,2030,2046,2079
2054,2054,2068,2032,2062,2034,2051,2082
2050,2054,2073,2053,2077,2040,2059,2081
2050,2059,2077,2059,2082,2045,2047,2077
2049,2057,2067,2059,2069,2051,2046,2075
2050,2060,2069,2057,2068,2048,2067,2067
2054,2063,2066,2059,2069,2043,2056,2061
2054,2052,2061,2056,2061,2036,2049,2047
2050,2050,2060,2054,2052,2036,2028,2041
2050,2053,2059,2052,2056,2045,2046,2038
2049,2046,2062,2055,2068,2052,2052,2024
2045,2049,2053,2054,2062,2053,2052,2025
2045,2047,2054,2055,2060,2058,2035,2023
2043,2043,2057,2059,2068,2062,2030,2017
2035,2030,2054,2050,2047,2055,2018,2008
2033,2030,2053,2043,2021,2053,2033,2013
2041,2037,2065,2057,2024,2056,2038,2028
2043,2047,2065,2060,2034,2053,2057,2033
2050,2051,2060,2066,2036,2049,2071,2039
2045,2051,2067,2068,2028,2037,2043,2048
2051,2053,2080,2072,2033,2041,2054,2054
2053,2046,2079,2074,2041,2046,2054,2063
2050,2052,2075,2076,2039,2051,2043,2071
2059,2043,2065,2076,2041,2052,2040,2079
2056,2047,2068,2076,2063,2056,2043,2083
2062,2053,2065,2070,2070,2053,2045,2080
2060,2060,2051,2064,2073,2053,2043,2086
2055,2056,2046,2054,2061,2043,2059,2080
2053,2046,2047,2047,2063,2040,2060,2081
2057,2051,2054,2057,2063,2039,2053,2078
2051,2043,2041,2046,2052,2032,2025,2071
2036,2025,2034,2038,2041,2033,2033,2069
2043,2035,2054,2051,2051,2044,2060,2072
2051,2046,2053,2051,2046,2049,2058,2076
2052,2043,2050,2044,2041,2041,2064,2067
2053,2047,2045,2034,2025,2046,2048,2067
2057,2042,2047,2041,2022,2044,2033,2060
2054,2048,2059,2052,2028,2050,2038,2062
2057,2050,2066,2056,2046,2051,2064,2059
2063,2053,2068,2060,2063,2056,2070,2057
2056,2050,2069,2060,2059,2054,2064,2051
2048,2053,2069,2056,2045,2044,2060,2041
2055,2049,2060,2043,2035,2039,2062,2032
2045,2045,2053,2032,2033,2044,2050,2029
2047,2047,2050,2032,2035,2032,2051,2032
2047,2048,2057,2037,2040,2030,2050,2031
2047,2048,2056,2034,2033,2024,2047,2019
2042,2035,2036,2020,2030,2018,2048,2020
2037,2032,2039,2022,2040,2033,2064,2022
2050,2053,2056,2036,2050,2044,2050,2034
2055,2056,2058,2036,2038,2064,2056,2047
2062,2056,2057,2042,2052,2075,2078,2049
2061,2054,2051,2038,2052,2067,2073,2055
2056,2054,2050,2037,2040,2070,2064,2061
2054,2052,2054,2043,2042,2057,2064,2069
2060,2054,2058,2052,2045,2018,2041,2077
2060,2059,2062,2058,2053,2015,2066,2077
2062,2057,2062,2058,2060,2043,2066,2082
2058,2050,2059,2048,2042,2042,2070,2076
2051,2039,2049,2031,1991,2041,2080,2075
2050,2037,2048,2041,2016,2055,2043,2067
2045,2038,2041,2046,2058,2055,2032,2070
2055,2042,2042,2056,2071,2055,2034,2067
2043,2031,2036,2042,2059,2038,2050,2060
2043,2027,2035,2043,2061,2039,2060,2067
2050,2042,2048,2064,2075,2055,2064,2070
2049,2050,2050,2062,2074,2060,2057,2065
2052,2046,2054,2064,2068,2050,2045,2071
2054,2044,2053,2054,2062,2047,2056,2068
2058,2047,2052,2056,2054,2043,2058,2059
2052,2052,2049,2061,2051,2045,2070,2059
2055,2049,2047,2058,2052,2051,2065,2052
2053,2045,2043,2059,2057,2053,2046,2049
2050,2045,2044,2058,2070,2056,2040,2041
2049,2040,2040,2056,2073,2056,2055,2033
2052,2038,2033,2050,2074,2052,2055,2024
2043,2035,2030,2055,2064,2053,2039,2022
2046,2032,2026,2047,2059,2051,2039,2017
2042,2032,2027,2048,2052,2046,2051,2015
2044,2026,2013,2033,2034,2029,2027,2005
2028,2015,2011,2030,2030,2024,2022,2004
2031,2018,2020,2039,2039,2038,2024,2015
2044,2031,2026,2039,2040,2041,2023,2022
2042,2035,2027,2039,2039,2045,2039,2027
2053,2039,2027,2037,2040,2042,2024,2038
2048,2040,2024,2034,2039,2040,2028,2042
2058,2048,2036,2037,2043,2042,2027,2056
2054,2053,2051,2041,2040,2045,2028,2063
2057,2055,2061,2050,2034,2045,2029,2066
2062,2062,2060,2042,2043,2048,2040,2070
2062,2062,2062,2041,2053,2045,2066,2064
2062,2064,2060,2045,2065,2052,2046,2072
2063,2067,2054,2049,2065,2050,2045,2069
2059,2056,2051,2041,2048,2052,2052,2074
2059,2052,2056,2041,2046,2052,2052,2075
2058,2052,2057,2042,2037,2036,2030,2066
2044,2041,2056,2043,2030,2037,2041,2064
2042,2047,2067,2049,2044,2049,2047,2069
2055,2056,2066,2052,2047,2052,2057,2067
2056,2055,2058,2050,2046,2052,2060,2067
2054,2056,2057,2050,2044,2052,2030,2063
2052,2061,2065,2051,2045,2052,2047,2056
2065,2070,2079,2052,2050,2053,2044,2056
2062,2072,2092,2059,2056,2053,2046,2052
2057,2072,2094,2068,2062,2053,2043,2048
2062,2074,2087,2064,2064,2054,2033,2042
2058,2063,2070,2061,2061,2049,2027,2030
2051,2062,2064,2060,2055,2052,2028,2015
2047,2054,2052,2064,2060,2057,2018,2011
2042,2054,2046,2061,2054,2056,2044,2003
2041,2047,2037,2060,2057,2058,2041,2004
2044,2039,2033,2051,2047,2047,2012,1998
2027,2022,2014,2041,2047,2036,2021,1992
2029,2015,2010,2047,2053,2047,2033,2009
2039,2038,2018,2058,2050,2051,2032,2014
2047,2037,2026,2060,2049,2056,2026,2026
2062,2036,2032,2056,2042,2060,2020,2028
2051,2041,2028,2052,2049,2060,2026,2033
2052,2042,2038,2053,2040,2057,2037,2044
2047,2046,2045,2049,2042,2052,2047,2051
2053,2051,2060,2049,2048,2053,2034,2057
2056,2047,2065,2047,2045,2061,2045,2059
2060,2049,2071,2057,2037,2058,2041,2063
2057,2050,2071,2058,2042,2053,2042,2056
2056,2051,2066,2052,2038,2047,2051,2066
2051,2043,2064,2048,2040,2049,2045,2064
2052,2042,2063,2050,2045,2051,2043,2066
2056,2039,2061,2048,2041,2047,2033,2056
2036,2025,2043,2035,2025,2037,2044,2054
2045,2025,2051,2044,2035,2042,2034,2068
2060,2047,2077,2058,2045,2053,2073,2070
2058,2056,2079,2065,2052,2054,2038,2062
2063,2058,2078,2066,2052,2059,2041,2062
2062,2051,2076,2066,2049,2057,2045,2058
2062,2047,2072,2084,2056,2057,2060,2053
2053,2044,2060,2083,2056,2051,2026,2049
2049,2037,2052,2087,2059,2050,2046,2041
2056,2038,2050,2091,2061,2055,2047,2038
2054,2036,2046,2087,2060,2059,2043,2032
2048,2034,2041,2085,2053,2059,2053,2025
2048,2032,2042,2082,2053,2054,2058,2019
2051,2028,2034,2079,2057,2056,2074,2012
2046,2032,2035,2081,2050,2058,2033,2014
2046,2031,2037,2071,2054,2059,2042,2011
2051,2032,2029,2063,2048,2052,2026,1996
2036,2020,2025,2054,2040,2050,2028,1995
2024,2017,2022,2040,2043,2058,2030,2013
2042,2035,2024,2018,2035,2058,2031,2004
2046,2038,2031,2008,2037,2057,2026,2017
2053,2044,2055,2007,2035,2049,2027,2026
2054,2046,2062,2005,2032,2049,2027,2031
2062,2049,2062,2002,2032,2048,2047,2042
2057,2056,2074,2020,2043,2053,2050,2047
2072,2070,2080,2039,2048,2056,2042,2054
2072,2066,2069,2046,2050,2044,2061,2056
2064,2056,2057,2042,2044,2035,2051,2058
2059,2047,2049,2039,2038,2036,2034,2056
2058,2049,2055,2046,2043,2035,2030,2058
2052,2050,2059,2048,2044,2038,2036,2059
2051,2049,2065,2049,2042,2041,2048,2058
2049,2044,2056,2052,2042,2038,2043,2060
2037,2030,2044,2045,2037,2027,2041,2053
2045,2032,2043,2045,2037,2035,2045,2063
2055,2052,2051,2053,2057,2046,2048,2058
2056,2047,2053,2052,2052,2046,2038,2063
2056,2047,2049,2053,2055,2049,2058,2051
2054,2045,2058,2048,2056,2046,2048,2048
2051,2043,2061,2052,2057,2051,2050,2045
2054,2042,2061,2052,2052,2049,2032,2041
2054,2045,2070,2053,2053,2047,2012,2029
2052,2044,2067,2051,2058,2043,2023,2028
2053,2048,2065,2053,2059,2046,2035,2026
2055,2047,2060,2053,2056,2049,2036,2015
2056,2056,2068,2052,2057,2048,2046,2013
2064,2053,2064,2049,2058,2053,2047,2006
2064,2051,2060,2056,2059,2048,2063,2002
2060,2046,2060,2060,2061,2041,2063,2010
2054,2037,2048,2051,2040,2032,2050,1998
2046,2024,2049,2043,2043,2030,2047,1998
2051,2039,2059,2056,2048,2029,2056,2009
2057,2044,2066,2062,2045,2031,2066,2012
2054,2039,2052,2052,2046,2032,2061,2010
2053,2038,2047,2061,2053,2037,2052,2025
2056,2038,2061,2072,2054,2037,2056,2028
2045,2036,2057,2076,2049,2037,2046,2037
2044,2034,2056,2069,2051,2040,2064,2046
2050,2034,2050,2072,2057,2044,2048,2044
2049,2026,2052,2081,2054,2048,2047,2055
2050,2029,2052,2078,2049,2048,2033,2050
2050,2022,2045,2081,2050,2041,2045,2053
2050,2024,2057,2075,2043,2046,2030,2054
2050,2031,2050,2081,2038,2049,2051,2062
2055,2032,2053,2082,2025,2054,2059,2062
2059,2035,2040,2075,2032,2043,2048,2057
2043,2025,2024,2066,2046,2030,2033,2052
2043,2018,2016,2060,2045,2034,2045,2056
2057,2041,2017,2047,2044,2031,2049,2061
2061,2040,2019,2037,2054,2044,2058,2065
2062,2050,2038,2035,2084,2064,2059,2066
2068,2061,2053,2036,2139,2084,2064,2064
2064,2058,2057,2030,2130,2091,2081,2057
2064,2056,2066,2035,2130,2081,2066,2049
2059,2051,2054,2024,2117,2061,2065,2033
2054,2041,2033,1995,2066,2052,2056,2031
2053,2046,2044,1999,2008,2045,2059,2028
2053,2064,2074,2016,1991,2045,2066,2023
2063,2072,2081,2030,1992,2038,2060,2018
2057,2064,2071,2024,1969,2030,2055,2015
2055,2051,2055,2020,1926,2016,2062,2009
2054,2037,2041,2005,1850,1994,2046,1999
2043,2025,2029,1988,1850,1978,2037,1993
2036,2022,2027,1998,1921,1992,2035,2009
2046,2040,2043,2023,1992,2015,2057,2015
2055,2048,2047,2032,2053,2016,2052,2012
2056,2047,2046,2040,2104,2017,2046,2028
2051,2047,2048,2046,2123,2029,2052,2030
2064,2053,2049,2053,2113,2039,2051,2040
2067,2052,2044,2055,2092,2040,2053,2040
2058,2052,2042,2049,2074,2039,2056,2051
2056,2045,2043,2048,2062,2035,2055,2048
2060,2045,2041,2043,2054,2038,2054,2052
2054,2046,2043,2042,2045,2038,2058,2055
2056,2039,2038,2042,2040,2034,2064,2057
2053,2030,2034,2037,2028,2037,2061,2049
2049,2028,2035,2037,2029,2035,2050,2050
2046,2027,2036,2033,2028,2036,2031,2049
2043,2027,2032,2020,2029,2029,2034,2040
2038,2020,2025,2025,2034,2035,2047,2038
2036,2036,2034,2030,2036,2064,2062,2043
2049,2037,2037,2036,2017,2064,2064,2051
2048,2036,2036,2030,2011,2060,2060,2046
2047,2038,2034,2027,2000,2046,2058,2047
2056,2039,2039,2029,2011,2018,2038,2053
2055,2044,2038,2043,2042,2013,2059,2050
2059,2046,2033,2055,2067,2030,2069,2046
2058,2045,2029,2052,2076,2049,2074,2029
2052,2041,2022,2056,2075,2063,2070,2027
2052,2044,2017,2045,2070,2048,2064,2024
2050,2047,2012,2044,2076,2043,2066,2017
2052,2037,2008,2036,2071,2046,2052,2007
2056,2038,2009,2038,2067,2044,2058,2005
2054,2041,2010,2039,2060,2039,2047,1997
2051,2031,2006,2034,2056,2035,2045,1985
2039,2022,2003,2030,2054,2033,2027,1985
2037,2026,2012,2039,2067,2047,2026,1998
2056,2036,2017,2040,2065,2043,2037,2001
2049,2039,2022,2044,2070,2042,2053,2010
2050,2036,2029,2048,2066,2042,2052,2022
2052,2040,2037,2043,2052,2043,2052,2027
2051,2047,2053,2048,2029,2045,2058,2035
2059,2054,2071,2050,2016,2049,2059,2043
2065,2059,2080,2047,2024,2047,2065,2047
2062,2056,2086,2050,2044,2047,2051,2052
2061,2056,2081,2054,2055,2052,2053,2046
2056,2052,2071,2057,2053,2053,2061,2051
2060,2054,2070,2053,2050,2051,2053,2052
2060,2047,2069,2048,2047,2058,2064,2056
2061,2048,2064,2044,2056,2059,2051,2057
2059,2047,2060,2032,2042,2046,2048,2048
2047,2030,2049,2027,2040,2038,2033,2048
2045,2026,2051,2026,2050,2049,2030,2058
2056,2047,2057,2031,2052,2056,2025,2053
2065,2052,2049,2028,2056,2050,2020,2051
2069,2053,2046,2024,2045,2036,2012,2054
2063,2051,2053,2030,2046,2034,2049,2049
2068,2057,2057,2038,2046,2044,2049,2044
2065,2060,2053,2040,2051,2046,2048,2042
2065,2062,2052,2033,2052,2045,2050,2035
2058,2056,2050,2040,2051,2047,2049,2031
2061,2053,2049,2038,2051,2050,2037,2024
2055,2051,2043,2039,2057,2049,2032,2010
2056,2051,2050,2041,2057,2042,2038,2006
2053,2046,2046,2039,2052,2045,2033,2003
2051,2036,2045,2034,2058,2045,2039,1996
2052,2039,2043,2032,2058,2040,2041,1984
2028,2016,2028,2027,2036,2036,2043,1987
2031,2018,2026,2032,2045,2044,2051,2007
2047,2038,2040,2042,2044,2044,2064,2013
2051,2034,2040,2044,2052,2049,2062,2018
2049,2036,2038,2044,2053,2047,2055,2021
2051,2036,2035,2039,2055,2048,2069,2029
2053,2037,2027,2040,2056,2047,2077,2042
2051,2047,2033,2045,2062,2052,2073,2046
2052,2051,2033,2045,2065,2054,2065,2048
2055,2051,2036,2047,2062,2055,2069,2049
2054,2043,2030,2048,2058,2052,2058,2045
2056,2044,2033,2047,2058,2051,2043,2049
2048,2044,2032,2050,2049,2040,2053,2040
2048,2040,2035,2041,2046,2030,2044,2047
2045,2038,2031,2036,2047,2030,2048,2050
2046,2033,2028,2037,2040,2033,2041,2047
2040,2020,2008,2027,2033,2026,2024,2044
2038,2014,2002,2024,2036,2024,2037,2053
2049,2034,2028,2043,2044,2029,2053,2051
2053,2040,2043,2054,2053,2029,2054,2054
2051,2045,2053,2058,2051,2029,2061,2044
2052,2041,2057,2052,2048,2030,2061,2039
2057,2042,2046,2048,2056,2028,2055,2041
2054,2036,2047,2044,2054,2034,2053,2028
2049,2042,2056,2046,2044,2033,2057,2025
2053,2045,2067,2046,2048,2038,2042,2024
2055,2049,2065,2049,2052,2037,2056,2012
2051,2052,2062,2054,2056,2039,2061,2003
2053,2050,2062,2061,2063,2040,2046,1992
2050,2042,2058,2057,2056,2038,2043,1985
2046,2045,2051,2056,2056,2039,2045,1984
2051,2044,2049,2051,2054,2038,2040,1980
2041,2029,2037,2036,2036,2022,2031,1977
2034,2024,2036,2039,2036,2021,2031,1981
2046,2041,2051,2049,2047,2034,2048,1987
2050,2038,2057,2047,2047,2036,2047,1996
2054,2043,2058,2061,2048,2039,2038,2002
2058,2039,2061,2068,2045,2039,2029,2008
2056,2039,2067,2069,2043,2034,2034,2010
2053,2036,2061,2069,2043,2036,2042,2014
2054,2036,2067,2069,2049,2036,2035,2022
2060,2041,2055,2072,2041,2034,2030,2023
2057,2036,2048,2063,2049,2034,2041,2024
2051,2033,2041,2055,2046,2037,2032,2030
2051,2034,2033,2053,2036,2031,2052,2032
2051,2033,2028,2050,2034,2025,2049,2027
2048,2036,2024,2052,2033,2028,2042,2027
2048,2033,2018,2056,2035,2031,2044,2027
2046,2023,2010,2039,2029,2023,2018,2017
2037,2016,1997,2029,2032,2026,2030,2021
2037,2024,2009,2036,2040,2041,2048,2033
2051,2038,2017,2030,2051,2048,2067,2030
2055,2043,2016,2031,2050,2046,2074,2036
2054,2048,2012,2029,2053,2046,2068,2030
2054,2041,2015,2032,2054,2052,2074,2022
2056,2041,2029,2042,2056,2055,2054,2024
2056,2047,2033,2050,2061,2049,2058,2018
2048,2038,2032,2042,2055,2049,2051,2010
2047,2033,2026,2038,2050,2045,2050,2001
2051,2032,2034,2035,2054,2045,2052,1994
2048,2035,2044,2041,2055,2045,2045,1985
2054,2042,2049,2035,2061,2044,2052,1984
2053,2049,2047,2032,2058,2044,2031,1983
2049,2047,2050,2028,2055,2040,2023,1978
2053,2038,2043,2025,2047,2033,2018,1964
2043,2022,2029,2023,2047,2023,2009,1967
2045,2035,2047,2036,2060,2037,2039,1984
2061,2051,2065,2040,2057,2037,2021,1987
2059,2058,2069,2045,2048,2034,2018,1993
2061,2058,2074,2048,2051,2032,2029,1995
2058,2054,2067,2048,2044,2033,2041,2005
2062,2051,2054,2048,2052,2036,2052,2016
2063,2051,2053,2045,2059,2041,2057,2019
2066,2053,2049,2046,2058,2043,2050,2025
2064,2051,2048,2047,2057,2046,2049,2031
2061,2047,2047,2046,2054,2044,2037,2031
2062,2048,2045,2049,2059,2047,2052,2034
2056,2046,2050,2049,2050,2045,2031,2035
2059,2043,2049,2050,2048,2038,2052,2035
2058,2045,2050,2048,2048,2040,2043,2038
2055,2043,2051,2046,2048,2031,2033,2024
2046,2029,2040,2043,2036,2031,2030,2020
2042,2024,2044,2046,2047,2042,2062,2023
2061,2047,2050,2055,2050,2052,2085,2034
2059,2047,2044,2054,2049,2048,2058,2027
2057,2047,2052,2057,2050,2050,2033,2017
2060,2047,2046,2057,2046,2042,2030,2017
2052,2050,2046,2053,2048,2045,2050,2015
2061,2042,2044,2056,2053,2046,2052,2019
2066,2051,2041,2058,2057,2046,2070,2010
2064,2050,2038,2058,2055,2041,2064,2014
2057,2053,2040,2058,2054,2042,2062,1999
2061,2050,2035,2057,2056,2038,2060,1993
2060,2050,2023,2051,2051,2034,2045,1986
2051,2042,2019,2044,2047,2031,2050,1976
2050,2042,2019,2036,2050,2042,2054,1977
2052,2043,2025,2038,2045,2039,2044,1969
2036,2024,2016,2022,2043,2039,2041,1967
2040,2023,2023,2031,2038,2049,2045,1976
2055,2041,2039,2045,2039,2058,2029,1982
2052,2043,2044,2046,2042,2064,2047,1989
2055,2045,2038,2050,2045,2083,2053,1998
2059,2045,2038,2057,2051,2093,2059,2002
2054,2052,2043,2055,2049,2093,2046,2003
2045,2039,2047,2049,2046,2084,2062,2006
2044,2034,2043,2053,2045,2084,2039,2013
2046,2038,2050,2054,2052,2064,2032,2011
2043,2041,2047,2054,2047,2025,2034,2011
2045,2049,2040,2054,2048,2012,2051,2023
2048,2045,2038,2055,2043,2022,2050,2024
2045,2039,2040,2052,2044,2038,2055,2031
2056,2043,2040,2055,2050,2049,2043,2029
2062,2056,2043,2055,2060,2050,2050,2027
2047,2036,2037,2049,2052,2044,2061,2017
2041,2040,2040,2042,2058,2050,2054,2033
2054,2060,2050,2059,2068,2054,2046,2034
2065,2054,2047,2060,2059,2047,2038,2031
2063,2056,2050,2061,2054,2044,2053,2023
2059,2057,2049,2060,2052,2041,2057,2025
2051,2052,2047,2062,2050,2033,2067,2017
2058,2046,2049,2058,2054,2036,2057,2017
2057,2052,2053,2056,2053,2041,2055,2017
2051,2046,2056,2056,2058,2042,2067,2010
2056,2052,2051,2059,2056,2048,2062,2000
2064,2054,2054,2056,2060,2047,2063,1996
2056,2049,2046,2054,2058,2051,2058,1984
2060,2048,2045,2054,2060,2047,2062,1994
2058,2047,2047,2056,2057,2055,2054,1986
2057,2039,2051,2054,2053,2057,2067,1974
2037,2028,2034,2043,2040,2049,2049,1971
2045,2027,2035,2042,2039,2049,2043,1983
2054,2043,2046,2053,2047,2056,2038,1995
2057,2051,2049,2053,2044,2060,2057,1992
2055,2049,2047,2044,2038,2054,2067,1999
2051,2049,2047,2049,2036,2051,2066,2001
2056,2050,2045,2054,2035,2057,2061,2008
2053,2054,2050,2052,2044,2051,2062,2022
2064,2057,2051,2052,2040,2047,2043,2032
2050,2052,2050,2053,2048,2041,2062,2030
2061,2046,2046,2054,2048,2059,2074,2037
2056,2052,2044,2054,2049,2060,2074,2034
2062,2044,2041,2049,2052,2065,2071,2028
2053,2043,2038,2053,2046,2066,2061,2035
2051,2043,2041,2051,2043,2061,2067,2035
2050,2045,2040,2048,2039,2051,2061,2028
2048,2034,2032,2047,2040,2040,2033,2022
2038,2023,2032,2048,2042,2036,2045,2021
2052,2040,2040,2057,2055,2054,2050,2027
2053,2041,2046,2060,2056,2049,2053,2016
2052,2044,2041,2061,2046,2041,2060,2023
2056,2039,2037,2056,2048,2041,2043,2016
2054,2044,2041,2053,2041,2049,2076,2012
2054,2041,2040,2050,2049,2053,2074,2006
2049,2039,2033,2052,2049,2053,2042,1998
2039,2040,2032,2051,2052,2049,2063,1996
2048,2034,2034,2050,2045,2051,2053,1988
2045,2036,2038,2048,2044,2046,2057,1980
2046,2035,2029,2045,2046,2056,2062,1980
2042,2034,2028,2047,2046,2046,2071,1975
2046,2037,2031,2044,2054,2045,2053,1975
2046,2040,2038,2049,2052,2049,2060,1978
2044,2031,2037,2043,2046,2034,2052,1969
2037,2027,2035,2045,2050,2039,2052,1972
2051,2041,2053,2060,2064,2042,2055,1983
2064,2051,2050,2067,2066,2047,2029,1988
2060,2053,2061,2070,2066,2057,2057,2000
2056,2058,2056,2075,2064,2055,2025,2005
2062,2053,2059,2069,2058,2053,2038,2009
2057,2058,2055,2066,2054,2048,2038,2018
2059,2055,2054,2062,2051,2045,2043,2020
2057,2058,2047,2053,2052,2043,2019,2025
2061,2051,2047,2051,2054,2047,2058,2032
2058,2057,2049,2050,2055,2050,2058,2038
2055,2051,2047,2046,2043,2043,2030,2037
2057,2051,2046,2037,2036,2032,2034,2028
2056,2049,2046,2028,2031,2030,2038,2034
2054,2049,2044,2027,2029,2034,2036,2035
2056,2048,2040,2024,2017,2025,2035,2022
2046,2031,2037,2023,2022,2031,2029,2021
2038,2042,2036,2028,2024,2038,2048,2022
2049,2051,2043,2030,2029,2041,2055,2023
2052,2047,2040,2032,2040,2047,2044,2022
2051,2048,2046,2032,2041,2045,2047,2019
2054,2044,2041,2038,2047,2048,2042,2018
2056,2045,2049,2044,2051,2055,2050,2012
2061,2053,2052,2047,2055,2058,2072,2012
2055,2058,2044,2035,2057,2055,2059,2008
2056,2053,2049,2041,2061,2056,2046,1998
2052,2047,2042,2044,2057,2052,2045,1986
2046,2045,2047,2044,2059,2047,2057,1982
2049,2044,2041,2046,2053,2046,2047,1975
2049,2044,2042,2038,2049,2045,2060,1974
2048,2042,2041,2039,2046,2045,2059,1964
2045,2033,2031,2032,2043,2033,2044,1952
2031,2022,2023,2029,2039,2032,2035,1949
2038,2025,2028,2039,2051,2040,2043,1964
2045,2042,2039,2041,2047,2042,2053,1974
2051,2035,2038,2046,2050,2039,2043,1981
2047,2045,2037,2047,2053,2047,2037,1989
2049,2041,2049,2049,2051,2045,2040,1996
2050,2039,2044,2057,2058,2047,2049,1992
2043,2035,2048,2050,2055,2048,2049,2001
2036,2034,2046,2051,2053,2047,2040,2002
2042,2034,2049,2063,2059,2054,2042,2006
2028,2035,2055,2069,2073,2057,2047,2005
2027,2033,2058,2079,2082,2066,2045,2016
2032,2041,2053,2089,2084,2074,2061,2018
2036,2048,2059,2097,2089,2076,2046,2034
2040,2054,2071,2096,2100,2071,2076,2032
2042,2059,2064,2087,2078,2053,2044,2032
2024,2038,2045,2062,2049,2028,2042,2020
2027,2040,2051,2056,2047,2042,2054,2036
2035,2056,2052,2040,2040,2032,2051,2032
2027,2047,2047,2038,2043,2029,2045,2012
2009,2030,2036,2036,2040,2027,2054,2006
2010,2033,2033,2022,2025,2014,2020,1994
2006,2034,2034,2013,2011,2011,2015,1986
2021,2048,2042,2011,2012,2017,2030,1982
2063,2054,2051,2017,2007,2035,2008,1983
2098,2065,2056,2021,2027,2049,2026,1984
2098,2062,2053,2029,2040,2058,2051,1981
2075,2054,2059,2030,2043,2064,2027,1972
2062,2061,2062,2034,2041,2061,2051,1964
2047,2056,2062,2033,2046,2063,2042,1953
2053,2053,2058,2034,2045,2065,2049,1957
2047,2049,2053,2031,2037,2058,2034,1948
2040,2031,2037,2026,2035,2054,2023,1945
2036,2035,2042,2035,2046,2058,2051,1963
2051,2047,2053,2035,2050,2057,2060,1969
2057,2053,2054,2040,2047,2045,2056,1974
2054,2055,2061,2047,2048,2042,2062,1993
2055,2056,2060,2046,2048,2038,2065,1997
2055,2052,2061,2046,2039,2033,2069,2006
2057,2056,2056,2047,2043,2027,2062,2018
2059,2057,2055,2050,2035,2020,2055,2025
2064,2049,2059,2045,2039,2020,2046,2035
2060,2056,2060,2050,2034,2028,2046,2042
2056,2054,2054,2039,2035,2036,2058,2042
2057,2049,2049,2037,2024,2034,2062,2033
2051,2049,2045,2034,2021,2038,2043,2032
2048,2049,2045,2043,2029,2050,2064,2029
2058,2047,2051,2042,2037,2046,2053,2021
2040,2036,2039,2029,2028,2025,2040,2018
2037,2029,2039,2039,2044,2029,2042,2016
2057,2051,2053,2047,2048,2041,2046,2018
2052,2051,2048,2043,2048,2038,2050,2013
2052,2050,2045,2044,2048,2039,2037,2008
2049,2050,2045,2044,2043,2031,2040,2016
2046,2051,2054,2052,2051,2043,2054,2008
2046,2051,2055,2059,2067,2054,2050,1999
2038,2050,2054,2063,2065,2066,2059,1991
2034,2051,2048,2064,2071,2062,2071,1992
2034,2050,2054,2072,2076,2054,2074,1988
2034,2047,2055,2065,2069,2052,2073,1975
2034,2043,2050,2060,2079,2052,2054,1974
2037,2036,2051,2062,2072,2041,2058,1959
2042,2039,2051,2065,2073,2038,2058,1970
2047,2041,2049,2061,2075,2035,2051,1960
2033,2022,2032,2047,2064,2027,2036,1965
2030,2017,2021,2035,2053,2027,2042,1970
2045,2040,2034,2024,2034,2024,2036,1978
2040,2042,2028,2010,2018,2014,2040,1976
2045,2041,2028,2005,2006,2009,2049,1980
2055,2043,2035,2011,2015,2016,2040,1984
2045,2048,2041,2019,2024,2025,2013,1989
2044,2052,2041,2025,2028,2034,2025,1995
2043,2056,2047,2034,2043,2049,2031,2001
2039,2061,2047,2035,2043,2070,2030,2015
2048,2054,2052,2040,2046,2070,2050,2015
2046,2060,2051,2037,2050,2042,2046,2019
2042,2059,2046,2035,2044,2029,2033,2024
2048,2055,2046,2039,2042,2024,2033,2031
2053,2057,2048,2040,2053,2046,2047,2025
2047,2056,2050,2037,2058,2054,2012,2013
2028,2036,2028,2026,2052,2058,1997,2016
2034,2035,2032,2031,2057,2057,2037,2023
2044,2055,2045,2047,2060,2068,2043,2026
2054,2053,2048,2043,2054,2052,2040,2015
2048,2053,2054,2043,2059,2048,2037,2008
2049,2053,2049,2039,2062,2052,2039,2005
2046,2055,2050,2048,2058,2048,2042,1995
2043,2054,2050,2049,2065,2053,2039,1983
2048,2059,2051,2043,2061,2056,2047,1991
2044,2052,2050,2050,2061,2057,2047,1978
2045,2054,2050,2043,2055,2065,2052,1970
2042,2056,2054,2039,2059,2067,2053,1972
2045,2054,2052,2047,2065,2068,2073,1967
2040,2052,2045,2044,2055,2064,2066,1967
2042,2050,2046,2039,2048,2050,2070,1970
2044,2051,2045,2039,2043,2000,2063,1950
2032,2035,2029,2029,2031,1994,2049,1951
2033,2031,2029,2026,2023,2019,2029,1960
2043,2053,2044,2038,2026,2035,2033,1966
2047,2055,2039,2039,2034,2032,2048,1978
2047,2058,2043,2037,2038,2033,2052,1978
2045,2064,2042,2039,2042,2029,2011,1979
2050,2062,2045,2040,2043,2021,2019,1990
2050,2063,2048,2047,2042,2026,2015,1993
2050,2062,2053,2045,2045,2020,2026,2003
2044,2067,2053,2046,2043,2016,2033,2008
2044,2063,2053,2052,2051,2015,2042,2010
2046,2065,2052,2050,2051,2026,2043,2014
2047,2067,2044,2051,2049,2035,2039,2011
2041,2059,2047,2046,2056,2042,2030,2013
2033,2055,2042,2042,2046,2038,2044,2016
2026,2044,2036,2037,2042,2014,2018,2006
2014,2029,2021,2025,2031,2017,2017,2007
2020,2031,2023,2028,2035,2023,2028,2015
2029,2054,2038,2035,2042,2031,2038,2018
2034,2054,2036,2038,2047,2034,2058,2015
2038,2057,2043,2042,2054,2035,2060,2021
2041,2058,2042,2045,2054,2041,2040,2010
2039,2058,2049,2044,2060,2046,2046,2009
2037,2056,2044,2043,2058,2051,2060,2003
2036,2059,2042,2042,2062,2048,2073,2001
2033,2058,2039,2043,2061,2047,2072,1992
2036,2057,2038,2046,2063,2051,2058,1986
2031,2050,2035,2042,2060,2053,2060,1979
2028,2045,2030,2043,2068,2047,2051,1975
2029,2049,2024,2040,2060,2040,2068,1964
2029,2043,2022,2036,2057,2043,2063,1962
2026,2038,2025,2035,2050,2039,2045,1955
2020,2023,2001,2021,2037,2024,2038,1947
2008,2022,1986,2021,2032,2024,2040,1959
2021,2033,1999,2033,2049,2035,2032,1971
2027,2034,1996,2037,2047,2039,2044,1972
2023,2029,1996,2043,2049,2038,2051,1982
2025,2035,1986,2048,2049,2045,2057,1981
2021,2031,1983,2047,2054,2039,2054,1993
2014,2037,1981,2048,2046,2033,2046,1992
2022,2028,1983,2049,2042,2032,2058,1998
2025,2032,1995,2042,2042,2033,2052,2003
2026,2038,2003,2046,2037,2047,2040,2008
2033,2039,2010,2042,2039,2052,2052,2016
2034,2040,2013,2036,2037,2064,2051,2024
2030,2045,2007,2039,2048,2074,2055,2029
2038,2049,2003,2036,2049,2056,2057,2032
2038,2059,2016,2039,2050,2020,2048,2030
2034,2047,2030,2034,2046,2002,2036,2024
2026,2048,2055,2038,2042,2012,2012,2027
2040,2074,2095,2050,2049,2030,2039,2031
2041,2073,2102,2054,2052,2031,2052,2022
2043,2072,2089,2043,2035,2038,2051,2018
2041,2073,2092,2042,2038,2035,2057,2014
2048,2077,2102,2042,2046,2042,2051,2016
2051,2077,2109,2053,2052,2051,2066,2011
2043,2080,2108,2059,2051,2058,2060,2003
2039,2072,2109,2054,2058,2060,2063,1996
2038,2069,2092,2054,2063,2057,2068,1996
2034,2062,2089,2057,2063,2060,2061,1991
2036,2067,2086,2053,2064,2056,2070,1980
2041,2072,2086,2056,2066,2057,2065,1979
2040,2066,2079,2055,2055,2053,2073,1976
2038,2068,2073,2053,2054,2053,2050,1980
2039,2049,2057,2047,2041,2040,2039,1978
2028,2038,2056,2038,2041,2037,2034,1968
2035,2057,2072,2044,2050,2056,2069,1987
2050,2070,2072,2052,2050,2061,2070,1992
2053,2063,2079,2055,2050,2058,2073,1995
2049,2065,2068,2051,2045,2063,2050,2005
2048,2059,2070,2051,2048,2056,2038,2004
2047,2059,2070,2050,2050,2048,2069,2010
2043,2068,2062,2055,2053,2047,2043,2015
2042,2056,2062,2057,2053,2041,2063,2024
2043,2053,2058,2057,2050,2039,2056,2029
2042,2056,2060,2062,2044,2048,2062,2030
2041,2054,2059,2063,2051,2055,2063,2024
2043,2051,2056,2054,2046,2047,2052,2026
2037,2053,2054,2050,2029,2038,2040,2021
2041,2051,2045,2048,2011,2023,2041,2017
2032,2039,2034,2040,1995,1994,2027,2009
2015,2024,2019,2039,1983,1983,2002,2007
2016,2022,2018,2046,2006,2002,2020,2018
2027,2037,2028,2064,2043,2040,2046,2018
2033,2046,2035,2079,2080,2066,2054,2020
2030,2048,2034,2082,2101,2073,2083,2028
2028,2054,2036,2073,2104,2084,2070,2018
2031,2043,2030,2064,2096,2073,2068,2010
2035,2044,2034,2058,2080,2062,2050,2001
2037,2054,2042,2058,2067,2049,2050,2003
2029,2049,2042,2049,2057,2040,2052,1997
2036,2052,2044,2044,2033,2036,2060,1993
2034,2050,2035,2042,2035,2037,2069,1985
2028,2044,2043,2039,2024,2030,2060,1970
2026,2038,2051,2030,2016,2027,2069,1960
2012,2037,2049,2011,2019,2034,2039,1964
2010,2032,2068,2020,2041,2031,2019,1957
2002,2027,2062,2017,2035,2031,2045,1960
2007,2026,2065,2022,2043,2041,2038,1973
2022,2046,2075,2039,2040,2055,2060,1983
2031,2048,2064,2040,2037,2049,2070,1994
2034,2051,2057,2039,2039,2038,2055,1995
2034,2050,2054,2047,2055,2033,2058,1998
2033,2050,2064,2064,2080,2033,2072,2010
2036,2056,2067,2064,2077,2040,2068,2018
2035,2053,2068,2064,2073,2055,2076,2021
2028,2047,2065,2055,2064,2051,2050,2019
2033,2044,2065,2055,2066,2044,2060,2016
2030,2050,2065,2058,2061,2046,2067,2021
2030,2048,2055,2055,2063,2045,2074,2018
2030,2043,2056,2053,2052,2047,2049,2025
2035,2050,2052,2046,2061,2061,2065,2029
2039,2048,2054,2052,2063,2073,2074,2034
2036,2042,2047,2042,2053,2060,2063,2020
2027,2035,2047,2037,2054,2058,2065,2017
2026,2038,2044,2052,2064,2063,2059,2027
2039,2047,2049,2052,2064,2065,2084,2025
2038,2050,2056,2058,2061,2069,2079,2028
2038,2054,2070,2075,2067,2080,2081,2025
2035,2051,2072,2075,2073,2081,2085,2018
2035,2045,2078,2082,2069,2091,2080,2016
2032,2046,2066,2080,2074,2080,2073,2002
2031,2034,2056,2073,2068,2076,2076,2001
2026,2038,2052,2072,2073,2079,2082,1994
2036,2039,2041,2075,2078,2079,2090,1983
2030,2038,2034,2074,2075,2074,2080,1979
2025,2033,2021,2068,2062,2063,2078,1969
2028,2034,2009,2058,2061,2058,2073,1960
2026,2027,2001,2055,2056,2061,2066,1960
2028,2025,1994,2057,2050,2045,2040,1949
2023,2005,1974,2042,2044,2038,2035,1954
2016,2002,1962,2035,2040,2041,2051,1963
2031,2021,1972,2024,2041,2038,2055,1971
2027,2022,1967,2012,2038,2035,2054,1984
2031,2028,1971,2013,2038,2041,2054,1993
2041,2039,1981,2016,2043,2040,2063,1992
2041,2037,1986,2022,2044,2047,2043,1995
2039,2045,1992,2024,2047,2060,2060,2003
2033,2038,1992,2025,2046,2068,2066,2005
2024,2034,1997,2026,2049,2069,2059,2011
2028,2038,2031,2028,2056,2066,2057,2017
2032,2057,2074,2038,2054,2060,2080,2028
2037,2068,2097,2045,2047,2045,2071,2026
2034,2073,2099,2038,2040,2040,2048,2024
2033,2070,2103,2041,2046,2039,2076,2030
2040,2076,2100,2044,2054,2052,2039,2027
2034,2072,2093,2042,2052,2051,2065,2026
2035,2064,2090,2040,2057,2057,2067,2034
2039,2074,2097,2057,2071,2070,2079,2033
2046,2072,2081,2058,2061,2066,2079,2023
2038,2069,2073,2056,2062,2054,2067,2018
2038,2066,2062,2054,2065,2064,2083,2012
2034,2065,2062,2059,2067,2069,2074,2006
2039,2067,2071,2062,2071,2078,2079,2005
2041,2065,2069,2071,2077,2086,2072,2002
2034,2069,2067,2066,2080,2088,2084,1994
2040,2061,2066,2063,2072,2100,2072,1988
2025,2054,2068,2056,2071,2090,2068,1981
2026,2056,2067,2059,2064,2074,2068,1976
2030,2051,2059,2053,2061,2063,2049,1967
2029,2050,2059,2054,2069,2068,2066,1964
2027,2043,2056,2053,2062,2068,2060,1970
2030,2049,2057,2049,2058,2060,2054,1964
2022,2038,2047,2046,2053,2065,2064,1968
2031,2046,2055,2055,2057,2075,2068,1972
2037,2062,2056,2056,2049,2072,2055,1966
2034,2057,2049,2053,2051,2055,2057,1968
2033,2055,2047,2052,2047,2049,2061,1974
2028,2044,2041,2046,2042,2056,2059,1982
2031,2043,2040,2044,2042,2059,2049,1985
2030,2048,2042,2059,2049,2061,2073,1995
2032,2047,2048,2072,2050,2062,2059,1999
2033,2044,2053,2072,2054,2066,2069,2006
2030,2042,2052,2070,2053,2056,2057,2003
2025,2041,2051,2073,2060,2050,2064,1997
2032,2035,2044,2070,2054,2048,2057,2001
2028,2029,2042,2071,2051,2056,2070,2012
2028,2028,2027,2071,2049,2061,2056,2013
2029,2027,2017,2068,2052,2060,2043,2006
2025,2018,2007,2059,2044,2056,2042,2000
2026,2021,2013,2057,2047,2048,2043,2001
2038,2038,2018,2064,2053,2070,2037,2006
2038,2042,2023,2060,2047,2070,2055,2008
2040,2038,2016,2054,2048,2066,2068,2006
2041,2040,2020,2046,2043,2064,2053,1999
2040,2043,2015,2035,2031,2055,2064,1994
2038,2043,2019,2026,2034,2048,2057,1994
2042,2043,2028,2025,2037,2056,2068,1993
2044,2055,2038,2038,2053,2064,2080,1995
2048,2056,2056,2036,2061,2062,2070,1989
2045,2060,2067,2047,2061,2064,2067,1978
2040,2057,2076,2052,2069,2062,2067,1961
2044,2056,2075,2044,2065,2060,2073,1955
2039,2049,2061,2047,2066,2064,2077,1956
2028,2039,2060,2040,2061,2056,2052,1953
2030,2041,2068,2041,2054,2046,2044,1947
2026,2032,2063,2039,2052,2045,2050,1951
2019,2037,2058,2042,2051,2049,2042,1961
2036,2047,2073,2052,2052,2065,2059,1972
2033,2050,2069,2056,2048,2086,2069,1983
2044,2050,2062,2055,2049,2092,2076,1996
2037,2045,2054,2051,2049,2097,2063,2001
2038,2042,2049,2050,2052,2105,2072,2006
2040,2039,2046,2049,2042,2110,2069,2014
2041,2036,2046,2047,2038,2093,2054,2015
2039,2036,2042,2042,2033,2044,2049,2014
2040,2034,2045,2037,2042,2023,2076,2020
2040,2039,2042,2048,2042,2028,2072,2020
2041,2038,2049,2041,2044,2023,2049,2025
2042,2039,2044,2041,2036,2026,2031,2025
2034,2039,2043,2046,2036,2030,2021,2024
2039,2042,2046,2047,2044,2026,2043,2016
2034,2042,2039,2046,2034,2028,2040,2005
2024,2023,2036,2041,2039,2036,2024,2010
2028,2033,2045,2049,2042,2048,2035,2020
2038,2040,2043,2053,2046,2038,2055,2017
2032,2043,2042,2051,2052,2047,2037,2012
2029,2041,2043,2050,2053,2051,2077,2012
2034,2039,2041,2052,2054,2062,2066,2009
2030,2047,2048,2052,2065,2070,2077,2011
2034,2046,2054,2058,2060,2071,2075,2007
2029,2047,2058,2052,2051,2069,2067,2002
2029,2041,2054,2049,2056,2075,2071,1994
2027,2046,2046,2047,2056,2072,2063,1987
2027,2045,2045,2047,2051,2059,2056,1979
2026,2041,2045,2047,2053,2055,2057,1969
2031,2048,2050,2047,2052,2067,2055,1966
2064,2052,2040,2052,2053,2057,2047,1965
2075,2050,2038,2048,2052,2047,2048,1963
2052,2027,2026,2040,2041,2036,2011,1953
2033,2023,2021,2041,2043,2048,2026,1970
2043,2043,2035,2059,2051,2068,2057,1985
2048,2040,2033,2054,2055,2060,2056,1987
2047,2043,2031,2049,2048,2047,2048,1991
2041,2043,2027,2044,2047,2038,2039,1997
2046,2042,2028,2049,2044,2036,2045,2001
2039,2041,2028,2046,2041,2034,2042,2014
2040,2037,2034,2043,2040,2033,2051,2010
2043,2037,2032,2052,2042,2030,2046,2017
2046,2033,2036,2052,2043,2044,2049,2026
2050,2040,2031,2061,2052,2056,2054,2032
2050,2037,2036,2055,2051,2050,2053,2032
2047,2033,2035,2048,2046,2053,2048,2028
2044,2025,2021,2039,2021,2041,2040,2022
2034,2020,2017,2033,1990,2031,2032,2024
2036,2032,2025,2031,1982,2027,2019,2011
2023,2012,2013,2021,1971,2023,2003,2010
2015,2005,2014,2020,1987,2027,2005,2011
2032,2029,2040,2054,2042,2034,2044,2030
2049,2049,2053,2074,2076,2049,2053,2044
2058,2059,2067,2082,2095,2065,2082,2041
2059,2052,2061,2076,2099,2089,2071,2040
2057,2054,2050,2062,2084,2081,2067,2031
2062,2056,2052,2054,2069,2077,2067,2033
2058,2053,2054,2053,2058,2070,2072,2023
2052,2051,2050,2043,2046,2060,2080,2015
2055,2051,2046,2043,2044,2059,2069,2012
2049,2050,2050,2047,2050,2065,2043,2006
2051,2047,2048,2051,2052,2063,2063,1995
2047,2045,2050,2047,2046,2063,2056,1985
2048,2043,2045,2046,2045,2060,2061,1987
2045,2040,2046,2047,2047,2060,2055,1982
2039,2038,2034,2038,2037,2050,2038,1976
2025,2022,2021,2030,2036,2052,2038,1977
2030,2022,2022,2034,2041,2054,2051,1995
2040,2041,2033,2044,2046,2056,2050,2001
2042,2039,2040,2044,2040,2053,2066,2002
2041,2042,2036,2045,2045,2056,2057,2004
2041,2041,2036,2044,2052,2060,2062,2014
2037,2037,2032,2045,2056,2062,2052,2018
2032,2035,2035,2046,2060,2065,2056,2024
2035,2034,2036,2049,2055,2064,2059,2031
2037,2032,2039,2043,2055,2064,2045,2041
2040,2036,2042,2045,2048,2068,2060,2046
2049,2042,2050,2049,2040,2063,2056,2053
2045,2049,2051,2048,2037,2060,2048,2064
2049,2044,2045,2044,2030,2058,2043,2056
2043,2039,2048,2042,2027,2063,2046,2057
2047,2040,2050,2043,2044,2062,2066,2060
2046,2027,2035,2037,2061,2051,2045,2057
2035,2025,2037,2035,2064,2056,2034,2056
2034,2040,2043,2046,2083,2069,2084,2068
2053,2050,2048,2054,2107,2072,2072,2068
2052,2055,2045,2056,2118,2069,2064,2067
2063,2054,2048,2062,2118,2071,2065,2064
2056,2048,2045,2062,2120,2068,2069,2058
2056,2055,2040,2062,2118,2063,2065,2055
2055,2054,2043,2065,2110,2067,2053,2050
2049,2049,2043,2069,2105,2074,2048,2044
2048,2041,2040,2072,2085,2080,2051,2037
2040,2038,2040,2067,2021,2068,2052,2032
2049,2036,2042,2062,2016,2057,2058,2026
2046,2032,2038,2056,2044,2049,2027,2019
2045,2032,2036,2046,2028,2048,2057,2013
2038,2031,2037,2036,2019,2045,2056,2014
2043,2032,2040,2037,2041,2038,2046,2006
2034,2011,2033,2029,2074,2035,2045,2003
2025,2014,2035,2037,2094,2053,2067,2020
2046,2037,2043,2049,2093,2082,2067,2029
2049,2044,2054,2052,2083,2082,2068,2034
2043,2047,2058,2051,2054,2080,2062,2042
2048,2049,2050,2046,2030,2085,2064,2048
2054,2047,2055,2035,2029,2086,2046,2057
2050,2048,2047,2033,2024,2083,2041,2060
2045,2039,2054,2026,2000,2074,2027,2065
2044,2043,2048,2018,2008,2077,2048,2075
2047,2037,2048,2031,2043,2087,2052,2075
2050,2042,2047,2041,2052,2078,2055,2081
2044,2045,2050,2049,2052,2061,2046,2083
2045,2041,2050,2046,2056,2047,2040,2086
2053,2043,2043,2043,2051,2038,2044,2088
2056,2047,2052,2044,2050,2028,2036,2084
2047,2028,2034,2030,2037,2020,2031,2080
2039,2024,2031,2033,2037,2015,2040,2081
2046,2038,2045,2049,2047,2030,2050,2092
2048,2033,2040,2039,2029,2046,2028,2085
2053,2043,2040,2032,2017,2070,2012,2083
2047,2037,2037,2036,2008,2080,2038,2083
2040,2038,2046,2039,2017,2082,2047,2076
2045,2036,2044,2040,2014,2066,2047,2064
2049,2032,2040,2039,2030,2049,2041,2071
2052,2038,2043,2045,2061,2045,2054,2067
2058,2044,2050,2055,2083,2057,2060,2061
2055,2044,2051,2059,2084,2077,2040,2056
2046,2043,2048,2058,2086,2083,2041,2040
2042,2040,2046,2062,2076,2080,2044,2024
2046,2043,2040,2053,2068,2071,2046,2026
2040,2038,2042,2054,2060,2080,2052,2029
2041,2029,2031,2041,2049,2081,2040,2022
2032,2022,2028,2037,2029,2076,2035,2033
2042,2047,2036,2046,2012,2090,2051,2048
2054,2048,2040,2044,2021,2092,2065,2058
2059,2048,2033,2047,2022,2086,2065,2059
2056,2044,2035,2039,2017,2076,2055,2068
2061,2044,2039,2037,2006,2073,2043,2066
2047,2043,2037,2039,1996,2060,2021,2078
2050,2043,2042,2036,1985,2040,2038,2093
2055,2046,2037,2029,1969,2042,2061,2086
2055,2042,2037,2026,1966,2037,2043,2097
2048,2039,2036,2021,1977,2054,2038,2095
2046,2039,2035,2028,2014,2069,2041,2100
2052,2029,2031,2032,2047,2073,2020,2096
2043,2026,2019,2020,2073,2044,2009,2088
2040,2027,2036,2033,2083,2036,2013,2091
2046,2020,2047,2041,2041,2029,2039,2091
2046,2014,2053,2047,2023,2031,2040,2082
2045,2036,2069,2066,2042,2038,2031,2095
2056,2039,2072,2065,2050,2054,2049,2102
2057,2042,2067,2060,2068,2074,2055,2093
2059,2042,2056,2066,2108,2095,2047,2094
2058,2043,2057,2078,2127,2104,2065,2088
2054,2051,2055,2074,2126,2102,2048,2088
2057,2054,2060,2067,2099,2078,2049,2090
2062,2059,2066,2066,2081,2049,2057,2086
2061,2055,2060,2063,2077,2047,2060,2067
2053,2043,2048,2047,2052,2055,2053,2056
2047,2039,2036,2036,2049,2047,2044,2048
2040,2036,2037,2034,2061,2051,2039,2047
2045,2042,2039,2040,2113,2070,2041,2051
2046,2042,2037,2044,2113,2073,2054,2041
2044,2034,2024,2030,2093,2059,2021,2038
2039,2022,2030,2035,2101,2055,2020,2041
2049,2046,2053,2054,2103,2059,2047,2052
2054,2044,2048,2050,2091,2055,2033,2053
2044,2037,2045,2047,2072,2049,2036,2065
2050,2035,2041,2045,2066,2057,2037,2075
2060,2030,2046,2055,2068,2074,2042,2081
2056,2043,2048,2064,2101,2063,2038,2087
2055,2038,2048,2068,2126,2064,2043,2100
2057,2052,2054,2071,2129,2072,2052,2107
2063,2066,2059,2065,2113,2081,2067,2116
2068,2068,2058,2057,2107,2086,2071,2121
2069,2067,2055,2048,2084,2087,2062,2125
2063,2057,2050,2039,2090,2083,2065,2123
2058,2048,2041,2030,2117,2083,2032,2118
2045,2041,2038,2027,2150,2062,2037,2116
2041,2016,2020,2008,2098,2013,2013,2100
2025,2007,2016,1999,2058,2019,2028,2101
2041,2025,2030,2033,2060,2056,2051,2108
2053,2036,2042,2052,2089,2092,2050,2105
2057,2047,2045,2069,2092,2107,2061,2108
2059,2050,2050,2077,2084,2116,2073,2094
2057,2046,2047,2072,2014,2106,2064,2094
2056,2041,2032,2057,2032,2109,2077,2088
2057,2045,2034,2069,2078,2099,2071,2084
2055,2040,2036,2072,2109,2084,2055,2090
2059,2046,2032,2071,2094,2074,2046,2082
2056,2045,2027,2064,2053,2050,2052,2078
2053,2038,2021,2064,2036,2034,2062,2070
2052,2039,2021,2055,2021,2019,2039,2061
2052,2029,2009,2037,1953,1996,2031,2043
2035,2012,1998,2022,1927,1997,2013,2029
2027,2004,1995,2045,1964,2021,2016,2038
2028,2017,2009,2080,2014,2046,2040,2056
2047,2035,2041,2092,2018,2061,2053,2062
2049,2035,2052,2068,1954,2054,2042,2073
2049,2044,2070,2048,1980,2043,2039,2074
2049,2045,2075,2031,1961,2015,2043,2076
2044,2047,2070,2019,1901,1999,2038,2083
2048,2050,2063,2012,1901,2026,2045,2085
2050,2043,2058,2020,1995,2060,2062,2096
2051,2049,2047,2028,2031,2077,2055,2095
2051,2047,2039,2037,2064,2083,2058,2092
2049,2042,2038,2038,2064,2062,2025,2092
2050,2047,2044,2039,2072,2043,2033,2098
2055,2053,2064,2060,2108,2035,2038,2117
2068,2067,2066,2066,2124,2041,2029,2124
2068,2063,2066,2053,2136,2064,2026,2121
2054,2049,2047,2044,2141,2085,2017,2108
2048,2038,2043,2034,2119,2095,2042,2106
2049,2046,2050,2034,2170,2099,2034,2107
2056,2051,2053,2029,2190,2097,2056,2104
2057,2050,2051,2020,2172,2078,2057,2115
2062,2057,2060,2039,2173,2042,2077,2116
2064,2064,2064,2041,2166,2062,2085,2118
2066,2061,2058,2033,2125,2087,2075,2100
2067,2059,2056,2033,2139,2104,2071,2097
2063,2056,2047,2032,2127,2092,2067,2095
2056,2050,2041,2022,2061,2058,2067,2085
2057,2050,2040,2010,1970,2027,2059,2076
2058,2041,2034,2004,1912,2019,2058,2070
2054,2042,2038,2013,1941,2017,2041,2060
2057,2044,2038,2022,1992,2029,2049,2053
2055,2044,2038,2033,2016,2043,2045,2051
2044,2031,2025,2016,2014,2049,2050,2051
2032,2017,2016,2012,2005,2050,2031,2048
2038,2027,2032,2016,2018,2056,2041,2047
2030,2028,2032,2029,2062,2051,2038,2052
2029,2031,2036,2042,2088,2016,2048,2060
2035,2033,2039,2044,2093,2014,2043,2074
2045,2039,2044,2045,2095,2035,2062,2093
2045,2046,2046,2052,2094,2055,2050,2101
2053,2051,2040,2048,2088,2064,2052,2110
2050,2049,2038,2050,2119,2071,2071,2114
2058,2046,2036,2046,2122,2081,2066,2116
2054,2043,2036,2041,2058,2069,2052,2123
2051,2042,2034,2028,2056,2073,2066,2129
2056,2044,2033,2042,2064,2078,2071,2125
2059,2046,2041,2048,2071,2107,2056,2127
2060,2051,2045,2045,2075,2120,2070,2116
2050,2034,2030,2029,2066,2105,2053,2111
2043,2030,2019,2027,2043,2092,2063,2112
2050,2050,2032,2025,2007,2093,2059,2111
2054,2054,2027,2007,1980,2048,2057,2114
2060,2052,2028,2002,1898,2004,2066,2118
2059,2042,2022,2002,1949,2027,2050,2101
2047,2036,2017,2013,2075,2023,2061,2094
2048,2035,2022,2032,2172,1998,2037,2089
2043,2041,2030,2049,2184,2005,2043,2078
2045,2039,2040,2051,2107,2021,2070,2077
2045,2045,2050,2054,2058,2025,2070,2073
2046,2051,2051,2053,2037,2022,2072,2075
2048,2041,2044,2043,2019,2035,2078,2056
2042,2043,2041,2037,2021,2043,2051,2052
2037,2044,2046,2041,2016,2039,2047,2052
2040,2045,2042,2034,2021,2032,2036,2041
2026,2021,2032,2020,1983,2021,2013,2042
2027,2024,2042,2031,1988,2031,2038,2061
2040,2048,2074,2049,2017,2042,2052,2068
2044,2052,2090,2062,2026,2049,2055,2078
2044,2054,2087,2064,2025,2053,2060,2080
2046,2054,2090,2070,2016,2067,2052,2085
2045,2043,2085,2066,2034,2068,2042,2089
2049,2043,2076,2054,2007,2057,2025,2101
2051,2040,2065,2053,2011,2043,2035,2107
2049,2046,2064,2053,2033,2030,2050,2109
2054,2058,2071,2061,2046,2015,2058,2123
2058,2054,2062,2078,2059,2025,2068,2124
2045,2042,2051,2068,2033,2022,2062,2115
2040,2033,2038,2059,2058,2017,2056,2115
2039,2029,2034,2060,2106,2034,2027,2120
2047,2034,2037,2061,2147,2057,2020,2126
2050,2039,2042,2073,2211,2066,2024,2133
2052,2037,2034,2065,2229,2089,2049,2142
2064,2046,2033,2058,2160,2101,2067,2126
2062,2046,2033,2036,2092,2128,2063,2120
2061,2055,2045,2035,2200,2145,2065,2111
2048,2051,2044,2011,2161,2127,2062,2101
2043,2053,2054,2018,2135,2116,2056,2114
2051,2052,2067,2027,2116,2123,2080,2120
2055,2058,2077,2048,2116,2136,2095,2129
2062,2059,2089,2067,2174,2154,2104,2120
2066,2065,2089,2075,2164,2140,2085,2110
2064,2062,2084,2067,2117,2122,2071,2113
2065,2061,2081,2059,2045,2104,2096,2105
2067,2058,2071,2052,1923,2077,2089,2097
2068,2058,2067,2029,1818,2036,2060,2087
2060,2054,2058,2006,1801,1987,2048,2073
2051,2029,2037,1993,1901,1963,2028,2062
2034,2013,2030,2000,1985,1985,2021,2067
2042,2021,2042,2032,2098,1995,2011,2064
2032,2008,2034,2049,2118,1965,1999,2049
2027,2003,2026,2023,2002,1923,1964,2052
2023,2015,2045,2024,1929,1948,2010,2063
2054,2047,2084,2072,2035,2009,2024,2098
2079,2075,2102,2103,2135,2056,2049,2109
2083,2071,2097,2107,2115,2069,2052,2108
2077,2062,2093,2084,2003,2056,2051,2116
2066,2058,2090,2080,2009,2066,2065,2116
2051,2054,2086,2072,2024,2061,2062,2109
2044,2047,2071,2041,1977,2033,2025,2102
2035,2044,2064,2018,1940,2017,2048,2112
2047,2056,2062,2026,1985,2030,2050,2126
2048,2054,2048,2029,2064,2018,2050,2134
2040,2034,2025,2020,2095,2000,2026,2136
2051,2023,2009,2002,2109,1998,2062,2134
2047,2031,2000,2008,2096,2017,2047,2131
2044,2027,2001,2011,2095,2044,2062,2129
2052,2037,2008,2011,2096,2060,2066,2119
2047,2027,2011,2016,2090,2054,2059,2110
2037,2020,2012,2014,2071,2037,2029,2104
2034,2028,2013,2018,2072,2040,2032,2107
2043,2040,2029,2030,2081,2054,2032,2113
2056,2044,2041,2028,2095,2061,2039,2108
2064,2043,2042,2029,2094,2066,2036,2103
2057,2033,2034,2022,2072,2056,2043,2100
2060,2029,2024,2009,2049,2055,2062,2095
2052,2027,2028,2007,2059,2065,2050,2085
2056,2027,2027,2014,2055,2077,2045,2087
2053,2029,2024,2018,2025,2070,2053,2077
2041,2009,2007,2013,2020,2056,2048,2077
2037,2005,2004,2014,2074,2047,2057,2084
2050,2030,2027,2026,2083,2047,2065,2084
2057,2043,2040,2029,2054,2056,2062,2095
2063,2054,2063,2047,2068,2070,2066,2104
2059,2058,2069,2058,2099,2075,2057,2104
2052,2041,2062,2050,2111,2056,2020,2098
2044,2045,2055,2050,2099,2047,2013,2105
2052,2049,2060,2064,2152,2065,2043,2123
2055,2045,2061,2052,2191,2074,2041,2141
2057,2049,2056,2036,2160,2067,2041,2144
2058,2043,2047,2027,2126,2068,2034,2149
2055,2041,2036,2024,2074,2046,2033,2143
2041,2041,2027,2021,2043,2012,2040,2142
2047,2048,2038,2028,2075,2018,2035,2146
2059,2052,2045,2046,2090,2022,2034,2140
2056,2037,2033,2030,2088,2016,2025,2139
2045,2032,2028,2023,2076,2019,2034,2144
2051,2046,2036,2035,2080,2036,2052,2140
2046,2046,2026,2040,2109,2036,2038,2139
2051,2040,2024,2056,2110,2039,2036,2135
2057,2041,2027,2065,2104,2044,2043,2138
2065,2041,2026,2064,2049,2045,2034,2135
2064,2035,2028,2046,1927,2038,2042,2134
2067,2032,2037,2054,1963,2048,2042,2132
2070,2037,2034,2068,2032,2055,2052,2123
2071,2035,2031,2064,2080,2048,2053,2114
2061,2029,2028,2064,2100,2050,2042,2097
2043,2024,2019,2064,2124,2061,2039,2065
2024,2021,2010,2065,2143,2063,2033,2058
2028,2023,2008,2063,2131,2056,2049,2071
2039,2024,2001,2048,2098,2041,2039,2087
2035,1999,1973,2033,2082,2030,2031,2075
2032,1991,1961,2010,2074,2032,2028,2078
2037,1999,1965,1979,2062,2024,2025,2085
2037,2000,1980,1964,2046,2019,2056,2095
2038,2013,2024,1973,2046,2024,2052,2102
2042,2035,2077,1991,2052,2030,2047,2124
2060,2057,2090,2003,2069,2040,2068,2138
2067,2065,2081,2009,2074,2059,2077,2142
2062,2049,2069,2019,2094,2066,2070,2137
2051,2037,2064,2032,2106,2075,2086,2146
2052,2037,2060,2035,2104,2082,2060,2146
2053,2035,2054,2030,2096,2079,2058,2143
2059,2027,2033,2018,2096,2084,2050,2151
2058,2030,2042,2028,2123,2087,2048,2155
2066,2037,2055,2035,2136,2097,2031,2158
2069,2049,2066,2039,2118,2080,2038,2155
2057,2043,2070,2027,2068,2028,2016,2153
2046,2047,2062,2016,2027,2018,2021,2154
2069,2054,2065,2029,2024,2034,2043,2158
2066,2063,2075,2042,2050,2056,2042,2158
2070,2065,2082,2047,2070,2049,2035,2143
2063,2057,2080,2050,2089,2023,2030,2147
2065,2060,2082,2055,2117,1996,2072,2152
2070,2068,2082,2049,2122,2004,2065,2148
2071,2067,2085,2059,2166,2052,2060,2150
2071,2067,2088,2068,2212,2095,2063,2139
2071,2064,2090,2061,2244,2125,2094,2131
2066,2056,2088,2053,2230,2110,2080,2126
2060,2058,2082,2031,2126,2067,2059,2119
2065,2060,2078,2014,2022,2046,2062,2120
2063,2064,2078,2011,1972,2013,2065,2122
2062,2068,2084,2034,2028,2025,2050,2113
2060,2057,2078,2030,1969,2014,2037,2107
2053,2047,2070,2010,1853,1994,2028,2108
2062,2059,2068,2002,1856,1979,2025,2109
2050,2045,2055,1990,1883,1973,2028,2108
2054,2037,2050,2000,1929,1995,2002,2119
2055,2040,2064,2033,2059,2027,2025,2135
2063,2049,2068,2056,2116,2037,2043,2140
2063,2045,2068,2049,2085,2028,2040,2141
2059,2044,2060,2052,2084,2035,2049,2150
2060,2045,2073,2062,2090,2049,2049,2159
2067,2047,2067,2075,2110,2058,2070,2166
2064,2042,2061,2066,2136,2058,2071,2167
2062,2043,2055,2056,2123,2044,2058,2161
2059,2045,2062,2049,2169,2046,2045,2167
2061,2044,2056,2041,2171,2028,2056,2160
2056,2039,2043,2034,2096,1991,2022,2133
2031,2022,2036,2029,2069,1991,2020,2135
2034,2028,2048,2044,2078,2028,2034,2162
2067,2053,2061,2052,2083,2048,2062,2155
2065,2061,2058,2046,2094,2058,2055,2154
2064,2052,2051,2038,2086,2049,2041,2157
2057,2049,2044,2033,2081,2038,2042,2161
2063,2047,2039,2034,2050,2036,2043,2148
2062,2045,2043,2039,2068,2044,2058,2144
2062,2045,2034,2042,2074,2048,2048,2135
2060,2031,2031,2027,1997,2044,2045,2129
2046,2033,2035,2044,2047,2047,2054,2134
2058,2032,2042,2049,2072,2042,2070,2127
2055,2031,2033,2039,2060,2023,2053,2116
2053,2025,2024,2039,2061,2000,2049,2118
2053,2021,2014,2033,2059,1988,2057,2115
2044,2018,2001,2018,2038,1977,2025,2106
2031,1995,1983,2006,2033,1988,2027,2109
2029,1996,1978,2009,2040,2018,2045,2116
2050,2015,1990,2017,2042,2029,2048,2133
2049,2025,2003,2013,2037,2034,2051,2134
2055,2027,2013,2012,2036,2039,2050,2137
2056,2030,2023,2000,2043,2048,2044,2144
2062,2036,2039,2006,2080,2055,2035,2142
2053,2041,2049,2013,2094,2067,2020,2150
2060,2053,2058,2016,2084,2086,2045,2169
2070,2064,2052,2012,2077,2109,2048,2174
2068,2059,2058,2020,2067,2102,2058,2174
2061,2056,2074,2025,2057,2081,2036,2174
2063,2052,2081,2017,1992,2063,2036,2170
2054,2050,2081,2013,1977,2049,2038,2173
2054,2053,2085,2035,2017,2017,2049,2183
2061,2054,2073,2040,2038,1978,2032,2180
2048,2034,2056,2038,2070,1984,2032,2181
2054,2045,2064,2057,2114,2021,2038,2196
2067,2064,2074,2072,2139,2042,2052,2200
2066,2063,2082,2065,2130,2049,2049,2191
2066,2071,2083,2058,2111,2039,2064,2190
2070,2081,2074,2046,2111,2024,2038,2182
2065,2066,2062,2014,2050,2012,2032,2172
2059,2059,2053,2015,2091,2039,2035,2166
2062,2058,2061,2056,2153,2070,2045,2169
2070,2064,2070,2080,2133,2064,2059,2164
2068,2064,2072,2069,2088,2052,2067,2165
2069,2067,2064,2054,2069,2065,2063,2156
2066,2057,2057,2038,2063,2070,2058,2147
2060,2058,2049,2037,2069,2069,2062,2140
2051,2043,2044,2022,2022,2043,2039,2128
2049,2040,2040,2008,1984,2014,2034,2110
2035,2030,2031,2002,1961,2021,2046,2114
2043,2029,2036,2012,1929,2019,2065,2125
2058,2044,2045,2026,1954,2031,2063,2144
2060,2051,2045,2024,2012,2046,2064,2150
2067,2061,2050,2031,2052,2047,2045,2164
2072,2061,2047,2047,2055,2034,2056,2176
2064,2061,2047,2048,2038,2026,2061,2175
2065,2056,2046,2047,2039,2020,2054,2184
2066,2054,2043,2050,2033,2024,2038,2185
2061,2054,2052,2062,2052,2028,2030,2189
2060,2050,2060,2072,2067,2035,2050,2196
2056,2046,2062,2068,2055,2044,2063,2194
2058,2041,2060,2058,2019,2045,2059,2194
2056,2038,2053,2049,2010,2047,2041,2192
2059,2040,2047,2038,2028,2046,2049,2203
2059,2035,2036,2037,2040,2027,2046,2193
2043,2023,2024,2034,2051,2018,2040,2185
2043,2024,2026,2036,2069,2032,2039,2204
2058,2049,2039,2044,2075,2031,2064,2203
2064,2061,2052,2054,2104,2029,2073,2207
2063,2060,2057,2053,2097,2038,2058,2199
2064,2063,2054,2051,2099,2038,2064,2199
2066,2064,2057,2047,2116,2040,2063,2196
2067,2059,2044,2047,2124,2038,2062,2186
2062,2055,2029,2037,2112,2031,2046,2178
2062,2058,2021,2032,2095,2028,2056,2169
2062,2050,2014,2035,2098,2029,2048,2162
2055,2038,2011,2033,2091,2029,2045,2161
2054,2042,2011,2034,2081,2023,2044,2155
2056,2042,2014,2026,2070,2019,2042,2152
2052,2045,2016,2039,2069,2016,2039,2157
2050,2046,2019,2031,2065,2014,2031,2148
2040,2034,2015,2032,2064,2024,2016,2149
2042,2045,2026,2043,2074,2037,2029,2169
2048,2054,2030,2051,2077,2043,2062,2174
2054,2056,2037,2056,2078,2034,2036,2183
2061,2058,2032,2051,2072,2031,2035,2189
2054,2057,2043,2053,2075,2031,2046,2192
2059,2054,2051,2051,2072,2029,2022,2206
2052,2057,2062,2049,2072,2029,2050,2215
2055,2055,2078,2056,2076,2036,2031,2212
2056,2064,2081,2055,2079,2052,2044,2220
2064,2063,2078,2058,2079,2058,2048,2223
2063,2065,2083,2057,2079,2063,2048,2223
2056,2066,2083,2043,2068,2056,2056,2233
2060,2062,2084,2057,2070,2042,2049,2231
2060,2065,2087,2066,2072,2040,2039,2232
2061,2058,2086,2061,2058,2029,2014,2221
2051,2050,2088,2064,2064,2026,2018,2216
2053,2060,2104,2081,2072,2033,2035,2223
2064,2076,2114,2085,2074,2038,2048,2228
2070,2070,2101,2079,2075,2033,2044,2222
2066,2074,2088,2070,2073,2025,2055,2211
2062,2070,2088,2065,2068,2032,2043,2212
2054,2073,2079,2073,2072,2035,2039,2213
2058,2068,2071,2072,2079,2034,2050,2207
2055,2060,2063,2069,2076,2037,2052,2208
2052,2057,2059,2072,2083,2041,2048,2206
2056,2059,2059,2064,2071,2042,2031,2200
2055,2057,2053,2060,2062,2040,2055,2192
2049,2056,2043,2038,2059,2036,2061,2182
2046,2049,2020,2018,2047,2028,2049,2181
2040,2039,2017,2010,2050,2033,2062,2176
2045,2043,2019,2001,2046,2032,2036,2177
2040,2037,2013,2006,2056,2031,2044,2180
2045,2042,2030,2023,2068,2045,2030,2195
2059,2065,2051,2044,2077,2049,2053,2190
2060,2064,2056,2059,2071,2047,2049,2197
2056,2060,2053,2059,2080,2052,2051,2212
2057,2058,2051,2057,2084,2055,2058,2216
2053,2061,2044,2056,2067,2062,2056,2224
2054,2051,2036,2052,2055,2065,2043,2224
2052,2046,2030,2043,2044,2059,2024,2232
2047,2049,2033,2035,2030,2049,2039,2234
2047,2040,2036,2031,2030,2020,2044,2231
2039,2046,2048,2036,2059,1995,2035,2239
2046,2055,2061,2052,2086,1998,2047,2247
2047,2056,2061,2051,2089,2020,2060,2247
2053,2061,2049,2041,2090,2042,2059,2253
2056,2054,2040,2030,2077,2026,2047,2240
2043,2041,2030,2023,2055,2019,2040,2242
2044,2047,2039,2028,2035,2044,2060,2258
2058,2065,2051,2032,2029,2050,2064,2264
2060,2071,2049,2025,2022,2050,2059,2255
2063,2067,2047,2024,2006,2037,2042,2257
2057,2065,2045,2028,1986,2031,2051,2247
2062,2069,2043,2039,2000,2039,2060,2250
2064,2072,2046,2044,2032,2050,2060,2242
2060,2067,2042,2043,2051,2037,2047,2239
2062,2064,2039,2040,2052,2032,2063,2227
2056,2056,2049,2058,2093,2026,2062,2219
2053,2050,2052,2081,2102,2027,2060,2207
2053,2057,2055,2090,2132,2030,2041,2206
2048,2053,2049,2085,2144,2040,2037,2191
2050,2041,2046,2064,2139,2043,2042,2191
2043,2043,2033,2037,2036,2016,2004,2179
2023,2025,2028,2014,1990,2009,2022,2180
2025,2043,2040,2039,2080,2033,2035,2207
2049,2054,2055,2059,2105,2042,2060,2216
2051,2051,2056,2061,2117,2046,2037,2227
2055,2054,2058,2063,2109,2037,2019,2232
2057,2060,2056,2056,2070,2025,2018,2240
2055,2059,2055,2046,2051,2023,2037,2246
2064,2067,2061,2052,2026,2020,2030,2255
2061,2065,2067,2054,1982,2021,2037,2261
2064,2065,2068,2058,1977,2023,2050,2257
2056,2065,2065,2076,2042,2039,2050,2262
2064,2067,2069,2081,2085,2048,2056,2268
2066,2072,2062,2079,2065,2055,2042,2265
2063,2067,2058,2077,2100,2060,2055,2269
2062,2072,2059,2080,2104,2055,2050,2270
2063,2070,2053,2077,2091,2057,2048,2268
2055,2051,2049,2081,2118,2058,2040,2271
2047,2061,2059,2091,2175,2084,2043,2276
2058,2067,2059,2077,2179,2077,2014,2271
2056,2066,2052,2056,2057,2044,2012,2266
2054,2056,2056,2028,1924,2005,2038,2259
2048,2054,2058,2040,2014,2021,2039,2263
2049,2059,2062,2064,2052,2040,2057,2261
2055,2060,2065,2073,2059,2040,2037,2257
2058,2066,2065,2072,2062,2047,2037,2247
2057,2062,2065,2072,2094,2055,2054,2235
2049,2065,2060,2069,2112,2047,2050,2235
2044,2056,2056,2048,2052,2019,2029,2231
2044,2050,2055,2044,1988,2007,2029,2224
2046,2054,2052,2049,1989,2010,2034,2218
2036,2054,2062,2059,2021,2024,2027,2218
2036,2048,2048,2052,2046,2011,2020,2216
2034,2036,2043,2060,2044,2003,2007,2216
2035,2047,2056,2074,2032,2009,2023,2217
2046,2053,2056,2072,2025,2011,2018,2219
2039,2045,2052,2073,2032,2015,2014,2225
2034,2045,2041,2072,2024,2028,2025,2235
2032,2044,2037,2076,2058,2050,2035,2236
2039,2038,2034,2072,2059,2050,2023,2247
2035,2034,2031,2067,2041,2039,2033,2245
2042,2041,2025,2063,2087,2009,2033,2264
2040,2048,2027,2078,2134,2000,2041,2278
2051,2059,2034,2084,2126,2012,2058,2294
2060,2063,2038,2081,2124,2035,2051,2297
2065,2070,2042,2077,2141,2043,2054,2299
2059,2060,2027,2065,2146,2054,2056,2292
2042,2047,2015,2049,2143,2078,2047,2295
2047,2037,2004,2051,2153,2083,2053,2286
2039,2024,1999,2022,2121,2076,2058,2286
2050,2034,1996,2019,2085,2103,2061,2298
2055,2042,2012,2019,2074,2086,2052,2298
2053,2041,2035,2022,2043,2044,2068,2289
2058,2049,2053,2035,2027,2019,2061,2278
2054,2055,2066,2048,2022,2022,2055,2264
2051,2058,2075,2061,2052,2041,2039,2263
2062,2072,2072,2069,2066,2033,2026,2259
2058,2070,2070,2067,2068,2037,2043,2253
2051,2063,2060,2066,2056,2026,2029,2248
2039,2063,2041,2062,2037,2018,2045,2244
2043,2052,2036,2067,2017,2011,2056,2241
2041,2047,2033,2070,2033,2020,2040,2225
2034,2046,2031,2069,2041,2022,2054,2219
2029,2042,2039,2060,2047,2019,2040,2216
2022,2033,2024,2047,2021,1995,2022,2211
2017,2023,2013,2031,2010,2006,2030,2218
2035,2047,2033,2052,2037,2020,2049,2234
2053,2065,2067,2058,2052,2033,2043,2248
2056,2081,2090,2058,2065,2041,2051,2253
2049,2090,2095,2060,2068,2039,2040,2246
2054,2077,2087,2060,2073,2036,2042,2258
2052,2070,2074,2062,2066,2036,2048,2268
2051,2066,2066,2056,2066,2038,2050,2274
2051,2071,2052,2052,2061,2034,2053,2273
2050,2068,2053,2051,2062,2037,2044,2279
2057,2074,2054,2047,2068,2033,2054,2281
2047,2069,2049,2045,2047,2032,2050,2281
2052,2067,2050,2044,2018,2032,2042,2286
2048,2065,2056,2052,2024,2030,2030,2286
2042,2067,2065,2057,2022,2030,2041,2286
2045,2059,2061,2049,2021,2016,2030,2279
2031,2045,2055,2057,2023,2019,2026,2274
2044,2063,2070,2074,2029,2027,2059,2288
2058,2071,2079,2074,2038,2030,2030,2288
2059,2076,2072,2084,2040,2031,2042,2287
2066,2073,2063,2081,2047,2036,2038,2287
2061,2073,2061,2082,2044,2038,2031,2276
2060,2073,2058,2077,2047,2039,2037,2268
2055,2074,2053,2073,2053,2042,2042,2258
2053,2064,2047,2072,2064,2050,2040,2248
2048,2062,2047,2072,2074,2045,2041,2235
2044,2059,2049,2080,2079,2049,2032,2238
2044,2052,2050,2079,2083,2044,2042,2225
2039,2051,2042,2080,2073,2040,2039,2226
2046,2064,2045,2081,2077,2041,2046,2223
2053,2065,2045,2075,2080,2042,2050,2223
2039,2043,2022,2063,2070,2027,2036,2212
2032,2037,2016,2061,2064,2030,2049,2211
2048,2057,2030,2063,2072,2031,2051,2221
2044,2058,2025,2054,2067,2030,2037,2227
2049,2063,2029,2047,2060,2033,2035,2227
2050,2067,2037,2056,2060,2036,2034,2234
2054,2064,2038,2059,2061,2036,2048,2243
2048,2068,2036,2074,2064,2039,2054,2248
2051,2068,2032,2076,2066,2039,2051,2247
2049,2062,2023,2075,2067,2037,2043,2246
2053,2050,2004,2060,2062,2042,2038,2252
2042,2049,1985,2050,2046,2038,2040,2249
2043,2038,1974,2050,2043,2040,2031,2249
2041,2031,1983,2065,2047,2032,2039,2256
2040,2016,1977,2073,2040,2021,2009,2260
2040,2012,1988,2074,2027,2017,2001,2252
2039,2010,1989,2071,2021,2023,2005,2242
2048,2018,2014,2083,2024,2033,2004,2244
2060,2056,2051,2112,2039,2057,2044,2240
2047,2064,2057,2114,2047,2064,2040,2240
2035,2063,2064,2105,2056,2048,2045,2246
2033,2065,2071,2098,2076,2021,2056,2237
2040,2078,2082,2095,2085,2025,2057,2247
2056,2093,2094,2080,2082,2041,2056,2241
2058,2100,2100,2067,2070,2046,2070,2242
2061,2107,2109,2054,2067,2049,2067,2239
2060,2107,2122,2050,2056,2054,2060,2226
2065,2104,2131,2044,2043,2049,2045,2218
2062,2101,2130,2031,2037,2044,2042,2209
2063,2096,2123,2040,2039,2046,2027,2197
2058,2103,2111,2047,2045,2038,2011,2199
2059,2091,2089,2040,2042,2015,1998,2177
2045,2061,2064,2026,2040,2011,2012,2168
2036,2056,2056,2040,2064,2028,2002,2178
2042,2064,2062,2043,2088,2032,2004,2182
2053,2067,2060,2044,2072,2024,2006,2188
2049,2067,2063,2039,2027,2014,2004,2192
2054,2076,2071,2045,1980,2000,1997,2206
2057,2080,2067,2051,1976,2007,2004,2213
2063,2085,2072,2057,1989,2016,2032,2216
2069,2088,2076,2058,1983,2034,2041,2225
2063,2085,2084,2066,1986,2037,2016,2222
2070,2084,2095,2071,1966,2036,2039,2225
2066,2084,2096,2068,1914,2029,2041,2234
2062,2085,2096,2061,1898,2026,2032,2228
2056,2076,2081,2061,1974,2026,2016,2219
2053,2062,2057,2056,1996,2019,2022,2217
2051,2060,2054,2061,1980,2019,2009,2212
2047,2051,2047,2076,2079,2027,2020,2205
2041,2041,2037,2083,2150,2040,2029,2209
2045,2062,2047,2092,2138,2065,2025,2207
2051,2060,2047,2088,2133,2075,2034,2201
2058,2064,2041,2082,2106,2070,2037,2204
2055,2064,2037,2070,2079,2045,2036,2198
2049,2057,2032,2058,2069,2013,2033,2190
2050,2062,2034,2055,2074,1995,2030,2202
2056,2072,2042,2073,2134,2018,2033,2189
2056,2074,2056,2077,2145,2043,2018,2180
2060,2072,2059,2063,2129,2055,2048,2177
2054,2074,2058,2060,2144,2050,2042,2168
2059,2074,2064,2046,2129,2038,2050,2156
2062,2071,2077,2052,2125,2046,2039,2145
2064,2080,2087,2081,2156,2055,2045,2144
2065,2079,2083,2083,2165,2056,2026,2137
2058,2060,2065,2074,2150,2044,2000,2132
2049,2052,2054,2061,2114,2045,2032,2139
2059,2062,2059,2061,2087,2039,2036,2146
2066,2069,2067,2059,1994,2020,2031,2147
2064,2071,2073,2038,1927,2002,2031,2157
2070,2074,2075,2032,1961,2013,2043,2170
2067,2067,2064,2034,1993,2023,2032,2168
2066,2067,2060,2028,2003,2024,2040,2175
2060,2066,2059,2043,2023,2033,2037,2169
2059,2068,2058,2050,2034,2036,2045,2176
2059,2069,2057,2058,2038,2040,2049,2175
2056,2064,2064,2068,2044,2042,2045,2176
2057,2074,2055,2078,2041,2044,2058,2182
2055,2070,2043,2080,2038,2052,2031,2182
2057,2061,2037,2091,2049,2060,2027,2176
2053,2062,2029,2099,2063,2076,2026,2167
2045,2045,2009,2080,2060,2068,2031,2168
2039,2037,1998,2055,2060,2068,2026,2170
2048,2051,1998,2052,2059,2053,2034,2166
2057,2041,1983,2027,2052,1999,2025,2165
2054,2034,1976,2013,2046,1990,2034,2166
2060,2042,1963,2005,2052,2009,2035,2159
2062,2041,1962,2014,2050,2027,2048,2162
2071,2052,1976,2027,2057,2037,2039,2161
2074,2057,1988,2046,2065,2040,2041,2155
2072,2060,1991,2052,2071,2040,2050,2145
2066,2050,1989,2041,2069,2044,2058,2133
2068,2055,1986,2048,2058,2037,2030,2121
2066,2048,1990,2048,2053,2033,2047,2115
2059,2064,2008,2043,2046,2031,2026,2118
2068,2066,2020,2052,2048,2028,2020,2105
2067,2069,2019,2060,2044,2024,2011,2095
2059,2055,2013,2053,2035,2011,2003,2091
2049,2044,2015,2054,2033,2007,2017,2093
2057,2055,2033,2066,2042,2016,2026,2106
2061,2058,2060,2068,2029,2008,2029,2105
2059,2064,2098,2066,2026,2018,2042,2115
2061,2089,2154,2081,2026,2023,2045,2128
2079,2111,2196,2099,2033,2024,2046,2135
2079,2122,2196,2103,2046,2019,2045,2146
2079,2103,2173,2108,2046,2014,2040,2146
2076,2096,2143,2115,2058,2013,2041,2150
2071,2084,2122,2113,2067,2020,2052,2152
2059,2078,2107,2107,2066,2026,2047,2147
2061,2076,2086,2098,2073,2031,2052,2145
2056,2070,2074,2091,2076,2033,2042,2140
2062,2068,2066,2081,2077,2032,2025,2134
2051,2066,2062,2069,2084,2031,2019,2128
2048,2052,2044,2045,2070,2025,1999,2118
2040,2039,2038,2038,2063,2032,2007,2117
2049,2058,2054,2046,2045,2049,2027,2127
2062,2071,2056,2046,2007,2048,2044,2119
2062,2064,2050,2034,2008,2037,2049,2109
2055,2065,2055,2036,2029,2028,2031,2103
2056,2058,2043,2039,2032,2023,2024,2102
2049,2053,2028,2024,2013,2018,2030,2099
2050,2051,2019,2020,1995,2012,2023,2085
2056,2059,2067,2060,2002,2018,2033,2083
2068,2070,2110,2086,2016,2023,2032,2073
2066,2071,2099,2100,2051,2045,2032,2069
2070,2073,2089,2141,2107,2060,2081,2070
2080,2077,2095,2164,2136,2063,2059,2062
2068,2078,2084,2172,2150,2088,2052,2056
2071,2066,2068,2172,2137,2097,2043,2048
2059,2046,2052,2172,2100,2077,2033,2029
2052,2024,2049,2174,2078,2066,2034,2025
2041,2035,2059,2191,2076,2073,2031,2040
2063,2064,2071,2212,2092,2066,2046,2046
2069,2082,2080,2217,2113,2034,2049,2056
2070,2085,2071,2212,2124,2039,2057,2065
2076,2082,2062,2192,2108,2046,2044,2067
2070,2074,2055,2147,2090,2040,2037,2069
2055,2062,2026,2090,2054,2028,2031,2071
2048,2045,1995,2032,2032,2021,2034,2076
2056,2051,1995,1993,2039,2027,2047,2084
2060,2066,1998,1993,2050,2054,2064,2092
2063,2066,2006,2002,2050,2047,2055,2088
2062,2054,2000,1981,2027,2035,2047,2085
2053,2044,1986,1945,2008,2020,2048,2095
2059,2056,2012,1927,1987,2007,2043,2102
2066,2081,2059,1950,1979,1999,2025,2092
2061,2082,2075,1961,1998,2004,2027,2092
2059,2076,2080,1967,2020,2032,2052,2115
2083,2098,2100,2009,2063,2050,2055,2120
2093,2096,2105,2019,2081,2058,2069,2114
2098,2087,2096,2027,2085,2064,2064,2112
2098,2088,2091,2025,2082,2061,2061,2102
2085,2080,2086,2012,2075,2047,2058,2079
2075,2071,2083,1996,2050,2054,2052,2066
2062,2074,2086,1992,2028,2055,2038,2053
2056,2073,2088,1990,2009,2054,2039,2052
2061,2077,2087,1996,1997,2052,2053,2042
2062,2071,2082,2004,1997,2033,2045,2030
2055,2067,2078,2023,2016,1991,2034,2031
2057,2069,2084,2053,2043,1983,2043,2043
2053,2080,2084,2074,2081,2001,2045,2040
2056,2084,2082,2084,2095,2031,2039,2021
2043,2062,2064,2060,2090,2041,2047,2015
2041,2050,2046,2053,2086,2055,2044,2031
2056,2069,2047,2071,2084,2063,2062,2039
2070,2069,2046,2078,2069,2060,2042,2038
2071,2062,2045,2065,2065,2052,2055,2039
2061,2064,2042,2046,2068,2041,2038,2042
2062,2056,2028,2051,2062,2033,2016,2044
2056,2052,2021,2070,2051,2021,2030,2056
2058,2057,2030,2087,2042,2013,2030,2063
2065,2065,2033,2103,2045,2008,2032,2066
2064,2072,2033,2099,2027,2013,2028,2064
2067,2068,2026,2096,2026,2015,2040,2057
2061,2053,2009,2084,2033,2029,2035,2056
2067,2062,2017,2093,2082,2059,2048,2060
2060,2067,2012,2098,2112,2063,2059,2068
2061,2059,2008,2079,2074,2049,2075,2064
2051,2045,2000,2038,2048,2024,2025,2052
2034,2022,1994,2010,2018,2012,2023,2046
2033,2026,2023,2010,2021,2019,2020,2050
2056,2056,2060,2021,2034,2025,2038,2056
2068,2076,2079,2038,2054,2038,2054,2049
2067,2086,2105,2066,2069,2045,2047,2054
2080,2088,2118,2071,2065,2048,2051,2056
2080,2080,2118,2069,2052,2049,2058,2054
2077,2081,2111,2062,2052,2046,2045,2041
2076,2080,2084,2029,2044,2047,2071,2040
2077,2077,2072,2006,2031,2046,2063,2035
2076,2079,2080,1993,2034,2049,2063,2021
2072,2075,2089,1979,2027,2052,2069,2018
2069,2085,2092,1978,2032,2050,2057,2010
2070,2091,2100,1993,2030,2042,2069,2011
2074,2085,2093,2002,2020,2034,2050,2004
2064,2069,2062,2012,2008,2016,2037,1993
2050,2046,2045,2010,1998,2010,2042,2000
2055,2055,2048,2023,2001,2016,2036,2013
2068,2066,2054,2037,2012,2026,2045,2015
2072,2070,2051,2061,2039,2032,2043,2024
2072,2073,2061,2084,2035,2038,2030,2024
2075,2074,2066,2084,2025,2037,2054,2031
2077,2076,2063,2086,2039,2042,2054,2037
2073,2076,2056,2084,2058,2050,2045,2037
2070,2068,2050,2088,2060,2060,2036,2036
2067,2063,2049,2080,2029,2061,2045,2041
2073,2063,2048,2062,2020,2063,2064,2040
2074,2062,2039,2040,2031,2061,2054,2037
2071,2052,2026,2010,2041,2035,2047,2040
2061,2049,2018,2021,2056,2014,2049,2053
2069,2044,2021,2041,2056,2033,2062,2057
2070,2052,2029,2065,2053,2040,2064,2046
2051,2031,2013,2063,2036,2027,2066,2038
2050,2023,1997,2052,2023,2023,2059,2039
2061,2035,1992,2040,2014,2016,2062,2039
2063,2039,1982,2033,2065,2027,2069,2039
2060,2035,1980,2028,2069,2030,2063,2034
2064,2041,1982,2026,2063,2030,2053,2029
2062,2035,1975,2019,2052,2031,2057,2026
2062,2033,1973,2019,2051,2033,2064,2015
2056,2024,1964,2025,2055,2029,2063,2011
2053,2027,1969,2016,2053,2032,2054,1996
2057,2029,1984,2008,2037,2030,2066,2000
2057,2043,2021,2007,2039,2028,2058,2001
2067,2067,2071,2020,2039,2026,2062,1995
2070,2081,2092,2014,2037,2023,2048,1994
2063,2075,2074,2007,2026,2022,2058,1989
2053,2060,2053,2009,2031,2022,2043,1985
2043,2052,2055,2014,2031,2028,2043,1988
2046,2054,2069,2028,2033,2048,2064,1993
2060,2069,2085,2051,2043,2050,2072,2003
2055,2058,2072,2044,2040,2052,2068,2003
2058,2055,2069,2037,2034,2048,2050,2009
2062,2058,2075,2019,2026,2044,2061,2018
2061,2062,2083,2010,2018,2040,2067,2040
2075,2080,2109,2022,1997,2039,2065,2043
2088,2092,2100,2012,1960,2045,2062,2044
2086,2082,2087,2007,1930,2050,2068,2046
2079,2077,2073,2014,1908,2050,2069,2049
2079,2077,2066,2021,1908,2050,2061,2049
2076,2074,2066,2023,1911,2041,2050,2045
2073,2068,2063,2025,1942,2034,2028,2044
2080,2068,2070,2038,2018,2042,2057,2056
2072,2069,2071,2047,2069,2045,2051,2048
2066,2050,2057,2032,2057,2036,2049,2044
2059,2044,2049,2019,2080,2036,2051,2042
2070,2070,2066,2038,2118,1992,2073,2069
2086,2068,2070,2046,2105,1979,2058,2057
2075,2068,2068,2041,2079,2020,2067,2043
2065,2055,2054,2034,2050,2061,2029,2028
2058,2058,2063,2068,2070,2113,2066,2031
2071,2065,2083,2105,2043,2107,2065,2037
2076,2067,2096,2103,2058,2056,2094,2050
2086,2076,2082,2100,2100,2052,2066,2040
2079,2068,2068,2100,2089,2061,2043,2023
2080,2059,2062,2092,2078,2054,2046,2011
2071,2054,2046,2088,2093,2048,2028,1995
2068,2048,2033,2091,2119,2054,2028,1984
2066,2054,2031,2088,2134,2054,2037,1974
2065,2057,2025,2086,2126,2047,2041,1976
2058,2039,2004,2069,2107,2035,2028,1974
2056,2022,1992,2054,2094,2040,2037,1978
2064,2039,1993,2042,2086,2047,2043,1985
2072,2052,1991,2030,2077,2049,2060,1998
2075,2052,1997,2018,2074,2049,2056,2002
2083,2059,1990,2003,2059,2046,2050,2011
2074,2059,1985,1973,2040,2030,2034,2014
2066,2046,1997,1950,2014,2020,2025,2018
2068,2047,2020,1957,2001,2022,2022,2022
2062,2040,2053,1980,2004,2026,2031,2029
2062,2037,2069,1991,2012,2024,2044,2033
2061,2041,2082,2019,2032,2040,2048,2039
2063,2048,2092,2043,2047,2041,2050,2040
2066,2054,2106,2057,2054,2047,2033,2043
2063,2052,2105,2061,2052,2041,2035,2044
2066,2051,2094,2053,2040,2036,2056,2041
2058,2037,2068,2039,2032,2028,2051,2043
2050,2032,2063,2041,2039,2037,2060,2044
2068,2047,2070,2053,2046,2050,2068,2046
2074,2057,2069,2060,2046,2051,2049,2046
2070,2054,2062,2049,2045,2053,2059,2044
2064,2054,2063,2048,2056,2057,2054,2047
2067,2056,2067,2052,2057,2057,2050,2039
2067,2060,2069,2051,2062,2056,2058,2038
2067,2064,2066,2048,2061,2052,2062,2025
2070,2061,2061,2046,2051,2055,2074,2021
2066,2055,2062,2052,2064,2046,2054,2011
2071,2056,2060,2054,2074,2039,2046,1999
2068,2056,2057,2057,2079,2035,2041,1987
2067,2049,2059,2059,2084,2042,2045,1993
2064,2052,2058,2054,2065,2034,2030,1987
2065,2049,2059,2046,2008,2023,2035,1974
2052,2039,2047,2030,1986,2003,2020,1963
2046,2031,2038,2028,2009,1994,2022,1970
2052,2047,2040,2040,2036,2013,2013,1978
2062,2042,2036,2053,2047,2016,2016,1994
2063,2047,2044,2076,2050,2016,2030,2001
2062,2048,2058,2099,2057,2022,2028,2004
2065,2042,2060,2106,2063,2036,2028,2010
2052,2037,2054,2101,2070,2034,2042,2017
2054,2034,2045,2102,2083,2038,2038,2015
2060,2030,2038,2103,2076,2041,2045,2016
2057,2026,2024,2093,2071,2053,2054,2027
2057,2027,2019,2088,2065,2056,2053,2029
2059,2028,2007,2083,2056,2051,2056,2028
2055,2023,1993,2075,2057,2048,2046,2025
2059,2021,1984,2068,2037,2036,2041,2020
2048,2014,1979,2050,2035,2033,2038,2010
2044,1997,1960,2001,2008,2012,2018,2002
2033,1991,1975,1982,1991,2001,2011,2004
2041,2007,2005,1964,1997,2011,2017,2015
2050,2019,2030,1966,2004,2015,2024,2011
2052,2038,2043,1975,2025,2029,2021,2026
2067,2074,2069,2001,2039,2042,2054,2033
2074,2080,2098,2019,2053,2048,2043,2024
2075,2078,2111,2033,2056,2051,2047,2017
2071,2074,2113,2047,2059,2049,2047,2014
2070,2078,2113,2053,2061,2049,2050,2014
2072,2072,2100,2053,2068,2045,2054,2001
2072,2067,2084,2057,2069,2041,2070,1999
2074,2060,2077,2047,2061,2034,2053,1992
2070,2054,2066,2048,2053,2032,2037,1983
2065,2044,2057,2053,2049,2033,2054,1981
2064,2041,2055,2060,2045,2032,2052,1973
2068,2041,2054,2050,2041,2026,2044,1965
2056,2025,2045,2036,2034,2017,2041,1967
2058,2034,2051,2048,2043,2025,2049,1974
2067,2049,2054,2043,2038,2029,2058,1980
2068,2047,2060,2042,2037,2034,2041,1983
2067,2039,2060,2041,2033,2039,2040,1987
2073,2046,2056,2041,2031,2051,2050,1995
2066,2041,2052,2039,2035,2064,2032,2002
2068,2041,2058,2042,2044,2076,2049,2018
2074,2041,2051,2051,2047,2073,2062,2019
2071,2039,2051,2056,2048,2068,2056,2019
2070,2038,2049,2088,2048,2055,2044,2017
2070,2036,2047,2102,2048,2056,2046,2017
2071,2036,2043,2102,2063,2074,2063,2020
2069,2027,2035,2105,2068,2077,2049,2024
2065,2022,2033,2098,2075,2080,2038,2026
2067,2024,2026,2096,2077,2061,2048,2022
2059,2013,2008,2075,2067,2016,2044,2020
2056,2017,2007,2074,2070,2007,2053,2032
2073,2029,2017,2077,2076,2015,2060,2022
2077,2026,2015,2069,2066,2028,2048,2018
2071,2028,2021,2061,2064,2037,2072,2015
2071,2032,2018,2041,2057,2039,2061,2009
2070,2027,2014,2033,2046,2028,2043,2003
2068,2030,2017,2034,2037,2028,2045,1997
2062,2024,2016,2037,2036,2033,2056,1998
2062,2016,2012,2039,2027,2032,2061,1988
2056,2011,2014,2035,2015,2026,2038,1976
2053,2018,2031,2028,2014,2029,2041,1985
2060,2043,2072,2047,2033,2034,2066,1979
2074,2059,2105,2056,2040,2036,2030,1973
2069,2070,2122,2040,2043,2037,2042,1973
2075,2070,2125,2029,2030,2024,2028,1970
2067,2047,2108,2003,2019,2025,2028,1962
2074,2041,2089,1996,2010,2023,2056,1979
2083,2054,2087,2014,2021,2034,2070,1996
2082,2060,2085,2023,2024,2034,2057,1994
2086,2063,2081,2038,2028,2037,2060,2007
2090,2067,2082,2040,2035,2034,2062,2002
2085,2060,2077,2050,2038,2038,2045,2002
2082,2056,2075,2039,2032,2034,2038,2011
2071,2050,2068,2049,2030,2034,2048,2012
2081,2052,2064,2043,2033,2035,2054,2021
2077,2043,2065,2046,2039,2027,2051,2026
2082,2047,2059,2052,2034,2030,2050,2025
2080,2051,2058,2048,2043,2033,2032,2017
2082,2046,2059,2046,2038,2030,2043,2032
2079,2043,2056,2049,2051,2036,2043,2026
2079,2045,2057,2047,2040,2037,2049,2033
2072,2034,2041,2026,2019,2036,2030,2013
2064,2022,2041,2029,2006,2043,2040,2017
2069,2038,2051,2045,2051,2064,2035,2024
2076,2039,2056,2053,2076,2076,2042,2014
2082,2040,2048,2040,2057,2062,2046,2018
2081,2042,2054,2042,2030,2040,2041,2018
2076,2042,2056,2043,2013,2035,2019,2006
2070,2043,2052,2031,1992,2037,2010,1991
2066,2033,2050,2028,1974,2008,1990,1991
2070,2036,2052,2044,2010,1976,2019,1997
2078,2041,2050,2054,2049,2001,2032,1998
2080,2041,2049,2062,2084,2045,2063,1993
2072,2039,2043,2063,2104,2073,2070,1984
2064,2031,2038,2070,2097,2068,2056,1972
2063,2027,2043,2069,2077,2057,2053,1971
2059,2029,2046,2067,2070,2037,2053,1965
2061,2025,2035,2056,2042,2019,2029,1955
2052,2006,2024,2041,2008,2012,2036,1952
2054,2014,2025,2046,2031,2024,2037,1960
2068,2027,2031,2045,2062,2040,2049,1962
2067,2031,2029,2048,2073,2044,2038,1968
2072,2037,2032,2050,2063,2045,2051,1979
2074,2034,2039,2052,2043,2040,2054,1984
2071,2034,2035,2042,2017,2034,2042,1992
2075,2035,2045,2043,2024,2028,2046,2003
2076,2045,2055,2039,2042,2036,2041,2015
2074,2042,2053,2029,2032,2031,2056,2016
2081,2043,2054,2021,2028,2030,2045,2018
2081,2034,2047,2021,2036,2030,2044,2020
2079,2019,2021,2005,2018,2020,2014,2024
2076,2012,2017,2005,1998,2020,2034,2023
2078,2019,2024,2016,1991,2023,2045,2021
2080,2019,2040,2035,1998,2024,2037,2020
2057,2008,2038,2029,2014,2032,2023,2016
2056,2009,2033,2032,2023,2062,2027,2027
2074,2035,2052,2047,2025,2066,2048,2034
2079,2031,2044,2047,2010,2050,2037,2025
2084,2035,2040,2032,1989,2022,2049,2026
2091,2035,2043,2032,1986,1991,2052,2026
2089,2037,2054,2042,2004,1983,2060,2032
2095,2040,2065,2048,2017,2007,2052,2019
2089,2052,2081,2064,2039,2039,2046,2028
2107,2061,2099,2070,2063,2058,2060,2023
2108,2064,2100,2078,2070,2061,2063,2019
2106,2067,2087,2071,2066,2067,2059,2013
2101,2061,2082,2063,2083,2080,2042,1993
2094,2058,2082,2057,2088,2084,2046,1982
2088,2052,2082,2047,2072,2072,2064,1971
2080,2053,2078,2031,2024,2054,2056,1976
2075,2042,2066,2016,2002,2019,2042,1972
2069,2035,2059,2034,2038,1984,2048,1977
2077,2049,2072,2044,2070,2004,2043,1983
2084,2047,2070,2045,2076,2035,2054,1997
2084,2054,2080,2064,2077,2060,2071,1997
2093,2064,2081,2069,2017,2053,2057,2006
2097,2064,2078,2041,1917,2030,2075,2004
2095,2058,2068,2016,1930,2033,2056,2007
2088,2049,2065,2016,1980,2041,2039,2017
2080,2044,2060,2031,2020,2050,2050,2025
2086,2042,2059,2055,2095,2075,2056,2025
2083,2049,2064,2068,2168,2097,2067,2027
2086,2040,2067,2062,2171,2104,2063,2029
2086,2039,2069,2067,2181,2104,2061,2032
2088,2046,2068,2081,2188,2101,2063,2034
2089,2049,2062,2078,2157,2086,2057,2035
2083,2042,2062,2057,2116,2050,2045,2017
2073,2025,2043,2026,2013,2021,2042,2018
2072,2024,2038,2015,1949,2004,2036,2029
2083,2043,2048,2028,2001,2012,2044,2027
2083,2040,2042,2035,2078,2024,2052,2021
2079,2037,2051,2043,2093,2032,2055,2020
2083,2043,2049,2044,2082,2030,2074,2023
2083,2043,2046,2036,2051,2031,2066,2020
2093,2043,2058,2034,2038,2042,2046,2022
2089,2043,2057,2035,2040,2034,2060,2024
2087,2048,2056,2037,2055,2038,2067,2013
2087,2046,2055,2037,2058,2042,2063,2006
2086,2037,2058,2035,2052,2042,2075,1999
2085,2043,2057,2037,2039,2047,2085,1996
2076,2037,2058,2038,2041,2054,2092,1984
2080,2041,2061,2038,2051,2064,2066,1988
2080,2045,2068,2040,2052,2062,2071,1982
2075,2039,2057,2036,2048,2053,2061,1969
2065,2029,2052,2040,2056,2053,2048,1968
2068,2035,2065,2057,2058,2062,2057,1983
2080,2040,2068,2059,2062,2061,2062,1990
2080,2041,2071,2067,2066,2063,2038,1993
2089,2049,2074,2070,2071,2051,2055,1996
2092,2051,2077,2066,2056,2028,2034,2002
2089,2055,2070,2059,2039,2012,2051,2010
2088,2050,2060,2062,2036,2008,2034,2020
2086,2051,2057,2061,2035,2017,2052,2027
2090,2050,2062,2056,2079,2025,2058,2020
2084,2053,2060,2053,2077,2012,2049,2021
2083,2049,2063,2036,2018,2001,2054,2024
2081,2050,2066,2040,2008,2006,2059,2024
2073,2044,2065,2042,2001,2012,2063,2024
2077,2045,2059,2046,1992,2010,2053,2033
2079,2047,2062,2038,1997,2018,2060,2024
2072,2035,2050,2027,1985,2008,2051,2026
2074,2040,2048,2021,1989,2010,2049,2032
2080,2055,2064,2050,2028,2040,2065,2032
2081,2051,2059,2056,2066,2054,2068,2021
2076,2044,2053,2059,2082,2060,2062,2016
2076,2044,2050,2055,2088,2063,2068,2012
2073,2047,2051,2064,2082,2064,2072,2013
2075,2044,2048,2079,2089,2058,2084,2015
2073,2036,2049,2080,2087,2049,2068,2012
2072,2040,2049,2075,2087,2039,2070,2011
2076,2047,2056,2086,2096,2039,2081,2012
2085,2049,2066,2089,2089,2034,2069,2004
2087,2047,2064,2093,2085,2036,2070,1993
2080,2047,2068,2087,2081,2040,2076,1981
2078,2050,2060,2087,2070,2047,2063,1985
2084,2046,2057,2082,2077,2045,2078,1975
2082,2043,2043,2074,2067,2036,2051,1957
2063,2026,2027,2069,2056,2031,2046,1956
2057,2028,2028,2065,2045,2025,2055,1974
2068,2044,2047,2067,2053,2028,2057,1979
2072,2047,2043,2057,2038,2029,2053,1979
2074,2044,2031,2034,2031,2021,2048,1989
2080,2039,2027,2027,2024,2027,2048,1994
2081,2038,2024,2021,2035,2030,2038,2004
2077,2046,2036,2024,2037,2031,2053,2014
2087,2049,2042,2023,2039,2029,2068,2018
2090,2051,2040,2030,2032,2033,2058,2034
2086,2058,2037,2034,2046,2042,2061,2037
2098,2055,2034,2034,2051,2058,2074,2031
2091,2050,2036,2036,2047,2065,2055,2034
2082,2049,2045,2035,2047,2064,2056,2025
2080,2040,2047,2030,2040,2058,2049,2029
2087,2043,2047,2030,2042,2056,2059,2030
2081,2037,2028,2024,2029,2041,2051,2020
2071,2023,2011,2023,2029,2042,2047,2022
2064,2023,2019,2039,2035,2047,2056,2014
2081,2036,2028,2055,2045,2053,2057,2014
2080,2032,2023,2052,2040,2054,2064,2010
2074,2022,2019,2040,2044,2055,2062,2007
2077,2027,2036,2060,2058,2058,2061,2017
2084,2038,2054,2078,2053,2059,2079,2019
2094,2052,2068,2083,2065,2049,2084,2012
2092,2064,2073,2082,2058,2038,2079,2018
2087,2052,2063,2084,2052,2009,2067,2010
2083,2048,2056,2078,2052,1997,2065,2002
2083,2048,2058,2070,2045,2007,2064,1995
2084,2050,2078,2065,2041,2017,2064,1984
2088,2057,2076,2047,2043,2031,2056,1975
2078,2051,2064,2028,2032,2035,2053,1955
2074,2042,2049,1997,2021,2030,2037,1961
2065,2038,2062,1987,2025,2024,2032,1962
2070,2041,2080,1997,2027,2027,2055,1966
2079,2057,2090,1998,2035,2031,2061,1978
2084,2058,2081,2002,2032,2036,2060,1985
2086,2048,2066,2005,2033,2036,2063,1984
2086,2052,2064,2012,2032,2034,2062,1986
2085,2046,2064,2022,2033,2039,2060,1997
2079,2049,2065,2030,2029,2036,2061,2006
2079,2057,2081,2043,2032,2045,2063,2013
2086,2062,2086,2046,2039,2044,2055,2014
2089,2059,2081,2042,2038,2042,2060,2017
2085,2062,2072,2044,2039,2042,2066,2012
2082,2065,2071,2043,2016,2039,2054,2023
2084,2061,2063,2052,2044,2039,2046,2020
2089,2057,2062,2052,2071,2039,2065,2022
2092,2062,2064,2060,2070,2044,2076,2022
2094,2061,2073,2070,2072,2047,2063,2019
2084,2047,2063,2066,2045,2040,2059,2016
2077,2037,2053,2067,2033,2043,2071,2030
2088,2057,2070,2080,2055,2051,2066,2024
2091,2061,2067,2073,2047,2036,2060,2022
2085,2055,2056,2058,2013,2021,2056,2008
2081,2053,2045,2054,2020,2025,2048,2006
2083,2057,2048,2068,2050,2038,2038,2004
2083,2048,2042,2068,2067,2053,2053,1998
2082,2045,2039,2059,2061,2054,2056,1988
2078,2043,2044,2058,2062,2052,2047,1984
2082,2053,2049,2065,2060,2049,2057,1979
2079,2053,2043,2041,2042,2049,2052,1966
2074,2038,2030,2031,2039,2046,2056,1958
2063,2034,2026,2020,2039,2041,2048,1954
2073,2038,2031,2021,2037,2033,2057,1955
2074,2050,2032,2016,2021,2026,2041,1958
2085,2051,2018,2007,1998,2005,2035,1959
2076,2039,2015,2011,1988,1999,2032,1946
2066,2033,2016,2021,1995,2017,2026,1955
2082,2054,2028,2027,2017,2040,2047,1963
2083,2069,2042,2037,2046,2060,2050,1974
2094,2078,2054,2054,2056,2075,2052,1989
2102,2083,2057,2055,2047,2089,2047,1993
2096,2076,2050,2048,2023,2078,2031,2008
2096,2088,2052,2049,2029,2037,2037,2013
2102,2086,2061,2065,2053,2004,2044,2013
2106,2097,2068,2081,2077,2013,2062,2026
2107,2088,2067,2084,2092,2038,2056,2023
2104,2085,2064,2071,2075,2058,2071,2030
2102,2081,2063,2055,2038,2067,2060,2026
2095,2072,2053,2038,1989,2074,2058,2020
2089,2060,2050,2032,1971,2068,2056,2014
2088,2063,2068,2047,1976,2075,2061,2022
2084,2058,2064,2037,1975,2051,2039,2011
2066,2054,2066,2035,1918,2005,2030,2012
2072,2067,2085,2057,1988,2012,2048,2024
2084,2074,2092,2077,2090,2053,2046,2021
2078,2065,2079,2066,2092,2091,2048,2009
2071,2061,2072,2034,2016,2118,2048,2007
2069,2055,2066,2029,1988,2128,2060,2001
2069,2062,2065,2032,2044,2122,2029,1993
2070,2056,2052,2027,2084,2097,2024,1988
2068,2053,2049,2038,2109,2026,2045,2002
2082,2062,2066,2070,2118,1969,2064,2010
2091,2077,2078,2076,2109,1986,2046,1996
2088,2068,2068,2053,2043,1983,2043,1976
2069,2051,2055,2019,1943,1975,2042,1956
2064,2053,2058,2027,1989,2006,2037,1954
2064,2052,2055,2046,2054,2030,2040,1947
2064,2047,2054,2054,2064,2030,2035,1945
2055,2037,2038,2040,2076,2019,2024,1931
2050,2035,2038,2040,2078,2020,2039,1943
2063,2051,2050,2048,2081,2036,2054,1965
2067,2055,2053,2056,2088,2043,2024,1963
2070,2060,2054,2056,2085,2054,2043,1973
2076,2062,2050,2054,2073,2054,2057,1980
2072,2065,2045,2055,2068,2049,2057,1989
2077,2062,2042,2047,2054,2040,2052,1992
2077,2062,2041,2045,2041,2043,2056,2002
2074,2060,2044,2041,2040,2046,2049,1999
2074,2055,2042,2035,2014,2052,2040,1992
2072,2053,2046,2025,2013,2055,2041,1994
2072,2059,2046,2027,2016,2056,2044,1999
2068,2056,2046,2031,2004,2051,2044,2003
2067,2060,2050,2046,2016,2024,2044,2014
2072,2060,2062,2063,2060,2010,2029,2023
2077,2065,2065,2073,2094,2030,2035,2020
2064,2054,2056,2070,2110,2049,2040,2005
2057,2048,2054,2065,2102,2059,2068,2011
2065,2064,2070,2072,2090,2061,2062,2009
2063,2062,2067,2066,2077,2057,2047,2003
2063,2055,2069,2059,2074,2053,2058,2004
2059,2058,2065,2067,2068,2056,2053,1995
2056,2054,2063,2067,2070,2049,2058,1999
2062,2057,2054,2074,2073,2051,2036,1992
2063,2058,2055,2071,2071,2050,2042,1985
2057,2047,2048,2072,2069,2054,2028,1977
2064,2050,2043,2064,2072,2054,2028,1975
2057,2042,2038,2059,2068,2048,2031,1974
2056,2045,2036,2060,2063,2048,2028,1968
2055,2045,2036,2060,2065,2045,2046,1960
2065,2050,2037,2054,2075,2042,2053,1965
2065,2056,2031,2052,2073,2045,2053,1961
2069,2050,2028,2061,2069,2038,2038,1950
2056,2038,2027,2063,2092,2040,2039,1957
2051,2040,2033,2075,2112,2051,2042,1966
2064,2065,2046,2081,2116,2057,2039,1965
2063,2065,2047,2072,2108,2057,2029,1972
2070,2068,2042,2072,2098,2052,2027,1972
2067,2062,2044,2070,2107,2064,2030,1981
2065,2058,2037,2062,2106,2075,2022,1988
2054,2052,2039,2056,2093,2082,2038,1993
2057,2056,2033,2048,2085,2083,2034,1995
2050,2067,2040,2049,2088,2076,2026,2002
2056,2074,2061,2047,2049,2057,2039,2010
2057,2078,2068,2028,1929,2006,2036,2000
2059,2072,2065,2029,1927,1985,2028,2005
2052,2070,2065,2033,1957,1996,2039,2010
2058,2068,2058,2030,1981,2027,2040,2014
2058,2065,2054,2047,2047,2045,2037,2023
2059,2065,2052,2055,2083,2042,2037,2013
2059,2074,2058,2058,2071,2028,1995,2019
2062,2082,2076,2078,2075,2034,2031,2020
2064,2079,2081,2077,2048,2028,2019,2018
2061,2076,2078,2071,2046,2025,2022,2014
2056,2071,2070,2066,2054,2040,2028,2009
2058,2070,2060,2059,2052,2041,2039,2009
2054,2070,2053,2047,2023,2033,2036,1998
2060,2071,2058,2048,2042,2041,2049,2005
2060,2064,2058,2057,2054,2057,2048,2002
2056,2063,2052,2058,2052,2056,2064,1987
2057,2062,2056,2053,2061,2056,2042,1979
2053,2061,2057,2055,2064,2062,2053,1976
2056,2062,2052,2060,2067,2058,2055,1964
2051,2056,2049,2066,2061,2060,2044,1960
2052,2054,2038,2063,2046,2061,2050,1957
2051,2052,2033,2069,2037,2056,2049,1952
2041,2039,2009,2061,2031,2040,2036,1957
2039,2038,2004,2066,2035,2034,2044,1974
2056,2053,2020,2077,2046,2036,2054,1979
2060,2053,2020,2075,2037,2016,2057,1978
2048,2054,2015,2063,2018,2003,2047,1981
2050,2051,2017,2053,1990,1984,2031,1987
2050,2046,2006,2040,1960,1966,2019,1985
2036,2038,2001,2018,1937,1966,1990,1989
2036,2038,2002,2018,1950,1985,1996,1991
2045,2050,2015,2039,2003,2019,2011,2004
2055,2066,2043,2071,2056,2045,2049,2012
2060,2080,2058,2080,2080,2056,2049,2010
2065,2085,2072,2077,2107,2070,2051,2020
2067,2087,2075,2066,2100,2086,2044,2010
2062,2081,2072,2059,2082,2076,2056,2016
2059,2074,2082,2064,2066,2056,2035,2013
2052,2076,2083,2060,2051,2027,2018,2001
2039,2058,2052,2041,2038,2026,2027,1998
2036,2057,2042,2039,2045,2041,2033,2005
2052,2073,2053,2055,2058,2056,2044,2008
2055,2072,2057,2060,2065,2063,2060,2009
2054,2077,2065,2062,2062,2062,2044,2012
2058,2076,2070,2065,2071,2058,2039,2004
2053,2075,2074,2057,2064,2055,2044,2001
2051,2076,2070,2055,2067,2056,2043,1995
2051,2076,2072,2061,2072,2057,2045,1990
2049,2068,2076,2068,2073,2056,2042,1985
2051,2074,2077,2070,2072,2059,2051,1978
2051,2067,2071,2072,2064,2059,2045,1973
2054,2069,2062,2054,2063,2058,2038,1967
2051,2065,2057,2050,2062,2057,2026,1961
2045,2061,2057,2057,2046,2057,2030,1959
2050,2065,2068,2064,2039,2057,2050,1964
2051,2058,2067,2058,2019,2058,2018,1956
2036,2046,2060,2052,1983,2067,2000,1949
2034,2061,2068,2065,1976,2078,2052,1966
2057,2086,2078,2070,1982,2070,2045,1972
2064,2089,2069,2057,1981,2039,2037,1981
2070,2082,2051,2042,1990,1993,2040,1988
2064,2076,2042,2038,2037,1993,2037,1992
2054,2071,2041,2037,2081,2026,2043,1996
2046,2069,2033,2027,2114,2036,2020,1998
2046,2062,2018,2006,2106,2027,2008,1997
2035,2053,2020,2007,2065,2017,2018,1998
2033,2052,2022,2018,2062,2029,2025,2005
2039,2061,2034,2034,2078,2043,2026,2011
2053,2064,2045,2051,2089,2047,2012,2011
2051,2070,2051,2060,2082,2050,2029,2012
2053,2061,2056,2063,2061,2057,2043,2009
2052,2063,2053,2057,2040,2056,2035,2006
2038,2046,2035,2047,2041,2046,2028,2006
2038,2037,2035,2044,2065,2037,2029,2007
2043,2052,2048,2066,2098,2032,2022,2022
2055,2066,2048,2077,2112,2006,2022,2021
2048,2063,2047,2088,2126,2011,2028,2019
2048,2067,2046,2085,2121,2026,2039,2013
2047,2065,2040,2077,2105,2035,2043,2003
2048,2062,2036,2070,2096,2040,2052,1998
2048,2057,2034,2060,2076,2039,2047,1985
2040,2059,2026,2060,2048,2033,2048,1977
2039,2061,2017,2043,1977,2015,2042,1977
2033,2054,2022,2021,1927,2008,2042,1977
2032,2055,2033,2023,1970,2016,2040,1963
2032,2052,2033,2029,2004,2020,2041,1963
2045,2058,2026,2027,2016,2022,2038,1966
2044,2058,2018,2015,2027,2019,2042,1969
2042,2058,2017,2021,2028,2010,2035,1962
2035,2048,2026,2017,2023,2003,2014,1956
2035,2045,2040,2022,2031,2017,2023,1967
2046,2072,2062,2035,2045,2041,2021,1972
2048,2073,2061,2038,2044,2051,2014,1980
2048,2068,2063,2036,2028,2048,2032,1982
2055,2071,2057,2035,2027,2042,2033,1979
2049,2070,2055,2037,2034,2022,2038,1989
2049,2070,2056,2044,2040,1997,2047,2003
2048,2063,2049,2053,2048,2008,2043,2000
2041,2059,2044,2053,2039,2036,2032,2005
2040,2053,2039,2049,2031,2046,2038,1999
2041,2046,2038,2049,2022,2058,2056,2009
2046,2060,2050,2053,2022,2059,2034,2008
2044,2068,2050,2053,2028,2058,2049,2009
2044,2062,2042,2046,2039,2058,2045,2014
2047,2065,2052,2052,2034,2049,2035,2013
2050,2064,2042,2044,2012,2026,2045,2009
2031,2047,2038,2043,2032,2024,2031,2007
2038,2045,2037,2055,2050,2040,2034,2019
2049,2065,2043,2059,2060,2043,2048,2012
2046,2059,2042,2056,2048,2039,2051,2012
2042,2062,2043,2063,2039,2037,2040,2010
2047,2063,2040,2061,2030,2033,2064,2008
2051,2067,2043,2057,2033,2031,2041,2013
2050,2065,2037,2054,2044,2026,2056,1996
2046,2057,2032,2047,2051,2024,2044,1989
2041,2055,2020,2051,2054,2028,2050,1979
2039,2045,2016,2050,2061,2031,2031,1972
2036,2047,2018,2051,2075,2036,2029,1964
2038,2058,2023,2065,2092,2041,2019,1959
2038,2061,2019,2059,2088,2031,2047,1960
2037,2056,2011,2050,2067,2031,2036,1965
2041,2057,2005,2050,2058,2032,2039,1961
2041,2043,2005,2049,2052,2026,2035,1952
2035,2043,2019,2054,2052,2027,2042,1950
2039,2055,2039,2068,2061,2037,2044,1970
2042,2063,2050,2076,2068,2046,2054,1977
2047,2068,2057,2079,2062,2046,2050,1983
2046,2069,2056,2070,2058,2044,2055,1984
2039,2064,2060,2070,2051,2039,2052,1989
2043,2066,2050,2068,2056,2036,2035,1996
2039,2067,2053,2065,2056,2033,2030,1994
2034,2066,2056,2059,2054,2031,2037,2000
2031,2065,2066,2061,2048,2031,2033,2001
2034,2071,2077,2063,2056,2040,2045,2002
2038,2077,2095,2061,2057,2059,2064,2009
2038,2080,2081,2060,2052,2058,2078,2005
2042,2065,2069,2048,2043,2047,2030,2012
2040,2064,2053,2042,2030,2034,2020,2013
2038,2062,2047,2040,2040,2038,2034,2011
2028,2052,2034,2038,2029,2024,2036,2003
2037,2046,2024,2039,2030,2030,2041,2014
2044,2062,2027,2045,2037,2043,2046,2024
2053,2062,2033,2043,2039,2046,2055,2016
2045,2067,2035,2046,2041,2042,2040,2014
2048,2067,2038,2045,2040,2040,2034,2010
2051,2062,2035,2051,2046,2038,2039,2008
2051,2060,2028,2053,2059,2037,2057,2003
2046,2060,2032,2052,2082,2037,2047,2001
2045,2060,2024,2064,2088,2042,2067,1993
2044,2058,2025,2066,2097,2044,2048,1989
2034,2051,2025,2072,2088,2044,2040,1980
2037,2052,2025,2071,2074,2037,2044,1964
2034,2047,2025,2062,2068,2026,2053,1960
2036,2052,2024,2060,2062,2025,2042,1960
2036,2052,2022,2064,2060,2030,2054,1960
2032,2053,2016,2058,2062,2026,2026,1946
2017,2038,2009,2046,2059,2022,2028,1945
2017,2039,2016,2049,2052,2034,2034,1954
2035,2067,2044,2060,2054,2037,2046,1965
2038,2074,2052,2057,2042,2036,2057,1973
2039,2076,2060,2050,2025,2035,2042,1980
2042,2083,2076,2054,2026,2025,2051,1981
2045,2081,2090,2065,2033,2014,2057,1988
2040,2072,2066,2047,2036,2028,2059,2000
2045,2070,2044,2046,2041,2039,2046,1999
2040,2065,2031,2044,2048,2040,2049,2006
2044,2062,2030,2051,2041,2030,2035,2007
2044,2057,2034,2045,2034,2020,2036,2000
2043,2063,2040,2051,2029,2018,2025,2005
2043,2071,2045,2057,2022,2020,2046,2007
2039,2083,2044,2052,2029,2030,2051,2007
2044,2080,2050,2059,2031,2029,2044,2011
2044,2079,2055,2051,2037,2024,2029,2006
2036,2066,2047,2043,2015,2023,2039,2001
2027,2068,2058,2055,2033,2030,2046,2013
2041,2071,2064,2057,2031,2028,2048,2016
2043,2076,2062,2049,2023,2025,2049,2011
2039,2074,2064,2047,1997,2025,2032,2003
2033,2071,2064,2050,1979,2032,2046,2006
2042,2071,2070,2059,1995,2052,2055,2001
2045,2081,2074,2068,2043,2054,2061,1998
2035,2076,2069,2072,2070,2079,2059,1985
2033,2069,2052,2048,2058,2081,2036,1974
2031,2064,2040,2025,2041,2066,2032,1967
2029,2072,2054,2035,2048,2068,2036,1966
2032,2074,2062,2048,2036,2042,2025,1963
2035,2082,2064,2051,2031,1985,2044,1970
2040,2080,2068,2075,2083,1962,2064,1978
2044,2088,2067,2093,2126,2005,2090,1979
2039,2068,2055,2088,2159,2052,2081,1974
2027,2064,2044,2097,2196,2086,2086,1974
2028,2072,2052,2086,2155,2076,2091,1975
2033,2076,2051,2066,2094,2074,2079,1988
2036,2074,2043,2064,2075,2082,2089,1992
2044,2070,2046,2053,2057,2074,2092,1998
2044,2080,2045,2045,2039,2058,2089,2001
2037,2073,2040,2044,2036,2042,2081,2007
2040,2076,2046,2040,2041,2040,2068,2002
2034,2074,2044,2038,2037,2046,2068,2014
2035,2072,2040,2041,2037,2036,2029,2014
2039,2069,2041,2040,2042,2011,2059,2004
2032,2069,2041,2049,2057,2006,2040,2002
2031,2067,2045,2048,2069,2004,2028,1996
2030,2070,2043,2055,2076,2016,2030,1997
2038,2070,2045,2059,2073,2029,2043,2001
2031,2064,2041,2056,2063,2034,2022,1992
2019,2047,2024,2040,2055,2025,2010,1994
2023,2043,2028,2042,2042,2024,2002,2010
2028,2060,2037,2051,2054,2042,2023,2011
2035,2066,2044,2046,2049,2047,2008,2014
2030,2068,2043,2046,2045,2054,2038,2010
2030,2064,2046,2048,2053,2065,2045,2007
2025,2058,2038,2046,2053,2079,2066,2005
2028,2065,2041,2049,2054,2087,2061,1998
2031,2061,2048,2058,2058,2083,2053,2000
2034,2072,2056,2061,2062,2054,2070,1993
2034,2070,2053,2055,2062,2008,2054,1980
2036,2065,2057,2055,2056,2003,2053,1983
2035,2069,2056,2049,2061,2008,2054,1975
2026,2068,2052,2053,2053,2008,2032,1964
2034,2064,2047,2048,2046,2012,2044,1964
2033,2059,2047,2046,2045,2010,2057,1957
2033,2052,2047,2045,2051,2017,2040,1955
2021,2035,2029,2035,2041,2042,2035,1950
2017,2033,2031,2039,2033,2074,2048,1961
2030,2057,2046,2042,2032,2080,2051,1968
2030,2063,2050,2050,2037,2083,2049,1980
2032,2066,2050,2048,2029,2061,2046,1985
2035,2068,2049,2057,2046,2007,2044,2009
2042,2074,2060,2073,2072,1983,2044,2016
2045,2071,2052,2065,2073,2017,2037,2013
2034,2070,2050,2057,2056,2047,2052,2007
2029,2064,2048,2042,2019,2065,2052,2016
2031,2056,2043,2036,1999,2056,2052,2017
2028,2058,2032,2035,2013,2046,2055,2021
2033,2061,2037,2043,2044,2017,2049,2033
2043,2064,2052,2050,2066,1994,2051,2039
2041,2065,2052,2061,2068,2008,2040,2042
2042,2063,2052,2057,2054,2019,2051,2036
2028,2049,2039,2052,2045,2015,2041,2030
2021,2043,2032,2048,2047,2015,2030,2027
2020,2053,2041,2056,2065,2043,2057,2034
2026,2060,2041,2057,2075,2051,2046,2032
2024,2060,2040,2059,2083,2059,2043,2030
2028,2060,2040,2052,2074,2052,2043,2017
2029,2054,2039,2051,2067,2038,2041,2010
2021,2052,2041,2051,2058,2035,2036,2012
2018,2057,2036,2054,2056,2032,2020,2004
2020,2056,2034,2051,2058,2027,2037,2000
2020,2054,2034,2041,2056,2029,2050,2000
2015,2051,2032,2047,2056,2037,2054,1993
2019,2052,2028,2049,2051,2032,2054,1985
2015,2053,2033,2046,2053,2029,2049,1980
2015,2048,2026,2044,2056,2033,2062,1969
2012,2047,2028,2043,2055,2030,2061,1972
2009,2052,2028,2048,2053,2031,2055,1969
2010,2039,2015,2030,2037,2018,2040,1966
2001,2038,2012,2038,2034,2018,2052,1970
2012,2056,2030,2044,2048,2037,2063,1986
2023,2055,2032,2052,2050,2045,2054,1994
2024,2057,2039,2052,2053,2040,2055,1989
2019,2058,2037,2053,2053,2033,2053,2000
2025,2061,2038,2054,2048,2032,2056,2002
2022,2060,2036,2048,2051,2037,2041,2005
2021,2056,2041,2051,2044,2035,2038,2012
2020,2054,2037,2052,2048,2030,2050,2020
2024,2060,2040,2056,2052,2027,2049,2025
2023,2058,2043,2053,2054,2028,2037,2028
2026,2057,2045,2059,2054,2027,2037,2034
2034,2056,2043,2053,2044,2028,2033,2038
2034,2062,2049,2049,2048,2026,2032,2039
2036,2065,2054,2056,2054,2023,2049,2048
2039,2068,2058,2055,2072,2013,2046,2040
2025,2059,2052,2055,2085,2015,2033,2035
2016,2060,2056,2054,2116,2030,2026,2034
2025,2075,2066,2066,2132,2044,2037,2030
2018,2074,2065,2065,2139,2052,2055,2030
2024,2076,2063,2073,2126,2059,2065,2023
2011,2078,2064,2068,2092,2049,2038,2014
2011,2074,2067,2066,2076,2055,2042,2018
2014,2072,2063,2058,2051,2069,2012,2011
2007,2070,2061,2049,2022,2064,2038,2003
2000,2067,2055,2031,1927,2058,2026,1996
2004,2059,2059,2036,1938,2053,1969,1991
2006,2058,2044,2039,1986,2040,1964,1988
2001,2056,2044,2038,1956,2001,1974,1999
2008,2056,2045,2037,1958,2003,1980,2024
2015,2053,2049,2043,1981,2006,1996,2039
2022,2052,2045,2043,1987,1994,1986,2051
2026,2052,2041,2041,2007,1970,1980,2062
2019,2041,2035,2037,2031,1957,1977,2061
2025,2056,2043,2038,2049,1964,1983,2073
2069,2069,2044,2041,2052,1986,2001,2082
2065,2066,2037,2056,2062,1973,1991,2080
2042,2055,2037,2058,2071,1965,2015,2093
2028,2056,2046,2065,2080,1967,2037,2108
2026,2060,2044,2060,2075,1972,2070,2100
2019,2056,2037,2053,2058,1976,2073,2093
2031,2057,2034,2046,2049,1990,2102,2081
2046,2057,2033,2048,2055,2032,2117,2063
2039,2052,2040,2056,2067,2090,2099,2029
2033,2052,2042,2061,2074,2126,2053,1986
2019,2048,2044,2067,2067,2123,2007,1955
2008,2047,2039,2059,2063,2090,2015,1966
2015,2048,2042,2067,2070,2116,2050,1972
2014,2056,2042,2066,2076,2104,2087,1963
2002,2035,2032,2052,2051,2076,2082,1966
1999,2037,2033,2054,2053,2079,2082,1990
2018,2062,2041,2061,2059,2074,2086,2014
2019,2069,2047,2063,2046,2050,2050,2022
2033,2072,2044,2064,2045,2037,2044,2026
2038,2074,2049,2056,2043,2027,2028,2034
2041,2075,2052,2061,2048,2040,2042,2042
2047,2074,2058,2065,2054,2049,2049,2042
2036,2077,2058,2061,2058,2056,2062,2048
2022,2069,2058,2062,2055,2066,2066,2048
2015,2066,2054,2060,2057,2070,2064,2030
2017,2061,2049,2060,2059,2076,2042,2010
2016,2060,2056,2054,2056,2068,2059,1999
2018,2056,2059,2054,2056,2068,2047,1991
2014,2060,2065,2043,2053,2056,2046,1977
2019,2066,2064,2050,2053,2056,2006,1969
2015,2060,2053,2052,2048,2026,1992,1957
1999,2032,2039,2032,2035,2026,1989,1957
2010,2031,2032,2033,2035,2037,2026,1968
2018,2048,2045,2042,2035,2036,2045,1965
2007,2041,2045,2046,2044,2041,2022,1981
1985,2027,2045,2054,2045,2048,2044,1975
1973,2030,2056,2057,2061,2051,2063,1972
1969,2038,2056,2057,2059,2045,2052,1974
1974,2050,2055,2052,2054,2039,2050,1985
1988,2056,2058,2056,2050,2033,2065,2000
1988,2063,2061,2053,2051,2033,2080,2017
1984,2057,2061,2056,2062,2049,2103,2039
1976,2049,2052,2048,2058,2054,2115,2080
1972,2033,2047,2045,2054,2051,2117,2100
1973,2030,2041,2044,2046,2044,2101,2091
1972,2030,2046,2043,2052,2040,2099,2077
1969,2036,2049,2050,2055,2050,2118,2085
1981,2037,2044,2046,2055,2040,2102,2071
1992,2041,2045,2043,2055,2042,2094,2081
2027,2056,2054,2059,2067,2053,2122,2098
2058,2066,2057,2058,2074,2053,2118,2082
2067,2050,2048,2053,2073,2056,2074,2074
2061,2041,2045,2050,2064,2044,2010,2061
2057,2048,2047,2050,2071,2050,1994,2025
2036,2049,2048,2056,2066,2055,1927,2012
2052,2077,2057,2052,2063,2049,1942,2008
2052,2081,2064,2055,2063,2057,1987,1996
2066,2078,2058,2046,2055,2075,2029,1989
2064,2080,2051,2047,2054,2069,2024,1984
2072,2072,2053,2050,2051,2067,2035,1986
2058,2066,2051,2049,2054,2057,2045,1971
2039,2059,2046,2043,2050,2052,2038,1974
2023,2056,2038,2043,2046,2043,2030,1982
2021,2055,2045,2046,2047,2046,2044,2003
2015,2044,2033,2033,2039,2037,2029,2023
2018,2039,2024,2034,2030,2030,2028,2053
2031,2047,2036,2040,2045,2029,2065,2053
2034,2048,2042,2038,2046,2023,2067,2044
2027,2051,2037,2048,2050,2010,2050,2037
2031,2047,2045,2046,2054,2014,2015,2039
2027,2046,2040,2049,2049,2038,2009,2040
2021,2056,2043,2057,2055,2081,2030,2055
2024,2050,2046,2056,2061,2101,2045,2065
2027,2050,2046,2066,2073,2120,2043,2069
2033,2051,2047,2066,2083,2154,2066,2079
2030,2055,2047,2071,2093,2172,2081,2089
2033,2060,2052,2071,2093,2176,2064,2085
2032,2063,2052,2062,2089,2185,2046,2082
2032,2058,2050,2058,2073,2197,2017,2076
2030,2059,2051,2058,2062,2156,2018,2078
2032,2062,2059,2062,2058,2089,1995,2070
2025,2045,2044,2047,2049,1998,2005,2067
2020,2041,2036,2046,2050,1939,2017,2070
2028,2056,2047,2047,2047,1933,2018,2070
2025,2059,2048,2045,2042,1923,2006,2069
2024,2058,2050,2047,2061,1957,1995,2070
2029,2066,2058,2052,2055,1996,2019,2072
2031,2072,2057,2054,2044,2034,2030,2072
2025,2066,2060,2044,2034,2037,2022,2063
2020,2066,2063,2044,2030,2010,1986,2052
2019,2067,2063,2040,2039,2007,1986,2053
2024,2070,2067,2047,2040,2023,2020,2054
2023,2069,2066,2046,2046,2049,2031,2039
2024,2072,2058,2048,2056,2057,2023,2028
2027,2069,2055,2044,2053,2068,2033,2025
2025,2060,2057,2047,2053,2071,2037,2019
2027,2065,2061,2042,2055,2072,2053,2032
2024,2065,2061,2041,2054,2036,2040,2021
2020,2052,2048,2035,2044,2016,2020,2022
2018,2049,2057,2035,2010,2000,2011,2021
2024,2060,2057,2024,1958,1990,2001,2030
2025,2059,2054,2023,1955,1984,2027,2047
2024,2059,2053,2014,1951,1970,2050,2062
2033,2058,2050,2016,1954,1967,2015,2085
2037,2054,2046,2026,2000,2004,2052,2104
2042,2060,2058,2062,2054,2055,2074,2125
2049,2071,2064,2071,2066,2083,2072,2140
2048,2066,2063,2075,2085,2119,2074,2157
2051,2068,2056,2067,2088,2147,2075,2152
2045,2062,2047,2049,2049,2132,2061,2136
2036,2052,2049,2039,2043,2070,2050,2117
2027,2044,2044,2049,2061,1996,2056,2107
2027,2045,2051,2054,2077,1963,2040,2104
2020,2042,2052,2056,2078,1976,2043,2091
2014,2032,2043,2047,2078,1995,2035,2080
1999,2019,2035,2049,2086,1994,2019,2082
1996,2028,2038,2050,2101,1992,2040,2088
2006,2029,2038,2049,2100,1998,2043,2088
2003,2030,2045,2053,2089,2013,2056,2090
2000,2031,2046,2059,2081,2043,2065,2090
1998,2035,2045,2054,2085,2082,2051,2084
1998,2033,2046,2067,2095,2094,2045,2074
1988,2033,2045,2063,2086,2102,2043,2075
1990,2036,2047,2058,2081,2097,2054,2060
1991,2037,2044,2057,2077,2086,2045,2047
1981,2028,2047,2048,2052,2082,2045,2030
1969,2020,2040,2035,2018,2092,2047,2029
1962,2014,2039,2031,2002,2079,2030,2031
1964,2028,2042,2036,2017,2067,2043,2032
1966,2025,2048,2045,2040,2074,2038,2039
1975,2028,2053,2045,2071,2084,2035,2033
1969,2020,2037,2040,2077,2071,2029,2029
1982,2016,2039,2040,2082,2068,2036,2032
2023,2043,2050,2047,2087,2081,2052,2052
2052,2052,2049,2051,2074,2073,2020,2060
2035,2043,2052,2047,2065,2066,2036,2062
2021,2035,2051,2049,2057,2062,2046,2068
2007,2031,2045,2046,2050,2039,2022,2080
1987,2012,2030,2039,2034,2022,2008,2090
1981,1999,2021,2035,2029,2036,2024,2109
1983,2000,2023,2041,2036,2029,2026,2134
1996,2009,2028,2042,2044,2042,2043,2154
2026,2025,2036,2044,2045,2058,2057,2153
2037,2033,2038,2046,2054,2054,2064,2148
2027,2020,2030,2047,2049,2059,2051,2129
2015,2005,2024,2045,2054,2064,2056,2115
1996,2000,2023,2041,2054,2070,2051,2106
1991,2006,2025,2044,2055,2067,2049,2108
1989,1999,2017,2032,2059,2060,2043,2111
2002,2004,2018,2038,2062,2069,2063,2128
2021,2018,2030,2045,2073,2084,2072,2135
2022,2022,2030,2050,2072,2088,2062,2139
2024,2025,2030,2048,2077,2108,2078,2147
2031,2032,2033,2052,2077,2127,2092,2153
2029,2037,2039,2053,2082,2137,2078,2145
2029,2043,2045,2053,2072,2123,2087,2137
2023,2037,2047,2042,2063,2096,2067,2117
2011,2034,2042,2044,2061,2074,2053,2106
2008,2030,2039,2037,2048,2038,2049,2096
2010,2027,2033,2032,2031,2028,2053,2086
2010,2024,2028,2038,2034,2028,2053,2088
2016,2032,2043,2040,2041,1998,2048,2093
2022,2043,2055,2051,2049,1997,2070,2101
2030,2052,2053,2047,2041,2016,2082,2096
2027,2048,2048,2037,2016,2024,2074,2080
2000,2023,2042,2027,2009,2040,2062,2060
2000,2027,2037,2022,2003,2055,2053,2066
2002,2030,2034,2011,2005,2059,2034,2073
2005,2034,2048,2038,2050,2059,2034,2089
2018,2045,2054,2058,2081,2076,2043,2111
2018,2053,2059,2060,2094,2102,2063,2114
2021,2049,2044,2056,2091,2121,2075,2125
2022,2043,2039,2052,2085,2117,2073,2123
2025,2039,2030,2047,2077,2105,2070,2118
2015,2035,2026,2037,2071,2071,2062,2116
2018,2035,2035,2037,2047,2063,2042,2124
2014,2033,2038,2025,2025,2045,2032,2126
2012,2033,2036,2021,1984,2030,2052,2122
2007,2026,2030,2016,1954,2008,2028,2117
2002,2029,2030,2021,1996,1990,2045,2122
2004,2028,2032,2043,2038,2000,2057,2122
2001,2014,2026,2042,2043,2018,2042,2118
1994,2009,2039,2043,2029,2034,2061,2127
2006,2027,2058,2049,2032,2038,2050,2136
2012,2046,2081,2060,2059,2023,2069,2145
2022,2052,2089,2070,2085,2013,2068,2132
2016,2048,2079,2067,2083,2010,2063,2117
2012,2035,2059,2056,2062,1989,2066,2106
1995,2031,2049,2049,2057,1986,2064,2094
2000,2028,2037,2041,2040,1995,2053,2089
2001,2026,2030,2043,2033,1993,2055,2090
2000,2022,2030,2044,2023,1987,2033,2080
2006,2029,2029,2044,2029,1996,2003,2069
2004,2029,2038,2036,2044,2018,2019,2060
2001,2034,2045,2036,2040,2034,2011,2058
2002,2038,2057,2029,2034,2049,2010,2064
2004,2046,2069,2026,2030,2062,2063,2061
2003,2049,2083,2035,2030,2084,2055,2047
1992,2035,2075,2028,2043,2093,2065,2040
1991,2035,2078,2031,2056,2079,2059,2047
1999,2054,2092,2050,2065,2074,2050,2057
2005,2052,2085,2046,2063,2082,2054,2064
2011,2045,2072,2056,2055,2093,2069,2082
2018,2051,2079,2049,2051,2087,2069,2086
2018,2050,2086,2051,2049,2073,2053,2094
2014,2044,2086,2050,2046,2041,2034,2118
2016,2050,2086,2059,2053,2027,2040,2116
2022,2048,2081,2051,2063,2050,2041,2112
2014,2042,2072,2047,2068,2082,2047,2112
2008,2043,2060,2050,2065,2130,2071,2111
2001,2040,2064,2052,2059,2169,2059,2116
2012,2043,2063,2054,2053,2166,2064,2121
2011,2041,2066,2073,2066,2144,2073,2116
2014,2040,2073,2082,2059,2051,2043,2114
2010,2035,2074,2084,2055,1991,2021,2104
1997,2022,2066,2078,2048,2014,2041,2104
1999,2018,2072,2079,2051,2048,2044,2111
2007,2038,2086,2093,2047,2049,2053,2111
2004,2042,2082,2089,2044,2038,2045,2110
2008,2040,2088,2088,2036,2029,2050,2103
2017,2050,2092,2083,2053,2032,2047,2094
2014,2055,2089,2080,2062,2048,2052,2101
2016,2052,2086,2083,2067,2046,2062,2101
2021,2048,2078,2072,2059,2030,2040,2085
2011,2042,2069,2061,2053,2017,2029,2083
2004,2035,2071,2044,2046,2013,2034,2074
2003,2029,2062,2026,2040,2008,2029,2057
2000,2019,2046,2000,2037,2018,2023,2050
1993,2018,2049,1988,2038,2023,2021,2046
1992,2025,2053,1992,2026,2031,2023,2052
1999,2038,2061,1994,2002,2042,2024,2047
2006,2036,2037,1976,1966,2029,2006,2038
1990,2025,2022,1970,1950,2012,2001,2040
1994,2028,2026,1983,1956,2039,2009,2049
2002,2034,2025,1996,1981,2066,2018,2061
2009,2034,2032,2027,2056,2062,2039,2076
2017,2037,2037,2049,2121,2075,2058,2080
2008,2030,2034,2059,2158,2124,2061,2084
2013,2029,2030,2052,2154,2153,2069,2082
2014,2029,2033,2045,2118,2130,2077,2087
2014,2025,2027,2043,2091,2109,2046,2094
2011,2032,2025,2044,2064,2077,2050,2095
2018,2036,2039,2056,2061,2069,2058,2101
2019,2033,2051,2058,2068,2071,2053,2106
2018,2032,2049,2065,2062,2055,2054,2099
2010,2027,2056,2060,2061,2031,2060,2102
2013,2025,2060,2061,2055,2005,2027,2112
2013,2030,2080,2073,2061,2011,2020,2106
2016,2022,2084,2070,2066,2012,2027,2109
2014,2033,2092,2066,2060,2017,2004,2115
2019,2050,2105,2081,2060,2026,2034,2107
2023,2052,2092,2080,2053,2031,2035,2103
2015,2047,2082,2071,2040,2051,2032,2097
2015,2040,2067,2062,2031,2061,2019,2084
2007,2031,2050,2052,2030,2051,2010,2075
2004,2030,2041,2042,2028,2060,2033,2082
2005,2027,2033,2029,2035,2091,2063,2076
2005,2032,2034,2021,2033,2100,2061,2074
2005,2038,2038,2010,2037,2105,2061,2072
2004,2044,2046,2008,2028,2082,2051,2069
2014,2044,2042,2010,2010,2068,2058,2069
2012,2034,2030,1997,2001,2060,2032,2057
2008,2024,2022,1990,1991,2058,2039,2048
2004,2023,2019,1994,2012,2067,2037,2041
2008,2031,2039,2022,2072,2054,2030,2048
2004,2030,2037,2025,2082,2042,2039,2038
2001,2031,2035,2026,2090,2041,2048,2050
2017,2052,2048,2030,2090,2052,2045,2054
2023,2054,2042,2031,2096,2071,2050,2061
2020,2050,2047,2037,2095,2086,2053,2073
2017,2050,2050,2039,2082,2100,2052,2077
2019,2052,2046,2037,2065,2110,2054,2078
2021,2042,2050,2034,2039,2101,2035,2085
2017,2045,2052,2029,1994,2078,2026,2085
2017,2041,2049,2028,1919,2029,2005,2096
2013,2038,2049,2038,1965,2028,2005,2104
2020,2047,2053,2055,2038,2047,2017,2110
2014,2048,2056,2066,2068,2072,2025,2102
2013,2040,2052,2056,2073,2083,2048,2104
2005,2032,2043,2051,2062,2078,2041,2105
2004,2028,2038,2048,2042,2074,2041,2095
1997,2020,2024,2037,2036,2057,2034,2089
1984,2004,2022,2030,2025,2044,2036,2089
1984,2002,2018,2037,2031,2066,2047,2096
1990,2021,2024,2035,2029,2072,2070,2104
2001,2027,2029,2035,2029,2071,2056,2099
2010,2030,2033,2036,2025,2062,2063,2095
2009,2023,2032,2033,2025,2056,2044,2086
2004,2027,2031,2024,2015,2037,2051,2079
2011,2023,2030,2024,2006,2005,2041,2070
2007,2026,2029,2034,2037,1989,2029,2068
2014,2034,2028,2054,2058,2001,2042,2063
2016,2029,2031,2051,2055,2017,2049,2057
2012,2030,2029,2045,2054,2021,2053,2051
2013,2025,2027,2039,2046,2038,2060,2042
2008,2015,2015,2033,2042,2065,2047,2033
2011,2014,2015,2034,2048,2099,2065,2032
2015,2015,2020,2033,2048,2105,2056,2037
2008,2018,2010,2027,2034,2087,2047,2032
1999,2010,2009,2032,2038,2077,2052,2038
2012,2028,2018,2038,2048,2082,2059,2050
2018,2033,2021,2040,2049,2088,2064,2059
2015,2036,2030,2038,2051,2095,2054,2058
2020,2038,2033,2046,2045,2100,2062,2063
2017,2036,2032,2047,2028,2110,2059,2072
2024,2037,2044,2046,2012,2094,2057,2075
2024,2038,2044,2045,2039,2074,2045,2074
2024,2041,2043,2047,2049,2015,2024,2077
2019,2040,2050,2043,2046,1986,2025,2075
2018,2044,2043,2046,2041,2003,2023,2074
2019,2043,2048,2049,2032,2044,2045,2077
2018,2046,2047,2048,2038,2067,2061,2080
2017,2041,2050,2047,2045,2068,2045,2084
2020,2034,2054,2050,2036,2064,2048,2082
2021,2041,2068,2039,2010,2055,2046,2082
2012,2039,2068,2032,2025,2058,2054,2084
2017,2043,2073,2045,2040,2062,2041,2093
2026,2071,2096,2064,2047,2074,2054,2092
2032,2077,2093,2062,2049,2063,2054,2093
2023,2071,2083,2065,2050,2059,2049,2085
2014,2071,2082,2068,2055,2068,2044,2078
2010,2067,2072,2062,2053,2104,2055,2072
2005,2057,2068,2057,2045,2129,2054,2057
2001,2050,2060,2046,2038,2129,2038,2067
2008,2056,2060,2036,2021,2117,2052,2054
2002,2054,2059,2032,2002,2083,2047,2046
1998,2045,2054,2029,1995,2017,2048,2054
2002,2052,2064,2048,2005,2006,2066,2053
1996,2045,2062,2043,2004,2025,2050,2043
1987,2046,2053,2033,1989,2028,2055,2028
1981,2037,2050,2041,2022,2040,2048,2019
1994,2050,2059,2057,2051,2053,2059,2012
2006,2035,2046,2048,2040,2044,2026,2020
2056,2045,2040,2043,2039,2059,2028,2034
2074,2059,2055,2050,2055,2075,2037,2041
2053,2055,2052,2050,2044,2067,2061,2038
2043,2052,2051,2056,2050,2067,2041,2050
2029,2048,2056,2061,2065,2075,2053,2051
2025,2053,2050,2060,2072,2076,2039,2049
2032,2049,2047,2059,2072,2081,2060,2058
2040,2056,2045,2058,2070,2083,2076,2064
2034,2049,2047,2057,2058,2088,2063,2076
2037,2052,2049,2058,2046,2094,2081,2084
2040,2042,2050,2051,2048,2093,2059,2092
2035,2037,2047,2054,2055,2086,2061,2096
2028,2036,2043,2058,2060,2089,2038,2096
2023,2036,2043,2057,2064,2090,2048,2097
2018,2040,2040,2045,2046,2094,2060,2100
2020,2033,2034,2042,2047,2085,2066,2104
2016,2018,2026,2039,2043,2083,2065,2096
2014,2018,2029,2042,2050,2087,2069,2108
2024,2029,2035,2043,2051,2080,2054,2102
2026,2035,2040,2051,2047,2072,2069,2093
2029,2044,2048,2058,2041,2081,2052,2098
2031,2045,2054,2062,2037,2096,2074,2090
2028,2039,2046,2058,2026,2107,2082,2085
2027,2040,2045,2054,2016,2121,2080,2085
2033,2043,2044,2051,2025,2132,2081,2081
2035,2044,2043,2043,2016,2053,2081,2065
2033,2043,2037,2037,2017,1961,2040,2058
2031,2045,2036,2034,2020,1982,2065,2058
2029,2047,2038,2034,2026,2008,2064,2053
2026,2044,2037,2034,2019,2026,2050,2047
2028,2048,2037,2034,2015,2028,2058,2044
2030,2053,2043,2044,2022,2039,2069,2043
2030,2050,2037,2044,2017,2053,2057,2032
2019,2038,2032,2042,2014,2078,2027,2035
2021,2043,2034,2039,2015,2087,2065,2056
2023,2047,2027,2035,2007,2069,2067,2052
2029,2045,2026,2035,2010,2064,2064,2056
2025,2053,2031,2035,2019,2071,2037,2062
2024,2053,2037,2039,2025,2075,2038,2074
2029,2057,2034,2043,2036,2077,2036,2082
2032,2058,2038,2046,2048,2067,2039,2084
2031,2057,2042,2041,2042,2050,2027,2092
2026,2061,2043,2047,2038,2042,2021,2094
2034,2056,2041,2046,2037,2044,2023,2095
2030,2055,2041,2047,2030,2062,2055,2083
2027,2051,2033,2046,2026,2093,2048,2084
2031,2047,2032,2035,2027,2093,2048,2084
2026,2041,2031,2039,2021,2050,2048,2083
2025,2043,2030,2036,2020,2027,2037,2076
2018,2028,2016,2026,2015,2018,2027,2072
2014,2031,2016,2038,2031,1993,2023,2097
2038,2055,2037,2050,2046,2007,2039,2094
2036,2057,2039,2048,2047,2015,2047,2093
