CH1,CH2,CH3,CH4,CH5,CH6,CH7,CH8
2053,2052,2068,2066,2068,2070,2062,2064
2056,2053,2067,2051,2009,2050,2049,2065
2061,2051,2064,2038,1962,2043,2050,2064
2062,2056,2064,2035,2046,2043,2039,2076
2063,2052,2058,2041,2088,2038,2054,2076
2064,2052,2054,2047,2072,2028,2055,2079
2059,2052,2054,2054,2081,2029,2059,2081
2064,2051,2055,2055,2082,2033,2029,2084
2060,2045,2045,2054,2057,2030,2034,2081
2043,2029,2042,2046,2046,2031,2045,2079
2043,2035,2049,2054,2047,2043,2060,2078
2055,2044,2056,2060,2051,2055,2060,2079
2062,2047,2050,2062,2062,2056,2048,2075
2059,2049,2042,2064,2061,2061,2048,2069
2060,2049,2037,2060,2053,2062,2036,2061
2056,2048,2036,2061,2048,2060,2035,2052
2052,2042,2032,2060,2046,2057,2050,2042
2051,2041,2020,2049,2044,2051,2042,2044
2053,2038,2029,2065,2056,2057,2055,2033
2056,2039,2027,2076,2072,2060,2038,2021
2059,2040,2037,2077,2079,2058,2029,2016
2060,2038,2045,2077,2068,2054,2034,2006
2051,2038,2031,2069,2064,2052,2047,2005
2055,2040,2040,2061,2052,2056,2048,1996
2046,2046,2040,2057,2052,2043,2042,1996
2049,2035,2039,2050,2045,2044,2038,1993
2046,2045,2045,2054,2046,2050,2045,1997
2056,2061,2075,2056,2044,2049,2042,2007
2056,2060,2072,2052,2044,2044,2027,2013
2051,2052,2065,2042,2038,2038,2054,2024
2054,2050,2060,2040,2038,2038,2053,2030
2049,2052,2052,2039,2041,2041,2053,2041
2052,2046,2049,2027,2036,2041,2061,2049
2047,2047,2030,2013,2034,2041,2040,2065
2060,2056,2038,2020,2037,2045,2062,2074
2064,2058,2050,2024,2046,2046,2066,2076
2063,2066,2064,2038,2050,2049,2054,2078
2061,2057,2064,2038,2046,2047,2055,2083
2060,2062,2062,2042,2050,2044,2065,2080
2052,2048,2050,2043,2044,2052,2062,2081
2053,2043,2047,2035,2039,2045,2049,2072
2046,2030,2038,2033,2034,2050,2057,2074
2042,2036,2037,2043,2042,2057,2077,2086
2041,2046,2049,2047,2057,2067,2080,2089
2052,2057,2053,2061,2052,2065,2075,2084
2050,2055,2049,2063,2063,2063,2071,2080
2056,2058,2046,2063,2061,2061,2073,2080
2058,2060,2043,2062,2050,2061,2072,2068
2054,2061,2051,2070,2059,2066,2065,2062
2061,2058,2067,2074,2058,2068,2076,2056
2057,2058,2075,2086,2062,2076,2083,2047
2058,2061,2084,2087,2056,2078,2072,2043
2056,2062,2074,2082,2058,2065,2080,2037
2057,2051,2065,2086,2059,2050,2066,2024
2051,2052,2061,2085,2045,2044,2051,2015
2049,2056,2059,2087,2036,2045,2045,2013
2043,2054,2060,2082,2042,2043,2039,2003
2045,2044,2050,2070,2029,2034,2045,2004
2046,2047,2045,2067,2060,2041,2040,2014
2054,2063,2056,2072,2090,2046,2036,2020
2055,2065,2052,2059,2101,2047,2037,2023
2054,2058,2039,2050,2101,2049,2050,2031
2049,2050,2014,2033,2096,2042,2055,2041
2052,2052,1992,2025,2092,2045,2058,2049
2051,2045,1977,2020,2091,2041,2062,2059
2055,2049,1978,2030,2076,2045,2065,2069
2058,2049,1981,2046,2066,2046,2060,2069
2058,2044,1985,2047,1944,2031,2040,2071
2052,2030,1985,2039,1929,2036,2047,2076
2046,2026,1991,2049,2002,2050,2060,2082
2052,2036,2010,2069,2059,2056,2064,2085
2050,2039,2013,2064,2083,2066,2067,2085
2049,2039,2016,2054,2089,2070,2071,2092
2038,2029,2015,2038,2052,2063,2069,2085
2045,2028,2018,2035,2007,2056,2062,2093
2050,2049,2061,2041,1999,2056,2084,2094
2047,2057,2090,2050,2025,2055,2077,2084
2050,2062,2111,2067,2056,2044,2059,2093
2054,2065,2112,2072,2049,2042,2055,2082
2052,2065,2109,2058,2025,2023,2059,2073
2051,2059,2087,2030,2003,2016,2038,2058
2049,2053,2073,2017,1997,2020,2041,2050
2049,2056,2055,2027,2031,2041,2063,2047
2050,2063,2047,2031,2045,2055,2049,2046
2059,2060,2049,2045,2072,2063,2068,2038
2054,2058,2052,2046,2046,2046,2038,2017
2040,2052,2054,2030,1963,2047,2058,2011
2041,2049,2058,2050,2024,2054,2060,2013
2050,2051,2065,2063,2082,2055,2058,2016
2045,2040,2053,2058,2077,2053,2061,2006
2034,2035,2056,2066,2073,2050,2059,2009
2037,2048,2066,2073,2063,2049,2064,2011
2046,2052,2081,2078,2051,2055,2060,2026
2050,2057,2082,2064,2031,2054,2049,2039
2046,2054,2076,2064,2016,2050,2054,2045
2051,2057,2088,2060,2027,2046,2052,2053
2055,2056,2091,2057,2020,2044,2043,2067
2053,2059,2083,2046,2015,2045,2049,2079
2059,2062,2092,2045,2039,2046,2051,2080
2060,2069,2096,2062,2065,2055,2042,2080
2056,2061,2082,2062,2065,2059,2037,2086
2057,2060,2071,2066,2038,2053,2042,2096
2054,2058,2063,2069,2067,2050,2040,2086
2054,2049,2057,2068,2089,2054,2037,2085
2051,2052,2053,2063,2090,2057,2040,2094
2050,2047,2052,2063,2087,2054,2046,2086
2046,2046,2054,2065,2056,2057,2064,2086
2053,2051,2057,2067,2052,2062,2075,2094
2052,2057,2060,2052,1990,2052,2066,2086
2051,2056,2054,2042,1973,2040,2065,2080
2052,2055,2046,2036,1965,2028,2059,2077
2055,2060,2051,2050,2023,2048,2066,2078
2057,2056,2051,2060,2058,2054,2071,2073
2062,2054,2042,2050,2058,2044,2061,2064
2056,2055,2038,2047,2049,2052,2052,2056
2059,2057,2048,2040,2061,2056,2046,2042
2053,2056,2055,2043,2045,2049,2052,2041
2056,2052,2040,2034,2035,2054,2043,2037
2054,2056,2039,2036,2038,2052,2064,2021
2052,2053,2045,2043,2041,2049,2061,2016
2053,2055,2049,2047,2048,2050,2041,2011
2049,2051,2048,2046,2057,2049,2048,2006
2041,2034,2045,2049,2063,2054,2054,2007
2045,2048,2047,2053,2070,2064,2069,2017
2051,2054,2047,2052,2078,2065,2066,2020
2045,2047,2049,2055,2083,2063,2059,2027
2050,2047,2051,2061,2087,2063,2056,2042
2054,2049,2050,2058,2096,2062,2056,2048
2050,2045,2051,2061,2109,2053,2061,2059
2044,2046,2047,2062,2115,2045,2054,2066
2046,2044,2054,2056,2090,2035,2049,2069
2047,2044,2053,2057,2065,2033,2023,2071
2048,2037,2050,2054,2050,2045,2049,2072
2041,2040,2045,2060,2061,2046,2048,2077
2045,2040,2051,2050,2041,2050,2025,2080
2049,2042,2049,2036,2005,2042,2022,2086
2046,2045,2048,2035,1996,2040,2028,2088
2042,2050,2043,2035,1990,2029,2045,2077
2047,2037,2040,2038,1975,2026,2045,2080
2037,2038,2046,2037,1971,2023,2030,2083
2048,2041,2051,2040,1968,2026,2023,2079
2049,2048,2050,2043,1974,2035,2015,2072
2049,2049,2053,2039,1969,2047,2026,2069
2042,2054,2046,2036,1958,2064,2039,2062
2056,2052,2042,2035,1991,2069,2060,2053
2053,2047,2043,2031,2006,2061,2049,2049
2047,2039,2030,2035,2023,2041,2055,2034
2056,2039,2043,2053,2058,2027,2046,2040
2056,2044,2051,2057,2072,2035,2046,2038
2057,2043,2040,2058,2082,2050,2041,2034
2052,2045,2043,2054,2089,2062,2044,2021
2052,2042,2045,2055,2076,2060,2041,2020
2053,2040,2050,2053,2075,2053,2039,2017
2045,2038,2043,2036,2062,2049,2022,2006
2036,2030,2037,2043,2068,2047,2040,2010
2035,2037,2036,2051,2071,2058,2034,2025
2042,2043,2032,2060,2072,2066,2029,2019
2046,2044,2043,2057,2065,2062,2015,2022
2045,2048,2056,2055,2055,2051,2017,2036
2045,2060,2061,2056,2037,2038,2037,2045
2046,2056,2051,2049,2038,2036,2036,2065
2046,2052,2050,2055,2047,2037,2031,2072
2053,2059,2057,2057,2057,2038,2045,2074
2055,2058,2060,2057,2064,2042,2045,2082
2053,2052,2052,2051,2065,2042,2045,2081
2050,2049,2047,2048,2079,2045,2050,2078
2050,2053,2055,2057,2070,2042,2048,2090
2052,2048,2054,2054,2036,2027,2033,2086
2050,2045,2053,2048,2026,2021,2030,2086
2036,2029,2050,2039,2010,2025,2029,2076
2028,2020,2036,2037,2013,2045,2036,2075
2040,2033,2053,2053,2056,2075,2055,2091
2045,2047,2060,2059,2077,2092,2055,2092
2044,2049,2060,2062,2101,2114,2056,2089
2045,2053,2057,2061,2098,2131,2061,2079
2044,2048,2053,2066,2105,2135,2069,2080
2042,2048,2058,2063,2102,2121,2074,2062
2040,2051,2057,2062,2063,2072,2063,2052
2042,2052,2059,2057,2019,2038,2070,2041
2046,2049,2058,2061,2022,2028,2061,2040
2038,2044,2051,2061,2016,2022,2053,2029
2039,2036,2043,2062,2016,2034,2043,2018
2034,2035,2040,2060,2021,2037,2040,2014
2034,2036,2041,2056,2005,2045,2023,2007
2035,2033,2043,2046,1987,2057,2034,1999
2031,2031,2049,2042,1986,2060,2037,1990
2031,2025,2056,2041,2018,2063,2044,1999
2036,2043,2060,2063,2073,2076,2032,2014
2042,2046,2055,2062,2084,2049,2033,2023
2043,2047,2051,2060,2082,2012,2016,2028
2045,2048,2039,2058,2118,2032,2020,2049
2050,2051,2031,2063,2116,2052,2043,2051
2043,2045,2029,2049,2084,2085,2044,2059
2044,2041,2022,2034,2050,2096,2046,2060
2049,2039,2020,2034,2044,2094,2045,2070
2039,2038,2014,2024,2053,2089,2025,2071
2039,2031,2010,2020,2054,2078,2032,2067
2030,2028,2007,2030,2034,2045,2042,2068
2026,2030,2023,2045,2061,2046,2054,2084
2038,2038,2039,2076,2103,2075,2068,2094
2045,2038,2049,2083,2112,2084,2051,2087
2035,2028,2028,2067,2102,2074,2046,2087
2033,2021,2023,2067,2096,2076,2045,2088
2044,2036,2033,2069,2083,2064,2046,2086
2044,2028,2032,2065,2075,2040,2042,2082
2041,2033,2045,2068,2063,2024,2035,2066
2050,2034,2068,2070,2051,2005,2045,2065
2050,2028,2072,2070,2058,1989,2050,2060
2050,2022,2058,2051,2067,1989,2050,2054
2044,2019,2041,2045,2091,2006,2038,2049
2040,2028,2027,2058,2119,2019,2059,2043
2036,2040,2024,2063,2151,2034,2031,2040
2047,2041,2018,2061,2161,2049,2057,2036
2045,2036,2022,2065,2156,2055,2049,2025
2048,2040,2030,2066,2150,2050,2052,2014
2040,2036,2021,2057,2135,2057,2054,2011
2038,2026,2006,2046,2107,2059,2038,2004
2022,2014,1997,2019,2019,2037,2048,1996
2020,2017,2008,2002,1938,2034,2044,2006
2034,2049,2040,2018,1971,2047,2059,2016
2046,2063,2059,2021,1923,2049,2050,2020
2051,2065,2066,2042,1946,2046,2041,2038
2052,2063,2061,2062,2026,2045,2052,2048
2055,2059,2059,2072,2084,2040,2066,2056
2055,2058,2074,2067,2089,2041,2067,2066
2058,2061,2092,2068,2091,2047,2074,2071
2054,2066,2106,2073,2100,2056,2056,2081
2055,2064,2099,2066,2114,2056,2076,2082
2053,2052,2078,2062,2119,2049,2069,2083
2051,2049,2065,2043,2106,2033,2052,2085
2048,2049,2054,2014,2031,2011,2042,2080
2048,2054,2060,2005,1981,2010,2047,2091
2049,2058,2073,2011,1931,2003,2040,2089
2042,2048,2072,2012,1934,2004,2031,2081
2036,2053,2080,2030,1976,2016,2018,2083
2042,2066,2086,2041,2013,2027,2039,2084
2042,2067,2079,2043,1970,2022,2045,2083
2048,2060,2077,2049,1953,2029,2046,2082
2048,2064,2072,2059,1982,2033,2050,2078
2047,2057,2071,2069,2007,2039,2056,2065
2046,2056,2075,2067,2026,2046,2064,2060
2043,2055,2072,2065,2041,2041,2043,2054
2049,2054,2069,2060,2040,2030,2055,2047
2045,2048,2063,2050,2039,2026,2049,2029
2037,2050,2060,2044,2032,2037,2049,2028
2034,2045,2051,2044,2037,2036,2036,2016
2038,2039,2052,2049,2041,2040,2032,2007
2031,2040,2049,2055,2042,2039,2035,2005
2032,2037,2045,2049,2041,2042,2066,2001
2032,2034,2046,2044,2040,2033,2050,1992
2027,2032,2043,2048,2034,2037,2063,2002
2030,2034,2038,2046,2035,2044,2057,2008
2029,2027,2028,2035,2033,2042,2036,2010
2027,2024,2024,2025,2029,2037,2033,2015
2034,2025,2025,2030,2041,2033,2052,2026
2031,2036,2040,2050,2036,2034,2054,2040
2031,2045,2050,2058,2035,2035,2054,2053
2036,2052,2056,2066,2037,2036,2050,2060
2048,2051,2063,2071,2040,2030,2050,2068
2049,2051,2064,2075,2038,2037,2059,2072
2044,2051,2075,2085,2041,2033,2046,2078
2047,2057,2080,2102,2053,2042,2019,2080
2057,2068,2082,2110,2071,2049,2031,2087
2060,2064,2080,2111,2085,2052,2045,2092
2056,2064,2072,2110,2092,2052,2050,2089
2056,2054,2056,2102,2087,2044,2037,2078
2051,2039,2048,2095,2077,2035,2037,2083
2049,2043,2046,2084,2074,2043,2052,2087
2050,2041,2040,2068,2075,2053,2039,2083
2046,2044,2033,2058,2070,2052,2046,2080
2040,2044,2025,2034,2043,2045,2030,2076
2039,2038,2009,1993,1993,2030,2032,2074
2040,2030,1992,1979,1972,2030,2032,2073
2042,2023,1994,1985,1979,2028,2019,2061
2038,2023,1996,1997,1998,2026,2026,2056
2043,2040,2024,2014,2022,2035,2004,2044
2040,2050,2036,2020,2033,2036,2041,2035
2043,2052,2038,2028,2033,2041,2058,2033
2042,2050,2036,2033,2033,2045,2064,2025
2046,2047,2035,2042,2044,2044,2056,2026
2045,2047,2042,2044,2045,2046,2053,2018
2044,2045,2040,2049,2046,2038,2049,2010
2035,2032,2030,2047,2051,2050,2030,2017
2037,2044,2036,2053,2056,2058,2056,2026
2044,2044,2030,2050,2049,2054,2051,2036
2043,2044,2025,2052,2047,2051,2047,2040
2046,2049,2037,2054,2043,2048,2037,2046
2045,2045,2039,2052,2042,2039,2032,2057
2051,2047,2046,2053,2048,2035,2043,2066
2050,2048,2046,2056,2045,2036,2047,2073
2049,2042,2049,2048,2045,2037,2038,2074
2052,2045,2055,2044,2045,2042,2042,2083
2047,2045,2064,2058,2060,2048,2045,2081
2047,2050,2069,2060,2060,2046,2045,2082
2048,2048,2071,2066,2059,2045,2059,2092
2048,2045,2081,2066,2054,2043,2051,2097
2049,2045,2072,2064,2062,2039,2055,2098
2050,2046,2058,2060,2054,2035,2021,2091
2043,2034,2047,2051,2048,2035,1988,2093
2048,2038,2041,2050,2047,2036,2038,2096
2051,2050,2050,2045,2027,2037,2036,2093
2050,2048,2048,2042,2007,2041,2045,2088
2050,2048,2055,2045,2007,2040,2045,2082
2040,2056,2052,2046,2020,2040,2042,2082
2055,2060,2066,2049,2011,2043,2039,2080
2055,2062,2073,2052,1989,2032,2046,2069
2050,2059,2069,2046,1974,2031,2047,2058
2053,2054,2060,2049,1970,2033,2056,2045
2049,2050,2055,2042,1980,2037,2070,2040
2049,2051,2056,2043,1988,2045,2064,2033
2052,2050,2052,2051,2023,2043,2061,2020
2038,2047,2049,2055,2056,2041,2058,2015
2037,2044,2047,2054,2071,2038,2062,2010
2045,2049,2047,2056,2053,2038,2046,2000
2033,2037,2043,2052,2030,2043,2024,1997
2027,2026,2031,2038,2014,2061,2040,1998
2031,2042,2029,2039,2005,2060,2051,1994
2036,2036,2024,2040,2003,2056,2056,2001
2035,2036,2023,2043,1989,2031,2039,2008
2035,2029,2026,2055,2004,2008,2034,2026
2034,2035,2032,2068,2060,1997,2039,2045
2043,2043,2033,2072,2078,2010,2018,2062
2049,2044,2041,2070,2065,2020,2040,2068
2043,2040,2051,2061,2024,2017,2040,2074
2039,2045,2048,2052,1992,1998,2047,2078
2035,2042,2041,2047,1973,1993,2030,2072
2038,2034,2031,2034,1974,1993,2038,2073
2036,2036,2034,2044,2005,2018,2056,2078
2046,2043,2041,2061,2067,2045,2054,2081
2043,2036,2049,2066,2140,2066,2057,2078
2036,2029,2047,2060,2150,2069,2056,2067
2031,2030,2052,2058,2106,2049,2043,2078
2040,2042,2066,2055,2092,2049,2066,2080
2045,2051,2056,2049,2087,2051,2066,2077
2050,2053,2042,2040,2083,2044,2061,2075
2045,2057,2041,2037,2083,2049,2062,2069
2042,2054,2053,2049,2103,2051,2058,2065
2056,2055,2063,2067,2121,2046,2067,2064
2056,2058,2075,2073,2113,2040,2050,2058
2054,2063,2074,2072,2097,2043,2070,2048
2056,2059,2067,2070,2087,2051,2055,2035
2056,2050,2062,2060,2080,2052,2052,2021
2047,2048,2055,2050,2073,2049,2060,2008
2043,2045,2047,2052,2073,2048,2061,2002
2041,2039,2044,2052,2065,2050,2064,2002
2043,2030,2040,2054,2064,2049,2070,1993
2045,2034,2035,2048,2052,2043,2051,1987
2030,2022,2035,2045,2057,2054,2050,1989
2031,2031,2036,2051,2062,2058,2075,1993
2041,2032,2042,2050,2067,2061,2042,2000
2038,2034,2046,2053,2060,2060,2024,2008
2037,2032,2037,2057,2059,2067,2041,2015
2035,2032,2041,2051,2063,2065,2036,2028
2044,2038,2044,2048,2051,2061,2040,2039
2036,2039,2049,2050,2038,2052,2038,2050
2042,2050,2061,2047,2022,2043,2043,2058
2043,2057,2067,2048,2018,2038,2060,2061
2058,2057,2053,2050,2016,2031,2016,2060
2051,2050,2049,2043,2026,2040,2023,2062
2048,2055,2052,2057,2056,2044,2018,2070
2057,2057,2057,2069,2058,2038,2055,2083
2061,2056,2058,2071,2034,2044,2056,2084
2054,2058,2055,2062,2033,2035,2039,2077
2044,2039,2042,2059,2036,2036,2054,2075
2041,2034,2040,2065,2058,2039,2051,2076
2048,2053,2044,2069,2054,2045,2054,2077
2045,2051,2045,2069,2046,2047,2041,2065
2046,2049,2039,2061,2039,2029,2046,2060
2049,2045,2041,2055,2020,2029,2051,2065
2053,2044,2037,2054,2046,2033,2058,2061
2048,2047,2040,2057,2073,2036,2052,2048
2046,2044,2038,2069,2095,2049,2056,2035
2040,2042,2035,2071,2099,2054,2059,2033
2038,2036,2035,2074,2087,2060,2058,2019
2031,2025,2034,2069,2080,2058,2058,2007
2032,2026,2035,2053,2050,2055,2056,2000
2037,2025,2040,2053,2036,2050,2044,2003
2040,2036,2051,2059,2065,2052,2057,2000
2034,2040,2058,2068,2105,2048,2037,2001
2037,2035,2050,2065,2117,2051,2036,2002
2036,2035,2041,2077,2140,2055,2042,2002
2044,2043,2044,2081,2142,2058,2033,2002
2036,2034,2041,2070,2124,2055,2021,2004
2033,2040,2040,2066,2120,2057,2041,2020
2045,2036,2033,2059,2105,2055,2030,2028
2039,2035,2027,2047,2083,2035,2020,2042
2040,2032,2026,2025,1975,1979,2022,2050
2046,2039,2026,2016,1925,1968,2004,2062
2037,2041,2022,2026,1947,1994,2022,2070
2048,2046,2020,2050,1998,2018,2039,2065
2038,2042,2010,2051,2033,2033,2046,2069
2034,2039,1995,2039,2056,2037,2036,2071
2027,2031,2000,2025,2066,2031,2031,2069
2032,2035,2020,2029,2062,2041,2035,2076
2032,2048,2045,2036,2046,2050,2033,2068
2030,2040,2044,2025,2027,2057,2036,2072
2033,2044,2039,2022,2025,2061,2047,2073
2039,2052,2056,2028,2040,2061,2048,2072
2043,2057,2075,2038,2028,2066,2050,2065
2041,2057,2084,2048,2070,2063,2044,2066
2049,2053,2080,2054,2100,2060,2026,2070
2054,2050,2084,2058,2098,2063,2065,2060
2050,2049,2080,2054,2091,2060,2053,2052
2049,2047,2075,2046,2067,2059,2048,2036
2042,2048,2077,2053,2066,2062,2047,2031
2048,2055,2075,2062,2084,2070,2047,2026
2041,2057,2074,2053,2071,2064,2057,2016
2042,2056,2072,2033,2013,2054,2075,2016
2043,2058,2069,2038,2009,2059,2062,2016
2048,2055,2066,2042,2008,2056,2077,2019
2048,2051,2063,2037,2007,2040,2058,2000
2037,2040,2051,2032,2019,2024,2023,1999
2034,2042,2055,2031,2036,2022,2037,2003
2045,2047,2057,2042,2046,2020,2026,2014
2047,2048,2054,2048,2056,2024,2036,2016
2037,2043,2053,2054,2063,2031,2043,2026
2041,2048,2057,2058,2063,2031,2038,2033
2041,2044,2060,2060,2060,2028,2033,2037
2045,2044,2053,2057,2052,2028,2029,2048
2041,2041,2046,2055,2045,2036,2041,2050
2040,2039,2043,2056,2034,2059,2033,2047
2043,2040,2045,2052,2037,2069,2035,2055
2033,2031,2051,2047,2027,2072,2019,2060
2039,2041,2054,2049,2015,2064,2032,2064
2040,2044,2047,2053,2020,2058,2049,2077
2042,2054,2053,2056,2027,2033,2045,2061
2041,2051,2054,2051,2035,2034,2036,2068
2037,2038,2040,2048,2043,2051,2047,2067
2030,2037,2042,2052,2054,2088,2048,2073
2038,2048,2048,2056,2062,2105,2050,2066
2043,2044,2047,2060,2062,2101,2035,2066
2042,2046,2044,2061,2068,2099,2027,2065
2046,2045,2042,2061,2065,2089,2024,2064
2048,2052,2047,2059,2065,2072,2028,2051
2043,2054,2048,2070,2066,2066,2049,2041
2044,2052,2050,2071,2064,2056,2042,2045
2050,2048,2048,2068,2075,2064,2054,2033
2039,2044,2042,2073,2083,2074,2054,2021
2029,2036,2038,2071,2090,2077,2057,2009
2032,2035,2033,2078,2102,2069,2058,2003
2035,2040,2036,2084,2102,2064,2053,1991
2038,2041,2033,2080,2118,2048,2050,1996
2033,2040,2032,2081,2125,2032,2035,1988
2032,2031,2036,2073,2109,2016,2041,1995
2026,2029,2037,2068,2100,2007,2037,2002
2040,2040,2050,2070,2077,2010,2051,2007
2037,2044,2049,2046,2008,2016,2022,2003
2035,2041,2037,2030,1975,2016,2041,2010
2032,2036,2033,2014,1988,2018,2025,2024
2029,2041,2039,2025,2045,2028,2036,2036
2039,2040,2050,2036,2075,2032,2032,2044
2039,2042,2061,2042,2057,2028,2033,2055
2035,2052,2069,2046,2039,2033,2051,2065
2044,2059,2084,2053,2037,2044,2042,2065
2041,2067,2085,2056,2053,2053,2033,2065
2048,2068,2077,2059,2056,2047,2044,2074
2045,2062,2065,2056,2037,2038,2031,2075
2047,2062,2063,2046,2020,2034,2015,2080
2043,2060,2058,2030,1964,2022,2011,2076
2040,2039,2043,1998,1847,2009,2007,2072
2033,2038,2033,2002,1881,2014,2030,2072
2038,2052,2050,2008,1963,2016,2017,2066
2040,2051,2050,2018,2024,2022,2037,2062
2041,2053,2049,2044,2066,2035,2034,2062
2045,2047,2040,2057,2082,2042,2048,2056
2044,2050,2048,2063,2087,2046,2050,2047
2039,2044,2044,2058,2071,2044,2041,2039
2035,2045,2042,2049,2068,2038,2038,2033
2034,2040,2043,2051,2057,2042,2036,2020
2032,2040,2042,2051,2065,2042,2047,2022
2034,2040,2040,2051,2067,2049,2032,2014
2036,2040,2042,2043,2060,2049,2029,2001
2030,2039,2038,2040,2056,2052,2037,1999
2029,2038,2034,2043,2045,2045,2054,1986
2028,2038,2038,2040,2021,2035,2040,1981
2020,2027,2030,2031,2000,2026,2045,1978
2015,2032,2029,2029,1994,2044,2029,1990
2032,2037,2038,2035,2006,2040,2043,2001
2034,2037,2041,2041,2027,2046,2041,2010
2030,2046,2043,2048,2029,2042,2045,2015
2033,2043,2056,2056,2028,2045,2031,2030
2035,2044,2060,2058,2029,2044,2037,2035
2036,2049,2061,2066,2036,2044,2033,2049
2043,2054,2062,2071,2051,2050,2039,2056
2053,2050,2062,2076,2054,2049,2043,2065
2050,2049,2059,2070,2044,2049,2045,2068
2049,2054,2059,2076,2040,2049,2033,2066
2042,2057,2057,2072,2035,2049,2034,2069
2038,2052,2052,2071,2041,2052,2035,2077
2042,2048,2046,2072,2035,2048,2023,2076
2036,2045,2043,2060,2034,2038,2021,2064
2034,2028,2023,2023,2012,2039,2034,2063
2021,2026,2022,2006,1984,2047,2035,2060
2025,2029,2031,1997,1962,2053,2025,2056
2024,2035,2021,1992,1939,2067,2031,2053
2034,2038,2022,1982,1943,2052,2051,2051
2038,2055,2032,1995,1980,2034,2057,2057
2052,2057,2051,2020,2014,2052,2063,2058
2059,2063,2062,2034,2032,2041,2051,2061
2060,2069,2073,2056,2042,2017,2054,2064
2065,2074,2066,2067,2051,2029,2052,2059
2051,2066,2063,2063,2069,2041,2051,2033
2049,2060,2060,2053,2085,2046,2039,2017
2038,2051,2052,2040,2080,2030,2035,2011
2038,2043,2046,2035,2089,2032,2030,2003
2040,2045,2037,2036,2083,2035,2010,1996
2035,2048,2043,2040,2054,2026,2005,1989
2035,2042,2031,2032,2033,2034,2036,1982
2029,2036,2036,2040,2073,2055,2046,1989
2037,2052,2049,2060,2116,2078,2049,2002
2046,2054,2044,2066,2141,2092,2043,2013
2038,2046,2049,2072,2131,2100,2038,2016
2041,2049,2054,2066,2103,2093,2041,2026
2043,2044,2053,2062,2085,2073,2027,2040
2035,2048,2052,2055,2081,2067,2059,2053
2037,2054,2052,2050,2078,2070,2040,2062
2038,2053,2056,2056,2067,2060,2049,2067
2041,2057,2049,2058,2077,2063,2062,2069
2047,2052,2048,2056,2061,2058,2071,2075
2037,2052,2051,2052,2064,2055,2062,2074
2041,2046,2049,2052,2063,2046,2053,2081
2046,2046,2048,2059,2067,2042,2051,2074
2044,2047,2050,2051,2057,2019,2038,2074
2038,2045,2047,2044,2044,2009,2053,2079
2039,2039,2044,2049,2049,2022,2052,2078
2050,2055,2053,2056,2055,2029,2045,2080
2047,2058,2053,2060,2061,2038,2073,2078
2044,2061,2059,2061,2070,2046,2060,2075
2047,2060,2054,2060,2070,2056,2066,2068
2041,2057,2054,2060,2069,2060,2060,2057
2047,2057,2053,2059,2071,2056,2063,2054
2047,2048,2049,2054,2067,2054,2056,2047
2047,2049,2047,2054,2065,2053,2052,2035
2049,2047,2048,2053,2062,2058,2046,2028
2050,2052,2046,2045,2063,2054,2049,2020
2046,2050,2050,2050,2061,2048,2056,2016
2042,2050,2046,2044,2058,2053,2065,2007
2036,2045,2046,2044,2050,2054,2062,2001
2039,2044,2044,2035,2043,2052,2051,1991
2035,2040,2042,2037,2046,2047,2050,1992
2033,2042,2045,2036,2050,2058,2062,2002
2034,2052,2049,2045,2054,2061,2063,2008
2037,2049,2043,2040,2053,2059,2068,2015
2045,2052,2040,2037,2050,2054,2052,2024
2041,2045,2042,2042,2049,2053,2052,2033
2036,2050,2046,2040,2042,2049,2046,2038
2044,2048,2049,2044,2040,2047,2040,2053
2044,2049,2049,2047,2046,2048,2039,2050
2040,2052,2043,2054,2053,2048,2043,2068
2045,2050,2050,2052,2048,2053,2043,2079
2049,2055,2053,2055,2052,2050,2046,2085
2053,2052,2047,2053,2051,2056,2052,2084
2050,2054,2048,2051,2045,2055,2041,2089
2048,2057,2061,2052,2042,2060,2032,2088
2053,2057,2071,2059,2052,2054,2037,2086
2044,2051,2068,2057,2047,2056,2037,2082
2043,2047,2070,2060,2050,2059,2049,2081
2049,2055,2071,2058,2059,2067,2036,2078
2047,2057,2063,2061,2056,2068,2044,2077
2045,2060,2060,2052,2055,2062,2051,2075
2045,2059,2057,2056,2057,2071,2048,2073
2051,2057,2055,2060,2062,2072,2063,2068
2050,2061,2052,2049,2058,2067,2054,2053
2048,2052,2050,2053,2054,2057,2049,2045
2042,2048,2048,2046,2048,2045,2059,2039
2046,2044,2050,2046,2055,2043,2049,2028
2041,2044,2044,2048,2058,2048,2034,2020
2041,2038,2039,2047,2051,2043,2047,2015
2041,2043,2034,2047,2056,2044,2066,2004
2034,2037,2031,2048,2049,2039,2058,2002
2034,2034,2033,2043,2042,2028,2027,1996
2020,2020,2024,2033,2040,2022,2019,1991
2021,2021,2027,2055,2038,2025,2003,1996
2034,2032,2036,2075,2046,2025,2030,2004
2040,2039,2043,2089,2047,2026,2035,2014
2036,2029,2043,2087,2042,2030,2034,2016
2037,2035,2036,2092,2042,2033,2033,2030
2029,2035,2032,2086,2038,2034,2036,2035
2032,2033,2035,2087,2031,2035,2034,2048
2037,2033,2031,2089,2037,2043,2025,2054
2045,2039,2034,2079,2032,2042,2038,2064
2041,2044,2036,2081,2036,2045,2059,2070
2047,2049,2041,2085,2047,2046,2035,2069
2054,2052,2040,2080,2052,2042,2024,2073
2046,2042,2037,2070,2049,2051,2031,2081
2047,2043,2025,2048,2049,2049,2028,2076
2041,2042,2026,2026,2026,2037,1993,2075
2033,2030,2029,2006,2028,2037,2001,2072
2038,2042,2041,1998,2032,2052,2038,2082
2053,2062,2042,1986,2040,2057,2042,2081
2056,2064,2045,1993,2047,2060,2046,2081
2050,2058,2038,2008,2043,2056,2059,2071
2053,2050,2033,2019,2050,2050,2064,2073
2047,2053,2036,2036,2050,2060,2070,2061
2052,2054,2036,2030,2046,2064,2042,2057
2045,2053,2027,2020,2041,2069,2057,2040
2042,2051,2023,2012,2034,2072,2058,2028
2046,2058,2047,2018,2034,2073,2065,2021
2041,2071,2086,2029,2047,2078,2057,2029
2054,2080,2098,2037,2052,2069,2039,2019
2056,2082,2089,2037,2050,2058,2075,2017
2052,2079,2078,2036,2045,2046,2064,2011
2052,2072,2070,2037,2042,2038,2040,2003
2045,2059,2053,2036,2047,2046,2036,2004
2045,2060,2056,2039,2039,2054,2047,2015
2055,2058,2060,2039,2046,2052,2036,2012
2046,2059,2072,2044,2048,2045,2039,2012
2043,2057,2075,2040,2049,2047,2044,2024
2039,2049,2069,2040,2044,2054,2049,2031
2041,2049,2067,2039,2044,2056,2042,2047
2045,2054,2072,2042,2048,2057,2043,2054
2052,2054,2062,2042,2048,2052,2046,2063
2049,2059,2063,2040,2042,2047,2032,2072
2044,2050,2061,2037,2040,2043,2036,2070
2042,2054,2060,2045,2038,2043,2044,2075
2048,2054,2057,2050,2044,2044,2041,2077
2048,2053,2057,2049,2047,2046,2025,2080
2046,2055,2057,2050,2052,2044,2048,2075
2046,2053,2054,2053,2044,2042,2033,2074
2038,2041,2048,2051,2049,2046,2023,2072
2042,2048,2058,2062,2056,2059,2030,2076
2044,2057,2060,2062,2070,2064,2046,2078
2050,2059,2064,2064,2066,2078,2051,2073
2050,2056,2061,2064,2081,2082,2044,2069
2052,2058,2055,2062,2076,2098,2054,2069
2049,2060,2051,2054,2076,2091,2052,2062
2050,2065,2048,2056,2070,2081,2062,2053
2044,2060,2040,2051,2061,2066,2056,2046
2039,2048,2040,2045,2063,2066,2053,2030
2041,2045,2038,2050,2062,2064,2069,2028
2044,2048,2039,2045,2062,2056,2062,2014
2036,2050,2047,2048,2061,2050,2037,2009
2039,2053,2048,2054,2067,2066,2044,1998
2034,2056,2048,2059,2070,2085,2049,1998
2036,2057,2044,2058,2070,2091,2044,1998
2040,2044,2039,2061,2072,2104,2043,1994
2044,2062,2054,2066,2074,2097,2067,2012
2052,2061,2051,2061,2068,2044,2049,2016
2046,2056,2049,2056,2045,2001,2050,2021
2039,2054,2051,2051,2036,1997,2042,2033
2048,2062,2053,2050,2032,2005,2042,2041
2046,2061,2049,2046,2020,2010,2038,2057
2052,2062,2047,2044,2014,2013,2058,2068
2056,2068,2052,2043,2012,2019,2066,2076
2054,2063,2051,2046,2032,2030,2046,2076
2056,2063,2057,2043,2025,2029,2077,2080
2056,2065,2046,2038,2027,2030,2052,2083
2051,2062,2048,2042,2020,2028,2026,2077
2047,2058,2051,2037,2019,2025,2028,2082
2046,2057,2044,2038,2023,2034,2059,2084
2040,2053,2040,2033,2017,2035,2043,2079
2037,2044,2034,2035,2029,2063,2044,2073
2037,2052,2039,2038,2036,2098,2039,2075
2036,2052,2032,2034,2043,2122,2046,2066
2042,2056,2041,2039,2034,2136,2059,2063
2037,2054,2041,2043,2042,2129,2063,2062
2035,2053,2045,2042,2046,2112,2059,2053
2037,2049,2046,2052,2046,2093,2035,2047
2031,2044,2044,2056,2042,2066,2034,2042
2033,2047,2040,2047,2047,2049,2026,2040
2036,2049,2040,2056,2040,2039,2026,2032
2030,2051,2035,2056,2048,2018,2038,2025
2032,2051,2038,2054,2046,2020,2042,2014
2028,2051,2038,2051,2039,2015,2049,2005
2036,2054,2044,2051,2039,2008,2017,2002
2033,2059,2042,2055,2044,2004,2041,1997
2032,2050,2038,2054,2050,2001,2041,1988
2035,2044,2039,2060,2053,2018,2055,2000
2035,2053,2051,2068,2058,2030,2030,2011
2040,2055,2045,2065,2059,2048,2028,2019
2040,2049,2040,2057,2056,2058,2031,2020
2046,2053,2045,2055,2048,2062,2052,2033
2062,2056,2043,2056,2045,2063,2049,2039
2069,2057,2041,2052,2035,2057,2053,2051
2051,2048,2039,2055,2039,2062,2055,2056
2044,2047,2042,2053,2053,2069,2035,2061
2056,2049,2036,2046,2056,2076,2046,2060
2043,2044,2033,2041,2044,2082,2038,2067
2040,2040,2036,2027,2036,2068,2052,2067
2037,2039,2032,2022,2027,2065,2035,2066
2038,2037,2028,2018,2020,2058,2044,2080
2044,2039,2033,2022,2024,2059,2025,2078
2044,2040,2032,2019,2021,2038,2031,2076
2038,2041,2038,2022,2021,2034,2027,2086
2050,2060,2053,2037,2036,2047,2042,2087
2061,2066,2056,2046,2044,2052,2038,2088
2063,2063,2048,2047,2050,2051,2023,2084
2061,2067,2051,2043,2042,2049,2028,2077
2061,2064,2052,2044,2040,2052,2034,2071
2054,2062,2051,2042,2042,2050,2043,2066
2056,2063,2048,2039,2039,2049,2051,2057
2048,2063,2046,2038,2035,2053,2040,2046
2049,2056,2042,2038,2036,2055,2037,2028
2049,2058,2040,2038,2034,2053,2046,2028
2047,2052,2040,2044,2042,2051,2066,2021
2049,2051,2041,2040,2044,2052,2055,2014
2044,2052,2045,2037,2035,2054,2059,2010
2049,2049,2043,2041,2033,2053,2072,1996
2045,2039,2034,2034,2030,2040,2060,1996
2042,2040,2035,2034,2021,2037,2037,2005
2048,2052,2044,2036,2034,2046,2036,2011
2050,2052,2049,2037,2038,2050,2027,2015
2046,2054,2048,2045,2031,2046,2019,2021
2056,2057,2048,2043,2029,2043,2060,2029
2050,2061,2046,2041,2039,2039,2023,2033
2050,2058,2047,2038,2036,2033,2024,2042
2046,2050,2041,2029,2030,2032,2018,2055
2046,2051,2040,2042,2028,2036,2029,2058
2046,2048,2041,2041,2034,2045,2033,2060
2046,2051,2042,2041,2037,2046,2047,2068
2041,2050,2042,2041,2039,2052,2067,2072
2045,2052,2035,2043,2037,2045,2049,2076
2050,2049,2043,2040,2029,2051,2053,2082
2051,2052,2045,2039,2035,2046,2047,2081
2045,2046,2035,2030,2026,2037,2027,2084
2042,2044,2030,2026,2023,2044,2027,2082
2045,2049,2043,2040,2037,2053,2068,2088
2053,2063,2043,2041,2043,2059,2039,2075
2049,2059,2048,2047,2048,2058,2069,2077
2051,2056,2044,2051,2045,2057,2068,2070
2059,2065,2053,2049,2043,2056,2073,2070
2061,2065,2042,2045,2052,2059,2039,2064
2062,2065,2041,2046,2053,2055,2029,2057
2056,2065,2032,2040,2043,2052,2036,2048
2054,2062,2031,2045,2048,2053,2064,2036
2048,2058,2022,2041,2053,2055,2040,2024
2046,2055,2020,2042,2049,2056,2030,2020
2043,2053,2026,2040,2044,2054,2033,2004
2043,2051,2030,2045,2051,2062,2050,2005
2047,2053,2022,2043,2051,2054,2034,1999
2040,2048,2009,2036,2042,2050,2033,1997
2036,2046,2004,2031,2042,2050,2049,1999
2044,2051,2011,2041,2050,2056,2027,2010
2047,2049,2017,2041,2056,2052,2041,2016
2044,2051,2014,2043,2054,2046,2037,2024
2041,2053,2024,2036,2048,2040,2024,2035
2048,2060,2040,2046,2049,2039,2022,2035
2046,2056,2052,2045,2051,2035,2020,2044
2045,2057,2052,2051,2040,2019,2028,2051
2043,2055,2046,2051,2038,2014,2031,2061
2042,2052,2046,2050,2033,2017,2028,2057
2043,2051,2055,2047,2039,2026,2035,2064
2045,2059,2056,2045,2040,2019,2050,2076
2041,2054,2055,2047,2042,2017,2045,2075
2043,2046,2055,2051,2042,2021,2041,2069
2036,2051,2068,2063,2052,2042,2044,2070
2039,2056,2078,2070,2058,2062,2040,2074
2033,2051,2074,2074,2066,2066,2049,2062
2035,2061,2076,2078,2072,2068,2053,2070
2038,2061,2073,2069,2068,2056,2047,2058
2038,2055,2067,2067,2059,2053,2060,2060
2034,2054,2058,2057,2055,2046,2055,2057
2035,2054,2055,2050,2056,2048,2047,2053
2041,2053,2050,2049,2060,2058,2054,2047
2039,2049,2044,2045,2066,2069,2037,2035
2041,2051,2042,2055,2070,2078,2057,2041
2050,2060,2050,2054,2065,2073,2068,2046
2051,2065,2056,2056,2059,2071,2057,2033
2048,2068,2057,2050,2055,2053,2039,2014
2043,2064,2062,2043,2046,2046,2045,2008
2046,2054,2064,2042,2044,2043,2060,2012
2047,2052,2062,2046,2042,2040,2050,2006
2042,2040,2045,2036,2030,2028,2056,1997
2027,2031,2042,2038,2036,2019,2042,1996
2035,2042,2044,2044,2046,2029,2041,2005
2040,2040,2046,2042,2039,2037,2036,2012
2042,2044,2034,2038,2036,2034,2039,2020
2036,2042,2026,2038,2032,2032,2042,2031
2040,2042,2024,2039,2025,2035,2046,2045
2035,2040,2022,2038,2030,2036,2035,2051
2040,2033,2021,2030,2033,2034,2046,2059
2044,2036,2014,2028,2021,2008,2018,2065
2043,2041,2021,2037,2004,2002,2027,2060
2037,2040,2013,2035,2017,2011,2041,2062
2040,2038,2009,2040,2013,2034,2016,2064
2026,2037,2007,2033,2034,2076,2011,2066
2031,2032,2002,2039,2066,2116,2036,2072
2036,2032,1998,2045,2080,2104,2034,2072
2034,2028,1989,2037,2067,2086,2050,2070
2029,2018,1985,2033,2056,2074,2053,2068
2024,2022,1990,2036,2053,2072,2066,2073
2036,2031,1997,2038,2046,2076,2045,2064
2027,2038,2005,2043,2050,2085,2042,2064
2033,2042,2003,2039,2052,2083,2036,2064
2042,2049,2021,2044,2056,2081,2046,2062
2045,2058,2033,2055,2071,2078,2051,2061
2046,2059,2050,2070,2079,2074,2071,2055
2042,2058,2069,2074,2086,2072,2043,2045
2041,2059,2068,2068,2075,2075,2047,2036
2038,2051,2055,2054,2062,2069,2052,2021
2028,2054,2055,2048,2054,2064,2049,2018
2035,2062,2071,2049,2058,2040,2046,2002
2033,2064,2070,2042,2049,2005,2030,1996
2034,2057,2051,2040,2043,2017,2018,1991
2031,2050,2041,2023,2031,2019,2013,1985
2025,2035,2034,2016,2029,2027,2013,1981
2025,2039,2044,2025,2039,2040,2006,2000
2036,2057,2069,2031,2048,2041,2016,2005
2036,2066,2075,2039,2040,2038,2023,2014
2035,2064,2068,2029,2034,2042,2033,2024
2034,2065,2082,2024,2032,2040,2047,2037
2038,2073,2110,2042,2040,2048,2038,2053
2047,2082,2117,2050,2050,2056,2043,2070
2051,2078,2105,2054,2056,2063,2037,2076
2041,2072,2084,2054,2054,2062,2044,2082
2044,2064,2074,2048,2053,2064,2038,2079
2049,2059,2070,2047,2056,2063,2053,2087
2046,2053,2060,2042,2040,2055,2042,2084
2045,2047,2050,2035,2037,2048,2035,2076
2035,2040,2052,2036,2035,2030,2044,2075
2037,2042,2050,2036,2008,2018,2008,2080
2022,2033,2053,2033,1995,2001,2027,2068
2018,2028,2052,2040,1995,2006,2029,2068
2020,2030,2054,2035,1982,2019,2018,2057
2018,2033,2054,2057,2001,2041,2036,2069
2033,2037,2061,2064,2036,2055,2028,2063
2036,2039,2060,2082,2056,2062,2023,2066
2035,2034,2066,2092,2075,2046,2027,2061
2040,2034,2080,2114,2086,2043,2041,2057
2039,2039,2086,2132,2087,2061,2032,2044
2037,2033,2095,2140,2086,2074,2033,2035
2041,2044,2090,2135,2076,2087,2037,2034
2040,2043,2088,2132,2057,2073,2039,2027
2037,2050,2096,2129,2051,2034,2042,2021
2039,2055,2115,2131,2052,2034,2033,2020
2039,2064,2109,2119,2067,2037,2021,2009
2037,2059,2091,2103,2086,2038,1991,1992
2026,2038,2062,2078,2083,2056,2001,1986
2028,2036,2031,2055,2074,2056,2035,2000
2036,2037,2000,2013,2065,2052,2051,2005
2022,2035,1984,1991,2054,2045,2026,2009
2019,2031,1990,1975,2057,2043,2041,2018
2022,2036,2001,1964,2064,2053,2030,2026
2016,2039,2004,1948,2065,2058,2026,2033
2022,2041,2001,1941,2062,2059,2050,2055
2028,2049,1992,1944,2067,2077,2034,2062
2033,2039,1997,1964,2056,2097,2042,2065
2027,2030,1997,1976,2056,2103,2042,2069
2028,2038,1998,1988,2057,2106,2060,2070
2033,2039,2002,2000,2054,2097,2044,2080
2033,2037,2018,2012,2060,2051,2034,2095
2040,2040,2036,2026,2070,2028,2042,2099
2044,2040,2055,2026,2066,2017,2037,2088
2024,2030,2053,2025,2054,2008,2045,2074
2021,2022,2045,2027,2051,2013,2045,2082
2018,2025,2046,2034,2061,2030,2030,2076
2020,2027,2035,2029,2056,2053,2041,2073
2024,2030,2029,2031,2056,2063,2046,2066
2021,2030,2019,2032,2066,2075,2045,2058
2020,2024,2017,2031,2062,2066,2037,2058
2022,2028,2020,2031,2065,2060,2035,2052
2026,2028,2032,2034,2058,2056,2034,2042
2025,2031,2030,2034,2055,2050,2024,2034
2022,2030,2024,2032,2059,2046,2048,2022
2017,2029,2024,2041,2067,2045,2036,2018
2021,2032,2026,2036,2072,2043,2035,2004
2021,2038,2026,2038,2076,2023,2043,2009
2035,2044,2030,2045,2075,2020,2034,2022
2034,2047,2035,2048,2081,2016,2045,2015
2033,2039,2029,2035,2076,2022,2049,2007
2036,2033,2029,2046,2070,2042,2036,2013
2033,2046,2042,2049,2069,2058,2028,2022
2032,2046,2048,2047,2057,2056,2003,2021
2029,2046,2046,2040,2049,2034,1994,2021
2028,2052,2063,2037,2046,2017,2006,2032
2026,2054,2073,2043,2041,2023,2015,2043
2030,2054,2068,2046,2040,2034,2041,2065
2029,2048,2065,2044,2050,2048,2053,2077
2038,2051,2075,2044,2058,2063,2059,2086
2041,2044,2074,2048,2058,2065,2049,2089
2038,2043,2068,2039,2052,2063,2052,2086
2034,2040,2044,2040,2050,2057,2042,2082
2025,2034,2019,2032,2050,2056,2025,2083
2021,2029,2006,2036,2043,2051,2024,2086
2017,2021,1998,2035,2042,2043,2022,2084
2019,2018,1989,2032,2044,2040,2028,2086
2021,2023,1994,2037,2049,2047,2023,2092
2033,2037,2004,2046,2063,2049,2050,2093
2032,2036,2007,2046,2048,2025,2035,2083
2030,2039,2009,2041,2051,2022,2024,2082
2027,2033,2017,2041,2055,2017,2032,2082
2033,2035,2030,2047,2061,2028,2037,2081
2033,2037,2035,2045,2045,2030,2025,2065
2034,2039,2049,2045,2038,2028,2031,2062
2034,2040,2048,2045,2029,2021,2030,2062
2021,2036,2051,2034,2015,2027,2027,2038
2018,2030,2056,2022,2011,2030,2041,2023
2016,2032,2080,2042,2046,2051,2038,2025
2029,2055,2104,2073,2067,2061,2062,2030
2032,2065,2106,2072,2073,2067,2068,2028
2032,2065,2102,2067,2066,2067,2057,2032
2026,2061,2091,2058,2055,2059,2058,2022
2030,2047,2078,2049,2050,2043,2023,2020
2027,2054,2072,2039,2039,2047,2021,2024
2025,2050,2065,2026,2028,2049,2030,2023
2029,2048,2054,2021,2009,2050,2029,2029
2035,2051,2056,2024,2010,2046,2049,2042
2031,2052,2056,2023,2010,2033,2034,2052
2036,2056,2056,2024,1992,2010,2033,2069
2028,2057,2060,2022,1988,1997,2036,2072
2031,2048,2063,2034,1990,1992,2030,2074
2029,2046,2061,2028,1974,1997,2028,2070
2020,2040,2059,2026,2000,2014,2035,2077
2016,2048,2064,2048,2035,2044,2045,2082
2027,2056,2072,2060,2067,2069,2044,2095
2036,2056,2071,2064,2088,2091,2055,2107
2036,2052,2071,2066,2092,2096,2074,2104
2033,2053,2066,2061,2070,2069,2064,2103
2022,2038,2053,2051,2054,2059,2062,2102
2022,2042,2054,2048,2054,2074,2070,2101
2031,2053,2061,2058,2067,2092,2070,2105
2025,2050,2056,2058,2067,2101,2065,2103
2031,2052,2056,2050,2064,2097,2064,2095
2031,2052,2053,2053,2055,2085,2058,2104
2034,2058,2056,2045,2053,2080,2051,2093
2038,2060,2063,2042,2055,2085,2047,2086
2040,2059,2059,2037,2055,2085,2049,2079
2044,2052,2054,2034,2059,2081,2043,2072
2044,2054,2051,2034,2053,2042,2044,2057
2041,2052,2048,2030,2041,2008,2016,2046
2038,2048,2046,2024,2028,2004,2040,2036
2035,2049,2044,2025,2025,2018,2045,2030
2035,2050,2051,2028,2012,2021,2041,2027
2032,2039,2049,2027,2003,2013,2029,2030
2024,2028,2032,2021,1991,2003,2021,2028
2024,2029,2032,2019,1992,2010,2020,2026
2028,2037,2033,2029,1994,2024,2035,2038
2033,2034,2024,2034,1996,2026,2033,2042
2032,2043,2024,2027,2000,2030,2043,2052
2038,2046,2029,2027,2005,2040,2031,2065
2039,2052,2028,2036,2010,2038,2041,2064
2044,2059,2037,2036,2014,2043,2049,2075
2045,2057,2031,2036,2023,2042,2052,2085
2048,2050,2037,2038,2043,2041,2045,2084
2036,2049,2034,2037,2060,2031,2039,2091
2037,2038,2034,2035,2056,2025,2041,2079
2027,2035,2029,2030,2071,2031,2025,2091
2036,2040,2021,2026,2071,2030,2042,2087
2031,2029,2010,2015,2056,2032,2072,2099
2027,2035,2017,2028,2052,2032,2056,2099
2021,2031,2026,2022,2048,2027,2050,2098
2026,2032,2038,2025,2044,2033,2045,2100
2039,2047,2056,2036,2046,2038,2054,2103
2029,2053,2052,2033,2045,2036,2048,2100
2027,2053,2056,2034,2047,2027,2051,2091
2031,2062,2068,2042,2047,2013,2049,2090
2036,2067,2079,2042,2046,2011,2054,2085
2036,2067,2074,2048,2041,2010,2054,2080
2039,2071,2075,2057,2050,2009,2043,2079
2044,2069,2069,2059,2070,2012,2043,2076
2045,2075,2068,2065,2073,2020,2046,2066
2043,2071,2062,2052,2068,2049,2055,2060
2034,2062,2061,2051,2065,2055,2043,2049
2039,2056,2054,2052,2059,2051,2020,2043
2032,2060,2048,2044,2048,2047,2028,2040
2045,2060,2048,2038,2042,2057,2051,2039
2036,2056,2052,2037,2046,2041,2037,2035
2037,2052,2049,2040,2037,2000,2019,2032
2041,2067,2052,2043,2038,1999,2030,2039
2038,2063,2042,2030,2027,2019,2034,2041
2031,2056,2034,2022,2027,2042,2038,2044
2031,2058,2049,2025,2026,2058,2039,2058
2031,2059,2051,2031,2025,2060,2034,2064
2041,2055,2054,2034,2035,2054,2045,2084
2043,2061,2052,2038,2039,2067,2038,2089
2049,2062,2058,2040,2042,2068,2037,2092
2042,2068,2055,2038,2043,2064,2035,2092
2046,2057,2053,2032,2041,2034,2040,2101
2048,2058,2054,2026,2043,2028,2043,2102
2050,2053,2044,2024,2041,2035,2051,2106
2043,2059,2042,2019,2038,2036,2054,2105
2045,2051,2044,2018,2032,2038,2023,2110
2042,2046,2033,2012,2027,2024,2035,2104
2030,2040,2041,2027,2024,2031,2026,2093
2034,2046,2061,2042,2039,2044,2039,2093
2034,2055,2060,2047,2043,2042,2043,2098
2033,2056,2056,2044,2048,2047,2046,2096
2036,2055,2062,2060,2044,2048,2041,2098
2035,2062,2072,2064,2038,2049,2052,2100
2045,2055,2077,2059,2044,2050,2059,2086
2037,2060,2068,2060,2042,2047,2034,2083
2039,2052,2068,2058,2044,2046,2046,2074
2044,2058,2072,2057,2039,2048,2039,2067
2047,2063,2063,2061,2042,2049,2026,2056
2039,2056,2062,2056,2022,2065,2029,2037
2039,2047,2058,2048,2001,2061,2020,2030
2034,2045,2052,2036,2001,2057,2024,2020
2032,2041,2050,2034,2020,2053,2029,2020
2032,2042,2043,2026,2059,2014,2018,2022
2032,2035,2045,2041,2116,2009,2034,2028
2042,2042,2055,2059,2164,2026,2026,2035
2046,2047,2052,2059,2172,2044,2039,2041
2045,2043,2054,2068,2171,2058,2043,2045
2038,2042,2051,2066,2160,2050,2043,2052
2038,2045,2046,2063,2128,2043,2041,2064
2034,2039,2039,2064,2115,2038,2017,2060
2022,2040,2038,2058,2099,2036,2024,2074
2028,2037,2042,2047,2069,2038,2046,2070
2024,2037,2035,2041,2015,2044,2055,2076
2028,2033,2023,2022,1918,2039,2054,2082
2029,2032,2018,2008,1926,2034,2049,2086
2033,2031,2019,2011,1975,2034,2046,2096
2037,2035,2025,2012,2009,2042,2056,2096
2041,2043,2037,2016,2019,2049,2024,2108
2046,2046,2033,2013,2024,2042,2013,2101
2043,2043,2022,2007,2028,2047,2044,2099
2050,2042,2026,2011,2041,2051,2052,2104
2049,2049,2019,2010,2041,2051,2046,2100
2051,2046,2014,2012,2046,2050,2064,2098
2044,2047,2020,2010,2037,2045,2043,2096
2049,2052,2031,2014,2042,2045,2050,2093
2056,2060,2036,2016,2048,2051,2067,2088
2058,2067,2049,2026,2048,2054,2064,2085
2056,2060,2045,2019,2043,2048,2045,2082
2052,2065,2038,2020,2038,2049,2037,2077
2058,2068,2029,2015,2041,2044,2048,2064
2053,2057,2027,2010,2037,2043,2058,2055
2049,2057,2022,2016,2043,2049,2066,2042
2049,2052,2040,2022,2036,2043,2065,2043
2051,2058,2062,2027,2038,2045,2078,2044
2056,2068,2066,2028,2042,2039,2077,2028
2042,2054,2054,2027,2036,2057,2059,2026
2040,2053,2043,2028,2036,2078,2058,2026
2042,2053,2039,2021,2033,2088,2055,2036
2053,2058,2028,2020,2033,2084,2044,2037
2053,2058,2029,2021,2034,2077,2060,2046
2050,2061,2035,2024,2040,2032,2055,2057
2053,2053,2034,2035,2059,1998,2048,2066
2055,2057,2038,2041,2056,1996,2032,2072
2058,2055,2041,2041,2048,2012,2056,2080
2055,2055,2035,2043,2042,2023,2037,2086
2056,2053,2030,2042,2041,2030,2040,2075
2055,2058,2049,2047,2039,2030,2058,2083
2048,2054,2055,2053,2047,2040,2062,2092
2046,2055,2041,2057,2048,2047,2069,2107
2054,2050,2033,2057,2052,2062,2055,2097
2045,2042,2025,2051,2042,2043,2045,2087
2032,2034,2030,2051,2042,2024,2032,2088
2037,2044,2054,2067,2053,2035,2059,2094
2045,2062,2076,2083,2058,2035,2071,2091
2049,2068,2081,2074,2058,2031,2041,2084
2049,2064,2063,2055,2050,2030,2029,2082
2045,2053,2053,2045,2042,2033,2059,2078
2043,2047,2043,2031,2039,2037,2054,2069
2039,2053,2048,2014,2034,2032,2048,2068
2038,2056,2065,2012,2039,2040,2066,2064
2047,2061,2080,2016,2043,2040,2075,2059
2049,2069,2086,2028,2055,2047,2064,2046
2053,2073,2079,2032,2064,2050,2065,2046
2049,2072,2071,2032,2067,2055,2072,2035
2053,2067,2068,2027,2053,2057,2052,2025
2049,2063,2061,2032,2043,2053,2058,2022
2055,2062,2060,2035,2044,2050,2048,2011
2045,2043,2048,2027,2049,2053,2021,2012
2046,2041,2043,2032,2060,2064,2053,2020
2044,2053,2048,2042,2056,2076,2051,2023
2054,2052,2050,2037,2052,2083,2050,2028
2050,2045,2050,2042,2058,2087,2053,2030
2054,2047,2046,2038,2057,2086,2073,2033
2048,2046,2047,2036,2048,2073,2062,2048
2044,2048,2049,2035,2052,2068,2052,2061
2046,2046,2053,2040,2058,2072,2053,2059
2046,2050,2057,2045,2061,2057,2039,2075
2052,2052,2052,2039,2074,2045,2053,2082
2055,2050,2050,2039,2074,2027,2048,2082
2052,2051,2053,2042,2058,2008,2053,2088
2052,2050,2051,2041,2051,1999,2047,2092
2051,2054,2056,2049,2044,1984,2050,2096
2055,2056,2055,2045,2039,1978,2048,2084
2047,2042,2042,2041,2046,1986,2038,2090
2044,2038,2045,2035,2043,2002,2045,2094
2052,2050,2056,2043,2045,2013,2048,2086
2049,2053,2054,2035,2035,2014,2036,2078
2046,2051,2051,2042,2036,2005,2038,2078
2053,2052,2052,2042,2040,2005,2048,2073
2051,2058,2044,2043,2042,2005,2052,2062
2047,2054,2041,2043,2046,2036,2057,2056
2043,2057,2039,2038,2046,2064,2024,2042
2043,2042,2040,2033,2031,2091,2058,2034
2041,2045,2037,2024,2026,2092,2060,2022
2045,2044,2035,2020,2034,2078,2054,2012
2040,2035,2032,2021,2037,2076,2051,2002
2038,2038,2030,2016,2043,2082,2063,1991
2041,2041,2035,2033,2077,2091,2067,2006
2050,2042,2044,2044,2107,2096,2060,2004
2044,2037,2041,2038,2099,2094,2064,1994
2041,2039,2038,2038,2099,2096,2060,2003
2055,2048,2040,2047,2116,2091,2062,2011
2053,2049,2040,2041,2157,2082,2057,2013
2052,2044,2032,2045,2157,2067,2052,2021
2042,2039,2028,2049,2148,2063,2050,2043
2047,2037,2026,2049,2126,2050,2039,2041
2053,2040,2024,2052,2100,2034,2032,2055
2051,2043,2027,2052,2059,2019,2040,2060
2045,2038,2024,2053,2019,2016,2038,2070
2041,2037,2020,2047,2010,2016,2035,2067
2041,2031,2016,2033,2003,2021,2067,2066
2038,2020,2018,2022,1987,2013,2046,2072
2032,2032,2021,2018,1959,2012,2028,2075
2052,2036,2043,2031,1981,2034,2032,2086
2057,2043,2052,2041,2015,2045,2039,2077
2050,2033,2060,2034,2021,2030,2034,2069
2046,2034,2068,2035,2029,2038,2030,2074
2044,2033,2057,2037,2045,2047,2044,2064
2043,2028,2054,2036,2040,2061,2055,2053
2041,2033,2042,2040,2043,2074,2054,2058
2041,2028,2041,2043,2050,2083,2072,2059
2040,2037,2049,2049,2055,2091,2076,2050
2044,2048,2053,2048,2049,2102,2076,2044
2052,2055,2061,2047,2041,2093,2056,2038
2051,2052,2054,2049,2030,2082,2033,2024
2052,2052,2053,2042,2019,2069,2056,2017
2045,2043,2056,2040,2027,2059,2052,2002
2049,2040,2052,2047,2044,2030,2052,2003
2048,2046,2056,2050,2058,2031,2052,2002
2046,2042,2051,2047,2067,2045,2059,1995
2051,2043,2050,2046,2071,2052,2052,1991
2054,2038,2038,2040,2078,2044,2044,1987
2045,2034,2037,2038,2073,2048,2043,1996
2057,2050,2051,2050,2074,2052,2054,2002
2063,2049,2050,2046,2070,2048,2044,2000
2057,2047,2049,2047,2059,2040,2045,2008
2055,2043,2049,2041,2048,2049,2074,2026
2049,2044,2048,2046,2038,2053,2075,2036
2048,2042,2046,2044,2025,2043,2056,2043
2052,2043,2049,2045,2020,2041,2068,2054
2059,2043,2051,2040,2011,2034,2065,2054
2058,2045,2052,2039,2013,2040,2061,2060
2055,2046,2045,2039,2014,2041,2052,2061
2056,2049,2048,2037,2024,2031,2033,2064
2051,2050,2046,2040,2028,2036,2040,2068
2057,2046,2042,2037,2031,2042,2042,2074
2050,2044,2047,2041,2038,2041,2038,2072
2052,2042,2042,2039,2035,2039,2038,2063
2044,2045,2040,2035,2044,2048,2049,2073
2057,2053,2051,2052,2064,2067,2064,2070
2060,2054,2050,2057,2073,2086,2037,2065
2057,2050,2047,2060,2071,2101,2044,2063
2060,2049,2042,2057,2058,2097,2025,2060
2056,2046,2037,2052,2034,2076,2013,2056
2059,2046,2035,2046,2023,2037,2005,2051
2059,2045,2034,2041,2021,2005,2019,2042
2054,2033,2025,2038,2028,2012,2009,2031
2055,2034,2027,2059,2068,2043,2038,2025
2055,2039,2036,2062,2096,2057,2048,2019
2058,2041,2029,2053,2104,2074,2059,2007
2052,2045,2034,2052,2093,2083,2056,2005
2056,2043,2033,2050,2080,2074,2075,1991
2047,2035,2021,2044,2068,2065,2063,1983
2045,2021,2012,2030,2048,2050,2059,1982
2044,2013,2007,2034,2055,2042,2068,1986
2044,2029,2019,2038,2057,2049,2068,1994
2042,2034,2019,2031,2044,2052,2068,2000
2045,2036,2036,2034,2038,2054,2076,2008
2045,2037,2049,2030,2033,2049,2075,2009
2043,2050,2059,2038,2030,2052,2075,2025
2054,2052,2067,2041,2027,2049,2077,2032
2053,2051,2060,2038,2037,2047,2083,2041
2045,2045,2049,2040,2043,2040,2087,2048
2049,2042,2052,2047,2044,2034,2056,2045
2050,2036,2041,2043,2038,2027,2077,2051
2050,2040,2034,2037,2040,2025,2072,2054
2043,2045,2034,2029,2037,2018,2070,2057
2051,2049,2048,2034,2038,2027,2078,2071
2055,2058,2061,2039,2038,2029,2061,2069
2059,2058,2060,2028,2032,2020,2047,2067
2059,2057,2055,2026,2033,2009,2047,2074
2063,2061,2062,2035,2040,2015,2053,2072
2062,2056,2057,2039,2040,2033,2071,2067
2064,2046,2048,2032,2035,2057,2058,2065
2065,2053,2049,2031,2016,2052,2073,2056
2064,2061,2058,2036,2021,2053,2069,2050
2061,2068,2077,2046,2024,2063,2084,2058
2059,2069,2088,2061,2030,2069,2097,2039
2058,2066,2098,2075,2087,2086,2095,2041
2060,2066,2096,2086,2129,2097,2098,2040
2063,2065,2095,2093,2162,2098,2086,2027
2064,2066,2096,2101,2179,2108,2091,2012
2062,2065,2085,2108,2183,2110,2074,2003
2062,2067,2077,2107,2169,2102,2058,2003
2060,2064,2062,2086,2049,2092,2064,1992
2052,2047,2046,2059,1932,2079,2060,1983
2042,2028,2037,2042,1920,2072,2073,1987
2049,2042,2043,2034,1935,2078,2075,2001
2052,2051,2052,2037,1974,2064,2069,1991
2048,2045,2041,2029,2012,2058,2085,2005
2053,2045,2034,2025,2044,2085,2100,2029
2056,2051,2046,2028,2066,2082,2095,2046
2058,2050,2034,2018,2079,2073,2079,2055
2058,2051,2028,2011,2094,2068,2047,2053
2057,2052,2030,2009,2112,2073,2065,2050
2051,2056,2042,2022,2161,2068,2056,2049
2042,2047,2041,2038,2180,2047,2050,2037
2041,2048,2049,2034,2140,2035,2039,2042
2041,2049,2051,2047,2127,2053,2024,2047
2041,2048,2050,2048,2107,2055,2019,2043
2039,2047,2050,2035,2058,2026,2033,2037
2036,2037,2045,2011,1994,1992,2002,2041
2023,2023,2026,1987,1922,1997,2026,2044
2038,2040,2032,1994,1878,2028,2043,2057
2044,2043,2037,2016,1953,2052,2060,2056
2047,2054,2035,2031,2016,2081,2044,2062
2059,2045,2035,2050,2037,2100,2054,2049
2047,2045,2030,2053,2037,2095,2060,2043
2043,2038,2020,2061,2031,2087,2056,2035
2044,2035,2021,2067,2026,2084,2041,2021
2037,2031,2018,2079,2054,2057,2042,2022
2043,2035,2024,2092,2074,2047,2036,2020
2046,2038,2027,2085,2064,2060,2038,2012
2047,2032,2018,2071,2042,2061,2046,2004
2048,2038,2023,2061,2014,2048,2018,1993
2045,2039,2024,2054,1983,2024,2041,1983
2044,2040,2019,2045,1988,1998,2038,1984
2039,2037,2005,2036,2002,1988,2048,1982
2034,2026,1988,2028,2016,2005,2025,1979
2036,2024,1988,2016,2035,2026,2038,1981
2044,2043,2014,2023,2044,2038,2036,2004
2053,2062,2055,2031,2056,2054,2056,2016
2056,2066,2081,2035,2062,2070,2064,2022
2061,2068,2078,2033,2056,2074,2065,2035
2060,2062,2064,2018,2045,2079,2057,2044
2055,2064,2060,2022,2057,2071,2060,2052
2061,2077,2076,2040,2064,2074,2051,2056
2061,2076,2085,2056,2090,2070,2030,2067
2058,2076,2081,2060,2072,2060,2048,2060
2057,2066,2085,2068,2048,2054,2028,2067
2056,2068,2092,2083,2062,2044,2045,2077
2062,2078,2096,2096,2091,2045,2055,2081
2070,2076,2098,2093,2113,2053,2030,2080
2064,2063,2079,2080,2114,2026,2037,2061
2051,2046,2062,2057,2078,2009,2021,2063
2050,2051,2058,2052,2072,2015,2042,2071
2056,2052,2055,2046,2067,2031,2053,2065
2062,2061,2047,2043,2040,2032,2040,2067
2056,2063,2051,2026,2023,2036,2052,2061
2050,2062,2042,2020,2002,2037,2045,2055
2051,2059,2046,2011,1940,2026,2034,2049
2051,2055,2053,2003,1936,2032,2036,2039
2048,2058,2058,2010,1987,2037,2026,2029
2050,2053,2064,2019,2039,2038,2043,2018
2047,2050,2061,2026,2065,2040,2046,2016
2050,2046,2056,2032,2066,2048,2040,2004
2048,2049,2056,2040,2083,2050,2048,1994
2049,2043,2057,2040,2090,2053,2044,1983
2044,2045,2053,2038,2056,2053,2028,1986
2043,2046,2045,2026,2006,2043,2034,1978
2042,2032,2036,2021,1992,2021,2032,1979
2037,2037,2043,2032,1975,2018,2027,1987
2045,2041,2043,2030,1963,2016,2033,1997
2045,2044,2041,2029,1950,2013,2047,2005
2051,2040,2029,2024,1953,2028,2028,2010
2050,2043,2038,2043,2051,2059,2050,2029
2062,2054,2050,2072,2134,2075,2051,2047
2070,2056,2060,2078,2149,2086,2047,2065
2067,2054,2056,2067,2147,2085,2057,2072
2066,2052,2049,2062,2153,2074,2043,2058
2055,2049,2045,2060,2141,2060,2045,2052
2049,2040,2045,2050,2079,2038,2053,2054
2058,2042,2040,2049,2029,2031,2032,2063
2058,2047,2039,2053,2001,2033,2034,2064
2048,2039,2036,2040,1963,2017,2028,2062
2049,2042,2033,2027,1959,2022,2029,2056
2046,2030,2032,2029,1980,2026,2032,2065
2044,2035,2038,2032,2006,2047,2046,2066
2055,2054,2048,2032,2040,2069,2055,2072
2062,2054,2052,2030,2050,2078,2052,2066
2067,2053,2064,2023,2036,2084,2055,2068
2061,2054,2062,2021,2013,2086,2040,2068
2067,2058,2060,2013,2007,2084,2060,2062
2067,2055,2055,2018,2019,2092,2056,2056
2063,2050,2054,2018,2012,2087,2062,2046
2058,2046,2052,2027,2010,2080,2068,2052
2063,2049,2053,2033,2040,2078,2080,2045
2067,2056,2066,2041,2070,2096,2092,2035
2066,2054,2059,2041,2111,2111,2089,2020
2061,2056,2062,2052,2118,2098,2079,2013
2060,2062,2064,2049,2118,2069,2070,2013
2065,2060,2064,2057,2176,2050,2029,2008
2056,2050,2053,2063,2233,2053,2063,2012
2063,2053,2060,2088,2309,2056,2072,2025
2072,2066,2071,2092,2314,2100,2057,2031
2065,2051,2056,2072,2240,2141,2067,2029
2056,2050,2045,2038,2085,2126,2054,2023
2044,2043,2038,1989,1850,2099,2040,2015
2037,2040,2026,1950,1762,2064,2018,2015
2030,2036,2021,1946,1756,2006,2020,2016
2033,2040,2029,1974,1818,1959,2007,2040
2043,2044,2042,1983,1855,1903,2003,2039
2045,2041,2036,1996,1891,1876,2020,2049
2048,2045,2045,2037,2003,1949,2019,2050
2048,2048,2051,2076,2095,2025,2029,2056
2043,2042,2044,2068,2106,2085,2039,2056
2041,2045,2045,2056,2090,2094,2033,2056
2044,2051,2044,2045,2067,2076,2009,2060
2039,2041,2032,2025,2037,2039,2027,2067
2045,2042,2037,2029,2010,2026,2047,2074
2054,2050,2036,2037,2005,2015,2047,2075
2058,2050,2041,2044,1999,2026,2027,2065
2051,2042,2040,2052,2034,2045,2038,2068
2053,2039,2044,2061,2066,2058,2040,2063
2055,2038,2045,2058,2095,2057,2043,2050
2051,2045,2046,2054,2098,2047,2066,2035
2050,2041,2045,2049,2102,2048,2055,2037
2060,2046,2046,2048,2100,2045,2034,2031
2054,2043,2048,2044,2098,2035,2027,2023
2054,2032,2036,2027,1985,2025,2015,1999
2044,2032,2035,2033,2024,2054,2024,1982
2041,2035,2041,2059,2117,2064,2035,1982
2049,2036,2040,2067,2189,2076,2001,1982
2056,2048,2045,2074,2214,2081,2019,1981
2053,2041,2050,2077,2208,2066,2041,1993
2062,2060,2063,2086,2189,2052,2059,2006
2061,2066,2068,2076,2136,2054,2067,2009
2060,2063,2061,2060,2052,2045,2040,2022
2062,2064,2055,2047,1981,2047,2054,2034
2062,2056,2060,2037,1892,2025,2039,2040
2063,2057,2054,2002,1707,1995,2032,2042
2058,2054,2045,1975,1686,2000,2043,2049
2052,2046,2043,2000,1892,2051,2058,2050
2058,2046,2045,2033,2053,2077,2063,2049
2054,2043,2041,2052,2091,2086,2047,2051
2056,2044,2038,2055,2065,2094,2042,2050
2047,2043,2039,2059,2060,2093,2036,2052
2050,2043,2040,2064,2102,2082,2050,2051
2053,2039,2042,2063,2143,2039,2034,2057
2049,2037,2044,2055,2162,2013,2019,2051
2041,2027,2041,2055,2173,2038,2019,2057
2046,2034,2046,2072,2190,2062,2043,2053
2052,2046,2043,2074,2189,2082,2066,2054
2046,2044,2049,2075,2186,2110,2078,2061
2057,2041,2054,2073,2147,2119,2071,2058
2064,2046,2058,2061,2126,2133,2066,2058
2061,2042,2055,2045,2090,2120,2065,2050
2060,2049,2050,2004,1946,2056,2058,2042
2054,2048,2042,1986,1833,2016,2058,2038
2065,2060,2052,2018,1865,2038,2047,2040
2071,2065,2061,2051,1997,2087,2076,2029
2065,2056,2058,2058,2089,2105,2078,2008
2059,2048,2042,2056,2119,2080,2072,2006
2054,2044,2042,2061,2163,2069,2047,2009
2067,2049,2033,2054,2187,2065,2079,2007
2062,2043,2037,2049,2113,2060,2064,2000
2057,2031,2041,2028,2034,2048,2047,1996
2062,2050,2050,2025,2066,2044,2036,1996
2066,2056,2051,2030,2099,2062,2038,2003
2066,2047,2052,2039,2096,2081,2048,2002
2059,2042,2050,2042,2049,2063,2048,2002
2058,2048,2045,2029,1932,2031,2034,2013
2044,2044,2042,2021,1877,2000,2030,2024
2049,2042,2039,2024,1873,1979,2026,2027
2050,2044,2045,2037,1881,1983,2022,2047
2055,2047,2046,2043,1870,1986,2045,2058
2049,2043,2041,2039,1864,1994,2033,2043
2043,2037,2039,2044,1887,2030,2054,2051
2052,2045,2064,2090,1958,2073,2072,2072
2066,2056,2073,2091,2003,2076,2076,2076
2067,2056,2063,2076,2008,2074,2058,2071
2058,2041,2044,2050,2003,2067,2053,2068
2051,2038,2038,2019,1980,2060,2061,2070
2057,2042,2042,2010,1915,2065,2065,2070
2062,2047,2050,2022,1901,2082,2074,2066
2071,2058,2057,2031,1923,2072,2050,2072
2069,2066,2062,2027,1990,2064,2067,2067
2068,2056,2065,2029,2053,2073,2062,2064
2069,2054,2059,2039,2060,2079,2058,2049
2069,2055,2060,2049,1994,2081,2047,2032
2063,2053,2052,2055,2001,2060,2037,2022
2060,2047,2046,2056,2126,2057,2042,2015
2061,2038,2051,2073,2236,2071,2026,2004
2058,2041,2051,2073,2238,2054,2031,1993
2052,2038,2043,2053,2157,1998,2020,1983
2050,2039,2049,2049,2090,1988,2031,1978
2044,2032,2048,2061,2083,2019,2031,1975
2038,2016,2036,2056,2026,2029,2019,1974
2041,2014,2034,2056,2062,2031,2020,1979
2037,2024,2033,2056,2062,2043,2010,1987
2032,2020,2027,2031,1940,2017,2007,1987
2034,2015,2025,2013,1900,1998,1996,1996
2034,2020,2026,2022,1977,1991,2033,2004
2049,2031,2038,2022,1985,2004,2020,2010
2046,2036,2035,2021,2004,2012,2008,2025
2041,2033,2031,2023,2020,2024,2027,2029
2046,2040,2041,2043,2071,2053,2057,2045
2057,2048,2049,2061,2108,2066,2059,2049
2055,2053,2052,2064,2104,2064,2067,2052
2061,2057,2048,2052,2062,2039,2063,2053
2055,2047,2042,2036,1985,2017,2056,2044
2057,2045,2040,2019,1908,1999,2044,2050
2051,2043,2045,2023,1896,1997,2026,2053
2051,2034,2042,2021,1893,1992,2019,2050
2049,2031,2045,2025,1871,2007,2039,2051
2056,2049,2050,2026,1872,2015,2046,2047
2056,2041,2042,2016,1865,2012,2035,2040
2047,2035,2035,2027,1897,2032,2029,2031
2050,2029,2030,2040,1942,2043,2030,2024
2051,2024,2026,2051,2020,2080,2044,2015
2049,2027,2033,2064,2120,2131,2048,2011
2050,2039,2039,2086,2234,2127,2058,2016
2058,2048,2038,2117,2417,2131,2055,2007
2065,2052,2052,2152,2513,2140,2043,1998
2066,2047,2061,2147,2398,2125,2041,1987
2069,2048,2055,2140,2269,2092,2021,1974
2057,2041,2044,2118,2144,2061,2039,1963
2040,2036,2039,2099,2068,2064,2023,1966
2040,2029,2030,2072,1992,2055,2036,1967
2033,2022,1997,2029,1876,2031,2019,1952
2026,2020,1991,2035,1916,2023,2042,1960
2046,2033,1993,2039,1989,2016,2038,1966
2044,2033,1988,2036,2075,2004,2046,1983
2043,2026,1983,2049,2136,2021,2059,1991
2045,2024,1993,2063,2161,2045,2074,1997
2043,2024,2006,2060,2137,2039,2058,1996
2049,2024,2017,2045,2085,2025,2057,2003
2041,2023,2023,2025,2046,2013,2035,2000
2041,2023,2030,1999,1993,2000,2040,2004
2030,2029,2032,1994,2011,2014,2032,2002
2031,2038,2034,1996,2082,2036,2044,2002
2037,2035,2031,2007,2131,2057,2049,2024
2045,2042,2008,2019,2160,2069,2056,2033
2043,2035,2007,2040,2181,2082,2061,2030
2038,2039,2010,2061,2203,2087,2058,2029
2026,2028,2021,2070,2200,2093,2036,2029
2035,2032,2044,2089,2196,2097,2047,2033
2056,2042,2072,2100,2192,2091,2069,2040
2055,2043,2073,2101,2168,2050,2065,2038
2059,2050,2081,2101,2135,2043,2069,2044
2057,2052,2077,2080,2047,2033,2044,2039
2061,2053,2065,2062,1936,2015,2029,2034
2061,2057,2064,2059,1901,1997,2034,2018
2055,2053,2057,2043,1937,1998,2040,2010
2051,2053,2047,2051,1985,2007,2027,2006
2040,2052,2050,2055,2013,2008,2022,2008
2046,2043,2045,2048,2023,2014,2014,1996
2044,2034,2045,2037,2036,2047,2034,1983
2045,2042,2056,2030,2030,2057,2029,1980
2047,2050,2077,2031,2027,2061,2035,1977
2051,2071,2105,2027,2035,2077,2028,1975
2057,2071,2109,2022,2041,2041,2049,1985
2063,2079,2108,2025,2030,2030,2066,1992
2071,2092,2107,2036,2030,2057,2075,1996
2064,2084,2097,2038,2042,2085,2052,1991
2060,2073,2088,2037,2027,2093,2054,2003
2064,2074,2083,2038,1980,2083,2056,2006
2063,2075,2087,2046,1983,2077,2050,2024
2061,2076,2074,2045,1968,2080,2054,2035
2064,2072,2076,2050,1897,2053,2049,2045
2066,2069,2078,2066,1964,2032,2051,2052
2065,2068,2080,2079,2076,2030,2043,2046
2056,2058,2067,2062,2095,2005,2049,2043
2056,2060,2067,2055,2085,1995,2053,2046
2061,2069,2075,2059,2094,2006,2056,2056
2070,2066,2069,2056,2111,2013,2039,2042
2057,2052,2058,2043,2074,2003,2031,2031
2042,2033,2038,2015,2041,1984,1999,2031
2033,2021,2031,2012,2063,2001,2006,2029
2033,2034,2039,2026,2073,2012,2011,2030
2040,2042,2038,2027,2021,2011,2011,2033
2042,2044,2044,2029,2018,2011,2006,2026
2044,2046,2045,2048,2050,2016,2026,2025
2047,2044,2040,2040,2057,2023,2028,2021
2042,2043,2035,2038,2052,2026,2034,2017
2047,2038,2036,2049,2060,2021,2032,2002
2050,2035,2033,2056,2063,2028,2036,2001
2043,2038,2030,2054,2067,2043,2036,1995
2043,2033,2023,2060,2067,2070,2036,1979
2040,2021,2016,2056,2068,2100,2038,1970
2041,2027,2010,2051,2065,2100,2052,1966
2037,2018,2002,2051,2053,2072,2027,1958
2030,2020,2002,2046,2048,2054,2031,1949
2026,2006,1997,2038,2038,2034,2038,1948
2024,2006,1995,2035,2033,2037,2013,1954
2030,2017,2003,2038,2038,2045,2023,1963
2033,2026,2018,2038,2041,2045,2019,1971
2038,2034,2016,2039,2034,2042,2009,1979
2039,2030,2014,2039,2041,2046,2035,1981
2032,2027,2000,2029,2037,2038,2020,1988
2029,2025,2000,2024,2039,2041,2000,2003
2037,2031,2025,2024,2039,2059,2035,2012
2042,2046,2054,2034,2048,2066,2036,2024
2055,2054,2069,2037,2050,2075,2047,2028
2046,2054,2061,2045,2051,2070,2047,2029
2049,2054,2040,2034,2049,2066,2043,2029
2050,2050,2023,2030,2052,2062,2045,2038
2057,2052,2021,2041,2052,2055,2048,2046
2064,2058,2030,2049,2056,2047,2041,2050
2058,2048,2028,2042,2055,2035,2036,2051
2058,2043,2032,2046,2051,2043,2052,2059
2069,2065,2053,2053,2056,2058,2062,2046
2059,2059,2052,2047,2050,2050,2075,2031
2060,2060,2056,2045,2046,2035,2032,2023
2042,2060,2074,2048,2048,2037,2059,2015
2039,2070,2104,2058,2049,2047,2051,2022
2048,2074,2126,2063,2053,2057,2050,2012
2054,2075,2120,2054,2022,2065,2039,2006
2054,2079,2123,2048,2008,2066,2055,1998
2052,2076,2117,2047,1995,2079,2056,1986
2052,2069,2106,2043,1988,2082,2058,1976
2048,2068,2102,2049,1989,2045,2053,1980
2051,2069,2094,2056,2028,2033,2064,1982
2050,2065,2092,2062,2054,2018,2078,1982
2053,2068,2086,2071,2061,2009,2060,1980
2044,2050,2074,2053,2050,2023,2076,1972
2044,2046,2066,2051,2046,2048,2075,1969
2052,2056,2076,2060,2038,2045,2078,1981
2051,2059,2074,2058,2026,2045,2078,1982
2049,2061,2067,2052,2032,2047,2055,1994
2048,2054,2064,2043,2043,2043,2058,2001
2049,2047,2056,2042,2061,2054,2061,2006
2047,2048,2054,2045,2077,2068,2058,2010
2057,2052,2062,2056,2095,2075,2051,2017
2052,2048,2061,2060,2076,2063,2056,2020
2052,2049,2064,2063,2077,2054,2042,2021
2050,2050,2056,2067,2105,2047,2042,2018
2048,2046,2051,2064,2109,2066,2049,2017
2042,2043,2049,2060,2099,2060,2054,2026
2040,2037,2049,2056,2063,2066,2032,2028
2037,2038,2046,2052,2044,2068,2044,2029
2029,2026,2041,2047,2052,2048,2039,2031
2036,2029,2043,2049,2068,2021,2047,2034
2040,2040,2050,2046,2043,2023,2032,2030
2039,2037,2053,2040,2030,2041,2034,2028
2043,2037,2050,2052,2059,2056,2039,2023
2047,2038,2046,2055,2108,2056,2043,2016
2046,2039,2058,2067,2139,2063,2058,2022
2049,2038,2065,2075,2140,2058,2054,2013
2050,2042,2063,2074,2155,2057,2050,2005
2048,2041,2064,2073,2153,2056,2054,2001
2050,2046,2066,2072,2126,2053,2040,1988
2050,2042,2058,2075,2109,2059,2046,1982
2050,2041,2061,2072,2078,2047,2052,1973
2047,2043,2055,2072,2006,2035,2056,1971
2043,2041,2053,2067,1954,2027,2045,1961
2038,2038,2053,2077,1992,2026,2035,1954
2034,2031,2049,2081,2044,2026,2042,1961
2036,2032,2045,2094,2091,2046,2040,1971
2046,2045,2047,2098,2105,2051,2053,1980
2055,2038,2043,2081,2103,2058,2048,1976
2052,2032,2034,2061,2096,2052,2039,1983
2046,2029,2028,2038,2045,2050,2023,1984
2041,2022,2017,2016,1968,2043,2028,2004
2042,2021,2014,1996,1953,2056,2023,2022
2050,2026,2009,2008,2005,2068,2040,2032
2054,2040,2013,2026,2040,2074,2030,2040
2057,2035,2013,2039,2039,2086,2034,2040
2057,2030,2016,2046,2042,2080,2027,2036
2051,2032,2013,2036,2002,2057,2047,2032
2043,2026,2008,2020,1974,2060,2044,2043
2047,2038,2020,2041,2035,2087,2060,2046
2058,2045,2035,2051,2073,2083,2042,2048
2055,2038,2032,2041,2045,2064,2040,2044
2050,2036,2032,2030,2003,2054,2033,2040
2047,2031,2033,2032,2042,2054,2037,2033
2043,2026,2029,2034,2053,2037,2036,2022
2039,2030,2033,2026,2028,2026,2039,2018
2041,2032,2039,2018,2032,2012,2035,2022
2042,2049,2063,2023,2024,2018,2029,2024
2049,2056,2079,2038,2017,2036,2055,2022
2054,2068,2089,2033,2013,2057,2073,2016
2058,2073,2099,2031,2126,2076,2056,2016
2062,2080,2117,2062,2186,2095,2064,2013
2061,2078,2116,2062,2114,2056,2054,1992
2060,2065,2102,2037,1994,2006,2030,1975
2040,2051,2078,2027,1953,1977,2031,1957
2040,2041,2058,2037,1973,1970,2024,1949
2037,2034,2050,2054,2016,1990,2030,1958
2032,2022,2046,2057,2055,2012,2035,1959
2031,2019,2048,2076,2110,2034,2037,1964
2037,2031,2059,2092,2130,2051,2036,1967
2035,2028,2061,2092,2128,2064,2042,1984
2037,2022,2059,2091,2099,2072,2054,1995
2037,2032,2058,2085,2058,2065,2047,2006
2044,2035,2051,2079,2036,2079,2049,2016
2045,2033,2048,2078,2027,2082,2042,2022
2039,2028,2048,2076,2030,2087,2048,2027
2034,2031,2039,2063,2001,2057,2041,2020
2030,2026,2030,2043,1986,2044,2044,2021
2038,2022,2025,2040,1993,2034,2022,2026
2034,2026,2024,2044,2015,2035,2017,2021
2029,2027,2037,2061,2028,2041,2027,2029
2038,2030,2042,2073,2047,2020,2046,2036
2036,2032,2044,2073,2020,1992,2046,2050
2035,2022,2047,2063,1970,1999,2025,2048
2038,2023,2055,2058,1937,2018,2043,2058
2049,2036,2060,2050,1935,2054,2062,2060
2063,2043,2049,2046,1981,2103,2065,2059
2054,2042,2047,2065,2009,2131,2065,2044
2051,2028,2045,2074,2043,2143,2060,2037
2040,2018,2030,2090,2059,2151,2065,2028
2042,2021,2036,2097,2116,2153,2079,2013
2035,2022,2034,2082,2178,2145,2056,2009
2039,2020,2031,2091,2308,2167,2042,1999
2037,2014,2024,2107,2369,2172,2033,1994
2035,2011,2014,2104,2355,2169,2029,1989
2037,2016,2007,2098,2294,2135,2025,1974
2040,2024,2015,2078,2194,2082,2034,1969
2045,2037,2022,2052,2078,2045,2044,1977
2043,2043,2035,2053,2049,2044,2038,1966
2043,2042,2042,2066,2071,2044,2030,1969
2044,2041,2047,2062,2045,2043,2044,1972
2050,2039,2048,2037,1934,2004,2035,1980
2042,2037,2052,2039,1921,1973,2040,1991
2049,2039,2054,2041,1959,1984,2038,2005
2047,2041,2053,2036,2010,1986,2045,2009
2042,2039,2058,2028,2017,1975,2044,2014
2042,2049,2072,2023,2023,1986,2063,2022
2044,2049,2082,2027,2017,1987,2051,2034
2048,2052,2083,2035,1998,1997,2048,2040
2045,2052,2074,2038,2000,2012,2047,2037
2051,2051,2080,2051,2041,2007,2047,2044
2042,2048,2071,2060,2056,1986,2042,2038
2042,2031,2058,2058,2071,2011,2052,2036
2042,2024,2048,2066,2106,2042,2063,2046
2054,2019,2035,2076,2099,2041,2052,2047
2047,2016,2029,2066,2069,2034,2049,2042
2046,2024,2033,2068,2063,2039,2041,2054
2046,2026,2027,2076,2080,2048,2040,2046
2049,2029,2015,2071,2101,2047,2053,2042
2052,2026,2005,2067,2117,2049,2060,2052
2047,2028,1997,2069,2117,2058,2050,2046
2054,2033,1997,2055,2108,2064,2054,2036
2051,2024,1986,2033,2085,2068,2048,2029
2051,2016,1987,2020,2070,2078,2056,2025
2054,2022,2015,2035,2091,2080,2053,2015
2052,2037,2048,2044,2072,2077,2055,2004
2060,2057,2066,2049,2062,2044,2043,1990
2055,2056,2060,2049,2061,2031,2032,1996
2060,2054,2057,2045,2080,2033,2055,1995
2067,2048,2053,2048,2112,2044,2055,1992
2067,2054,2071,2047,2124,2037,2029,1989
2056,2055,2082,2052,2096,2033,2049,1989
2070,2074,2100,2057,2094,2044,2045,1996
2072,2073,2095,2065,2102,2044,2052,1995
2070,2076,2088,2047,2050,2035,2059,1994
2068,2062,2075,2043,1938,2024,2062,2004
2057,2052,2057,2034,1885,2029,2053,2010
2038,2052,2049,2046,1955,2047,2054,2026
2045,2056,2060,2062,2005,2055,2060,2039
2044,2060,2070,2069,2018,2054,2063,2051
2048,2064,2083,2079,2026,2055,2061,2058
2063,2074,2100,2090,2034,2053,2058,2060
2058,2072,2091,2091,2029,2044,2029,2061
2053,2059,2079,2088,2031,2035,2023,2058
2049,2058,2070,2088,2027,2042,2033,2058
2042,2047,2065,2088,2031,2050,2039,2064
2046,2045,2049,2082,2030,2046,2040,2060
2045,2045,2050,2080,2024,2054,2031,2064
2050,2048,2058,2089,2025,2054,2062,2064
2050,2044,2050,2086,2025,2048,2043,2056
2046,2040,2049,2077,2022,2046,2047,2047
2040,2042,2034,2066,2021,2045,2062,2058
2050,2043,2035,2059,2017,2045,2070,2056
2050,2048,2026,2049,2027,2046,2052,2043
2048,2047,2012,2040,2028,2039,2044,2042
2055,2046,2014,2041,2042,2039,2032,2036
2059,2060,2022,2040,2062,2045,2039,2030
2060,2059,2021,2040,2073,2037,2052,2015
2054,2050,2016,2039,2076,2041,2059,2017
2057,2050,2029,2050,2064,2040,2055,2009
2055,2046,2037,2064,2062,2048,2064,2008
2051,2050,2055,2072,2062,2045,2054,2006
2055,2054,2056,2073,2055,2034,2037,2000
2052,2051,2066,2070,2056,2036,2037,1993
2058,2062,2061,2073,2050,2047,2039,2005
2056,2052,2045,2072,2046,2050,2054,2009
2052,2056,2040,2066,2049,2056,2064,2017
2058,2056,2034,2062,2046,2067,2057,2027
2065,2057,2041,2052,2043,2077,2064,2039
2071,2073,2049,2052,2052,2076,2078,2045
2064,2070,2045,2050,2059,2073,2072,2052
2055,2062,2036,2034,2064,2066,2065,2050
2054,2054,2026,2034,2058,2062,2067,2054
2058,2043,2028,2034,2047,2057,2040,2060
2049,2041,2036,2053,2052,2057,2061,2066
2055,2051,2051,2072,2056,2061,2062,2075
2052,2049,2050,2068,2053,2066,2045,2084
2052,2047,2040,2068,2046,2067,2028,2074
2049,2036,2031,2058,2039,2053,2047,2059
2034,2032,2034,2062,2040,2048,2060,2065
2042,2037,2055,2077,2049,2060,2058,2081
2054,2050,2075,2078,2051,2058,2077,2074
2055,2061,2076,2080,2051,2051,2064,2068
2059,2062,2081,2086,2053,2053,2063,2073
2060,2064,2091,2095,2053,2049,2061,2065
2062,2062,2094,2100,2068,2050,2070,2064
2060,2073,2086,2092,2074,2048,2065,2061
2060,2076,2091,2092,2080,2047,2068,2053
2068,2078,2080,2085,2077,2043,2085,2043
2066,2082,2070,2082,2062,2025,2076,2037
2054,2077,2058,2072,2032,1997,2039,2030
2060,2066,2046,2055,1995,1964,2036,2012
2061,2064,2041,2055,1981,1952,2015,2008
2059,2060,2041,2063,2006,1988,2031,2007
2054,2053,2031,2049,2007,2022,2035,1994
2050,2047,2031,2055,2016,2041,2035,1996
2051,2049,2045,2068,2052,2077,2061,1999
2052,2049,2047,2061,2068,2109,2051,2005
2052,2051,2053,2057,2063,2106,2065,2017
2050,2054,2053,2047,2032,2083,2047,2028
2051,2044,2040,2044,2038,2062,2049,2039
2050,2045,2032,2042,2032,2047,2051,2042
2048,2045,2024,2038,2015,2037,2044,2044
2049,2040,2024,2039,2033,2049,2052,2046
2044,2050,2040,2059,2094,2079,2057,2063
2051,2052,2043,2072,2109,2092,2066,2071
2051,2051,2044,2068,2101,2086,2084,2076
2046,2054,2052,2061,2065,2090,2066,2083
2049,2058,2055,2050,2046,2101,2069,2088
2053,2063,2059,2050,2093,2113,2079,2089
2050,2064,2056,2054,2105,2117,2077,2088
2047,2056,2054,2057,2080,2119,2080,2083
2056,2047,2060,2054,2015,2094,2062,2083
2056,2051,2054,2047,1945,2069,2065,2080
2061,2054,2050,2042,1954,2037,2057,2086
2065,2059,2042,2048,1992,2015,2062,2087
2058,2053,2042,2058,2016,2024,2051,2079
2062,2054,2037,2050,2015,2021,2054,2070
2059,2049,2028,2047,1992,2021,2058,2058
2052,2045,2024,2049,1982,2028,2045,2046
2044,2040,2011,2041,1989,2046,2031,2033
2046,2048,2028,2056,2026,2062,2062,2043
2056,2062,2046,2072,2037,2076,2071,2036
2062,2066,2041,2067,2034,2067,2061,2020
2055,2061,2032,2063,2031,2058,2057,2006
2049,2051,2028,2062,2050,2057,2059,2007
2044,2043,2029,2055,2021,2044,2049,2001
2040,2031,2014,2040,1993,2024,2041,2007
2049,2044,2047,2062,2020,2037,2050,2020
2050,2067,2071,2074,2074,2059,2053,2023
2051,2066,2083,2081,2092,2058,2056,2020
2050,2058,2076,2057,2050,2046,2050,2031
2041,2044,2062,2041,2031,2040,2046,2031
2039,2049,2054,2042,2016,2041,2065,2050
2051,2058,2075,2050,2044,2052,2071,2073
2061,2064,2066,2050,2064,2065,2055,2080
2059,2064,2058,2052,2077,2069,2077,2084
2056,2065,2062,2050,2056,2074,2053,2070
2047,2067,2058,2041,2022,2084,2052,2072
2049,2065,2054,2036,2031,2084,2032,2072
2051,2058,2045,2028,2042,2080,2043,2078
2060,2054,2040,2037,2062,2050,2024,2081
2057,2055,2038,2045,2088,2021,2031,2086
2055,2046,2038,2041,2103,2030,2053,2102
2058,2047,2030,2044,2100,2052,2050,2104
2068,2052,2029,2047,2093,2087,2057,2096
2070,2049,2020,2045,2024,2098,2051,2084
2060,2039,2006,2036,1974,2100,2020,2066
2047,2032,1994,2021,1949,2097,2030,2051
2039,2024,1994,2009,1898,2056,2037,2055
2043,2032,1993,2015,1905,1998,2044,2072
2050,2051,2012,2050,2031,1973,2043,2074
2060,2056,2021,2075,2096,2032,2070,2068
2057,2049,2027,2084,2118,2088,2065,2053
2062,2041,2025,2087,2142,2103,2076,2043
2047,2034,2012,2090,2216,2077,2072,2024
2041,2024,2009,2094,2283,2053,2058,2017
2041,2029,2021,2108,2306,2053,2066,2010
2034,2030,2029,2098,2246,2049,2027,2001
2030,2016,2030,2056,2034,2025,2040,1999
2023,2020,2055,2040,1967,2010,2044,2015
2034,2044,2078,2043,1971,2004,2038,2024
2039,2051,2100,2039,1961,1984,2044,2036
2041,2058,2109,2030,1894,1982,2035,2048
2051,2070,2121,2076,1932,2014,2046,2060
2063,2078,2140,2120,1999,2027,2074,2074
2063,2080,2156,2137,2024,2035,2066,2077
2065,2078,2147,2139,2027,2041,2065,2084
2068,2080,2134,2144,2030,2057,2065,2085
2054,2066,2116,2119,2038,2065,2051,2073
2058,2058,2088,2100,2010,2061,2061,2077
2058,2052,2064,2086,2010,2061,2057,2085
2052,2050,2041,2073,2016,2044,2052,2087
2054,2049,2034,2060,2024,1998,2063,2094
2058,2052,2024,2057,2039,2004,2052,2099
2060,2044,2026,2043,2033,2018,2064,2096
2056,2055,2049,2046,2031,2035,2076,2104
2069,2078,2060,2039,2035,2038,2072,2101
2066,2063,2042,2014,2019,2036,2059,2099
2054,2058,2043,1997,2018,2035,2056,2092
2068,2077,2066,1996,2024,2039,2073,2093
2071,2080,2066,1990,2029,2041,2064,2086
2069,2072,2045,1996,2028,2041,2057,2074
2059,2050,2039,2008,2040,2042,2056,2073
2065,2045,2041,2026,2042,2040,2061,2065
2062,2048,2038,2028,2050,2037,2048,2060
2059,2052,2043,2034,2055,2039,2048,2050
2060,2051,2049,2043,2053,2044,2053,2040
2053,2056,2060,2048,2057,2050,2052,2034
2051,2049,2061,2043,2055,2046,2063,2026
2047,2048,2047,2052,2058,2041,2054,2018
2045,2033,2030,2046,2054,2024,2040,2024
2047,2028,2025,2046,2042,2020,2047,2030
2048,2033,2022,2054,2046,2020,2034,2032
2045,2032,2016,2059,2039,2026,2033,2043
2042,2030,2013,2059,2045,2038,2054,2045
2050,2028,2012,2058,2053,2045,2062,2056
2052,2025,2007,2063,2049,2048,2040,2067
2056,2037,2023,2072,2050,2052,2060,2072
2052,2048,2028,2064,2046,2051,2069,2073
2054,2042,2027,2052,2031,2052,2054,2085
2056,2041,2018,2043,2022,2064,2060,2092
2066,2041,2008,2043,2030,2074,2074,2105
2067,2040,2003,2041,2025,2073,2077,2102
2065,2040,2014,2047,2025,2063,2067,2102
2065,2043,2027,2044,2028,2064,2059,2089
2062,2044,2037,2030,2024,2045,2049,2096
2060,2033,2023,2012,2017,2033,2041,2089
2050,2025,2013,2003,2017,2039,2061,2093
2058,2038,2024,2009,2028,2050,2064,2091
2062,2046,2047,2024,2038,2049,2059,2091
2065,2068,2074,2040,2039,2049,2066,2091
2066,2085,2105,2052,2052,2049,2058,2089
2069,2075,2107,2057,2056,2049,2056,2079
2068,2076,2108,2064,2054,2057,2075,2073
2062,2071,2095,2066,2055,2060,2087,2072
2064,2069,2082,2062,2057,2061,2064,2056
2059,2071,2071,2059,2048,2059,2055,2045
2063,2056,2056,2047,2030,2055,2049,2037
2065,2043,2035,2046,2023,2046,2063,2028
2059,2035,2028,2055,2016,2041,2042,2023
2047,2037,2026,2067,2056,2044,2043,2024
2045,2034,2029,2079,2087,2055,2042,2014
2033,2018,2030,2089,2111,2049,2037,2010
2039,2026,2039,2099,2126,2049,2046,2025
2052,2049,2057,2111,2136,2060,2060,2030
2056,2047,2060,2118,2136,2071,2075,2038
2058,2040,2051,2112,2131,2070,2074,2039
2058,2036,2029,2109,2113,2061,2074,2041
2046,2022,2015,2111,2073,2050,2049,2051
2048,2031,2020,2109,1949,2036,2064,2061
2050,2037,2029,2104,1930,2034,2061,2077
2053,2045,2038,2092,1967,2037,2066,2078
2054,2055,2039,2085,2008,2045,2056,2076
2055,2051,2044,2083,2032,2049,2063,2083
2058,2051,2050,2082,2037,2059,2055,2095
2060,2047,2042,2069,2042,2055,2058,2091
2062,2049,2036,2052,2041,2053,2058,2097
2061,2057,2037,2031,2035,2056,2059,2100
2058,2054,2040,2008,2014,2044,2061,2099
2052,2049,2045,2007,2010,2046,2063,2096
2058,2056,2077,2024,2028,2056,2074,2097
2050,2050,2083,2029,2036,2042,2064,2089
2050,2053,2075,2029,2026,2047,2054,2094
2059,2050,2065,2022,2026,2044,2057,2093
2064,2057,2059,2021,2021,2045,2035,2086
2058,2063,2064,2028,2026,2047,2062,2077
2058,2058,2064,2030,2039,2053,2046,2068
2053,2053,2064,2032,2045,2052,2054,2066
2047,2047,2059,2030,2039,2055,2031,2056
2052,2048,2063,2031,2036,2056,2056,2048
2052,2057,2075,2039,2033,2058,2057,2040
2054,2059,2073,2040,2032,2046,2068,2038
2060,2062,2059,2032,2012,2033,2034,2034
2050,2050,2035,2017,1980,2012,2047,2017
2047,2031,2010,2006,1948,2000,2045,2007
2035,2028,2013,2004,1947,2010,2033,2010
2048,2046,2034,2039,1990,2039,2036,2026
2070,2063,2050,2061,2038,2056,2037,2041
2077,2066,2047,2070,2071,2067,2047,2043
2067,2056,2043,2083,2082,2075,2053,2052
2060,2056,2038,2098,2063,2060,2062,2052
2051,2055,2036,2107,2039,2035,2055,2070
2049,2051,2047,2113,2030,2028,2042,2082
2050,2051,2045,2118,2047,2031,2050,2093
2060,2047,2044,2118,2088,2054,2047,2092
2065,2044,2043,2128,2128,2068,2060,2099
2068,2047,2043,2132,2131,2070,2043,2087
2066,2035,2044,2119,2120,2074,2056,2089
2053,2032,2045,2100,2115,2092,2054,2089
2045,2028,2045,2081,2113,2105,2067,2091
2041,2027,2052,2083,2105,2119,2075,2091
2042,2025,2082,2099,2109,2127,2057,2090
2048,2039,2089,2092,2114,2130,2071,2097
2051,2036,2073,2083,2108,2131,2081,2097
2059,2040,2075,2076,2101,2122,2086,2090
2063,2048,2068,2079,2084,2124,2087,2084
2056,2042,2064,2073,2062,2108,2081,2078
2052,2045,2050,2071,2056,2087,2084,2065
2053,2044,2043,2057,2039,2052,2079,2061
2051,2042,2038,2041,2003,2018,2076,2055
2058,2038,2046,2027,2002,1995,2092,2054
2052,2050,2047,2025,2004,1991,2079,2045
2052,2039,2047,2004,1991,1993,2061,2039
2040,2035,2034,2004,1997,2007,2049,2018
2042,2030,2020,1992,2000,2022,2051,2016
2042,2028,2007,1980,2007,2034,2046,2018
2051,2037,2000,1966,2006,2044,2052,2014
2055,2050,2010,1965,2014,2052,2052,2020
2063,2054,2034,1973,2028,2057,2067,2032
2065,2072,2065,2013,2054,2058,2085,2045
2065,2081,2086,2049,2070,2066,2100,2049
2068,2084,2096,2059,2092,2071,2097,2059
2064,2077,2089,2050,2071,2057,2084,2064
2062,2066,2077,2038,2026,2049,2059,2074
2060,2057,2064,2049,2026,2040,2072,2081
2060,2052,2063,2057,2030,2033,2069,2081
2057,2052,2070,2062,2027,2029,2059,2084
2056,2052,2081,2070,2022,2014,2052,2091
2057,2051,2082,2069,2017,2006,2050,2095
2056,2050,2076,2075,2002,2015,2060,2100
2056,2052,2070,2071,2008,2027,2049,2095
2056,2047,2067,2069,2022,2038,2040,2096
2054,2045,2056,2061,2013,2029,2021,2094
2050,2038,2051,2060,2013,2031,2042,2090
2045,2047,2046,2064,2027,2041,2056,2097
2062,2061,2048,2067,2035,2046,2057,2094
2055,2062,2057,2058,2023,2044,2056,2094
2057,2059,2046,2031,2028,2037,2050,2084
2057,2058,2037,2019,2041,2044,2053,2085
2062,2062,2044,2014,2056,2052,2071,2079
2067,2067,2047,2022,2064,2066,2072,2069
2070,2062,2045,2022,2070,2066,2079,2064
2060,2061,2044,2016,2072,2067,2078,2060
2062,2061,2047,2014,2059,2054,2069,2053
2056,2045,2044,2020,2050,2051,2068,2042
2052,2050,2056,2042,2056,2049,2071,2027
2054,2053,2073,2056,2058,2049,2064,2027
2052,2050,2068,2045,2052,2041,2057,2021
2050,2042,2046,2038,2052,2038,2064,2016
2044,2029,2038,2039,2062,2051,2075,2018
2048,2032,2043,2046,2067,2063,2072,2027
2058,2045,2049,2051,2067,2064,2046,2032
2052,2049,2035,2051,2066,2059,2064,2033
2052,2044,2030,2055,2067,2051,2055,2046
2055,2045,2025,2056,2074,2050,2073,2058
2059,2045,2013,2051,2061,2045,2072,2060
2051,2045,2010,2047,2056,2043,2064,2076
2053,2040,2015,2041,2027,2044,2059,2083
2051,2047,2023,2039,2011,2047,2065,2076
2055,2046,2025,2025,1990,2044,2060,2080
2058,2046,2016,2007,1990,2035,2042,2084
2053,2038,2020,2013,1991,2011,2052,2088
2055,2049,2034,2039,2020,1995,2062,2105
2059,2056,2053,2062,2067,2009,2077,2108
2058,2059,2057,2069,2094,2025,2054,2098
2046,2048,2053,2058,2092,2040,2068,2097
2047,2043,2056,2053,2089,2044,2070,2097
2052,2058,2066,2050,2069,2044,2070,2094
2052,2046,2051,2050,2047,2053,2068,2091
2055,2044,2056,2049,2040,2063,2060,2083
2051,2039,2048,2038,2030,2067,2050,2081
2045,2033,2036,2033,2015,2061,2036,2069
2044,2035,2030,2027,2016,2041,2029,2051
2039,2030,2026,2024,2037,2008,2057,2054
2039,2027,2023,2018,2035,1995,2060,2034
2032,2021,2017,2011,2033,2033,2064,2027
2030,2024,2023,2037,2062,2075,2082,2030
2038,2024,2031,2052,2084,2090,2083,2025
2038,2030,2030,2053,2077,2088,2051,2014
2037,2024,2026,2048,2074,2060,2056,2026
2045,2028,2029,2052,2077,2023,2069,2026
2044,2025,2030,2045,2070,2019,2066,2025
2048,2025,2036,2054,2061,2029,2064,2026
2056,2050,2065,2067,2064,2034,2080,2035
2060,2052,2064,2066,2051,2041,2085,2047
2060,2052,2051,2072,2046,2037,2065,2049
2060,2048,2044,2069,2042,2051,2085,2058
2053,2050,2044,2083,2037,2074,2084,2068
2061,2047,2045,2097,2079,2084,2084,2080
2065,2056,2055,2112,2120,2093,2081,2089
2067,2068,2066,2116,2115,2104,2071,2095
2073,2071,2050,2109,2112,2110,2050,2100
2079,2076,2031,2107,2083,2100,2052,2106
2074,2065,2013,2099,2054,2095,2068,2098
2070,2059,2007,2091,2041,2088,2063,2100
2070,2056,1997,2066,2049,2072,2061,2101
2062,2044,1980,2039,2004,2008,2048,2092
2053,2036,1965,2054,1969,1959,2019,2088
2044,2026,1956,2066,2013,1978,2029,2090
2049,2020,1945,2074,2079,2008,2067,2097
2055,2029,1965,2116,2129,2017,2051,2100
2052,2028,1980,2145,2107,2016,2053,2094
2059,2030,2003,2148,2054,2011,2034,2086
2056,2032,2013,2123,2017,2021,2031,2094
2056,2034,2029,2095,2000,2021,2028,2080
2056,2033,2046,2078,2022,2027,2043,2078
2052,2046,2069,2093,2047,2035,2044,2071
2059,2063,2103,2101,2056,2042,2055,2066
2062,2072,2098,2081,2065,2045,2039,2056
2067,2070,2092,2056,2072,2054,2080,2051
2067,2078,2114,2041,2066,2055,2070,2043
2064,2076,2118,2022,2052,2049,2046,2034
2063,2065,2122,2000,2039,2040,2049,2027
2055,2064,2109,1979,2038,2033,2062,2027
2058,2067,2114,1976,2037,2033,2070,2017
2057,2066,2112,1978,2039,2031,2052,2022
2055,2072,2108,1982,2034,2046,2071,2030
2056,2069,2081,1970,2013,2062,2043,2030
2054,2064,2070,1950,1991,2060,2064,2035
2052,2055,2067,1953,1985,2059,2039,2042
2052,2051,2081,1964,1988,2052,2031,2050
2050,2050,2075,1981,1999,2017,2048,2069
2058,2055,2080,2002,2067,2004,2057,2087
2068,2060,2086,2028,2118,2030,2072,2097
2074,2068,2088,2038,2128,2058,2090,2096
2073,2070,2084,2047,2120,2085,2057,2096
2071,2065,2078,2044,2112,2092,2062,2101
2065,2058,2074,2043,2093,2079,2060,2101
2059,2052,2070,2043,2086,2073,2053,2102
2064,2047,2069,2043,2085,2076,2084,2108
2054,2059,2074,2050,2092,2070,2066,2101
2051,2047,2066,2053,2082,2050,2057,2099
2049,2045,2071,2058,2093,2046,2063,2102
2062,2052,2075,2071,2112,2044,2076,2102
2064,2054,2079,2070,2111,2049,2078,2093
2069,2054,2078,2059,2108,2047,2063,2087
2066,2052,2077,2057,2114,2040,2067,2086
2066,2054,2069,2058,2108,2038,2053,2082
2064,2054,2064,2046,2099,2025,2066,2071
2058,2042,2053,2035,2072,2002,2047,2065
2050,2033,2047,2036,2064,2002,2060,2057
2052,2041,2039,2050,2085,2012,2056,2050
2059,2046,2047,2063,2109,2022,2064,2052
2067,2045,2047,2064,2117,2021,2062,2042
2062,2043,2043,2058,2117,2030,2053,2035
2060,2041,2044,2066,2138,2043,2051,2031
2064,2050,2050,2072,2118,2049,2045,2034
2074,2050,2055,2065,2080,2055,2051,2030
2064,2033,2043,2067,2082,2072,2033,2019
2057,2033,2048,2072,2061,2067,2061,2027
2069,2041,2054,2070,1958,2042,2061,2034
2072,2044,2051,2054,1907,2032,2048,2031
2056,2035,2040,2049,1936,2031,2027,2041
2051,2033,2040,2052,1974,2041,2054,2050
2058,2036,2042,2060,2018,2049,2050,2063
2062,2036,2032,2061,2041,2058,2052,2071
2060,2034,2017,2048,2036,2055,2075,2074
2046,2024,2003,2024,2018,2055,2063,2073
2051,2024,2007,2018,2005,2055,2078,2078
2048,2029,2009,2006,2010,2047,2069,2080
2055,2030,2005,1992,2028,2046,2065,2087
2048,2024,2001,1988,2046,2050,2064,2089
2054,2023,1999,1996,2042,2057,2070,2093
2064,2026,1992,2005,2036,2053,2071,2091
2060,2026,1995,2012,2026,2042,2066,2091
2046,2020,1995,2021,2022,2043,2076,2092
2053,2035,2016,2038,2029,2055,2076,2092
2055,2043,2031,2035,2030,2050,2047,2095
2053,2041,2034,2031,2032,2034,2046,2090
2057,2038,2037,2031,2026,2029,2061,2083
2056,2044,2040,2030,2023,2031,2060,2088
2064,2061,2064,2044,2036,2029,2046,2082
2075,2068,2088,2050,2037,2032,2066,2082
2073,2075,2089,2056,2041,2039,2046,2069
2070,2068,2086,2062,2050,2037,2054,2055
2066,2061,2075,2073,2055,2046,2051,2053
2067,2059,2073,2082,2064,2045,2050,2047
2065,2051,2069,2078,2073,2043,2039,2035
2056,2050,2070,2073,2088,2045,2052,2025
2059,2049,2073,2081,2096,2038,2060,2021
2055,2055,2080,2083,2090,2042,2044,2019
2061,2051,2069,2072,2081,2044,2051,2009
2053,2048,2063,2073,2091,2039,2048,2016
2054,2055,2071,2078,2113,2054,2083,2023
2061,2054,2063,2071,2111,2054,2080,2031
2050,2046,2054,2063,2095,2060,2069,2044
2049,2044,2052,2065,2070,2046,2069,2055
2051,2046,2056,2062,2028,2024,2066,2059
2058,2051,2064,2041,1924,2007,2046,2068
2060,2053,2055,2033,1916,2016,2056,2080
2062,2058,2060,2053,1991,2026,2064,2086
2065,2060,2056,2052,2033,2036,2069,2090
2068,2052,2052,2054,2044,2042,2047,2091
2064,2051,2049,2040,2041,2052,2060,2085
2060,2041,2043,2037,2034,2053,2063,2096
2059,2047,2046,2039,2033,2048,2071,2102
2062,2051,2050,2044,2042,2046,2066,2099
2065,2049,2050,2054,2036,2047,2071,2092
2050,2036,2040,2046,2033,2044,2070,2098
2054,2038,2046,2053,2029,2045,2078,2100
2069,2042,2050,2060,2044,2053,2050,2097
2066,2050,2051,2065,2054,2052,2041,2109
2067,2044,2052,2070,2051,2055,2062,2093
2059,2043,2049,2070,2047,2058,2064,2082
2061,2037,2052,2069,2049,2059,2066,2076
2049,2035,2046,2074,2058,2057,2077,2071
2044,2036,2044,2081,2071,2060,2068,2068
2050,2030,2033,2093,2075,2059,2072,2067
2052,2024,2017,2102,2084,2063,2055,2054
2049,2022,1999,2121,2092,2056,2061,2046
2047,2019,1989,2116,2095,2049,2063,2037
2040,2023,1997,2124,2099,2047,2063,2027
2041,2032,2007,2131,2086,2045,2045,2027
2052,2033,2004,2119,2086,2044,2065,2016
2051,2035,1986,2108,2070,2034,2047,2015
2041,2017,1962,2079,2066,2032,2066,2012
2036,2016,1955,2056,2057,2034,2049,2018
2049,2029,1973,2028,2039,2038,2054,2020
2049,2034,1988,2010,2033,2030,2057,2026
2049,2034,2012,2003,2018,2031,2049,2029
2046,2047,2037,2010,2030,2036,2052,2053
2053,2067,2061,2007,2025,2033,2040,2059
2058,2062,2070,2001,2008,2046,2054,2067
2054,2051,2071,1970,1984,2051,2043,2072
2053,2050,2086,1964,1975,2050,2037,2078
2061,2067,2125,1982,1977,2053,2046,2092
2059,2081,2146,1997,1992,2031,2046,2098
2073,2085,2128,2011,2022,2008,2051,2118
2071,2080,2117,2037,2063,2004,2059,2121
2072,2072,2101,2044,2069,2011,2074,2121
2063,2066,2088,2046,2066,2026,2048,2115
2062,2063,2082,2040,2065,2032,2043,2104
2055,2048,2076,2038,2069,2040,2050,2106
2053,2047,2072,2041,2072,2052,2064,2110
2057,2064,2078,2049,2066,2059,2062,2106
2066,2069,2079,2062,2074,2056,2045,2112
2064,2064,2077,2064,2094,2061,2036,2100
2058,2059,2075,2062,2105,2062,2033,2087
2061,2059,2072,2060,2103,2061,2060,2087
2057,2056,2067,2064,2085,2058,2071,2083
2066,2060,2071,2064,2066,2057,2064,2072
2059,2056,2071,2052,2063,2074,2040,2064
2062,2057,2064,2046,2053,2079,2054,2057
2058,2057,2061,2039,2019,2076,2052,2052
2053,2061,2064,2040,1981,2068,2065,2037
2056,2058,2059,2049,2037,2042,2055,2037
2062,2062,2057,2061,2107,2010,2057,2037
2062,2056,2060,2084,2135,2017,2074,2041
2057,2044,2050,2074,2124,2018,2068,2024
2042,2032,2040,2062,2058,2024,2058,2013
2040,2033,2040,2059,2032,2053,2062,2023
2047,2051,2049,2076,2042,2075,2069,2031
2052,2050,2053,2071,2032,2076,2058,2034
2055,2052,2061,2050,1970,2069,2063,2037
2059,2052,2057,2042,1958,2070,2077,2052
2057,2052,2058,2055,1970,2058,2056,2074
2064,2050,2054,2068,1961,2000,2058,2082
2061,2055,2064,2078,1941,1980,2056,2098
2063,2054,2063,2091,1927,1985,2064,2098
2063,2051,2062,2110,1914,1981,2048,2089
2061,2043,2040,2111,1935,1987,2042,2081
2051,2032,2036,2123,2040,2024,2063,2089
2059,2044,2056,2168,2193,2071,2078,2103
2066,2051,2064,2183,2239,2087,2069,2100
2067,2055,2062,2175,2220,2090,2065,2105
2060,2044,2048,2150,2181,2091,2069,2098
2057,2037,2033,2116,2135,2078,2046,2101
2060,2041,2031,2084,2099,2064,2044,2102
2065,2041,2029,2044,2066,2063,2076,2102
2064,2050,2034,2014,2060,2056,2076,2099
2063,2045,2016,1982,2050,2055,2068,2088
2060,2039,2010,1963,2026,2042,2054,2083
2055,2038,2007,1959,2012,2030,2060,2074
2057,2044,2022,1973,2037,2039,2038,2069
2056,2046,2032,1981,2075,2047,2056,2065
2057,2045,2012,1990,2086,2050,2059,2056
2053,2041,2001,1992,2080,2054,2061,2059
2049,2046,2012,2008,2082,2060,2075,2050
2056,2052,2016,2017,2090,2060,2064,2048
2060,2049,2023,2024,2097,2060,2084,2036
2066,2053,2044,2024,2100,2066,2079,2036
2068,2051,2067,2018,2076,2075,2068,2022
2055,2040,2063,1990,2023,2097,2056,2016
2048,2037,2058,1978,1994,2111,2044,2012
2057,2045,2062,1983,1980,2112,2040,2018
2052,2040,2052,1993,1961,2106,2034,2021
2053,2048,2048,1999,1957,2045,2051,2046
2061,2058,2060,2030,2009,1958,2037,2073
2067,2060,2068,2066,2068,1967,2047,2085
2071,2066,2074,2074,2104,2026,2082,2093
2073,2064,2068,2089,2125,2073,2072,2093
2063,2065,2067,2077,2096,2080,2073,2100
2065,2055,2055,2071,2086,2064,2069,2091
2061,2058,2059,2073,2100,2055,2061,2100
2066,2051,2047,2073,2159,2052,2048,2098
2060,2048,2051,2074,2174,2047,2043,2101
2058,2052,2045,2071,2164,2032,2029,2097
2056,2047,2047,2070,2166,2029,2026,2095
2050,2046,2043,2060,2151,2024,2030,2098
2046,2033,2032,2054,2128,2032,2040,2097
2053,2033,2036,2040,2080,2043,2049,2104
2059,2046,2040,2044,2081,2053,2069,2108
2058,2048,2041,2036,2070,2061,2084,2100
2059,2045,2036,2030,2009,2061,2088,2101
2062,2040,2028,2012,1937,2056,2068,2093
2058,2043,2030,2013,1970,2054,2075,2083
2056,2045,2034,2017,2025,2057,2069,2075
2056,2048,2031,2019,2050,2052,2058,2072
2059,2044,2034,2027,2060,2047,2054,2066
2062,2041,2023,2035,2068,2047,2051,2054
2054,2044,2018,2033,2066,2045,2036,2050
2054,2039,2017,2027,2062,2051,2044,2037
2055,2038,2019,2029,2064,2075,2056,2028
2058,2041,2026,2033,2059,2088,2062,2017
2051,2037,2024,2038,2059,2095,2076,2017
2048,2031,2023,2035,2053,2090,2050,2009
2038,2024,2031,2041,2050,2086,2034,2012
2043,2029,2036,2045,2058,2086,2067,2016
2054,2033,2038,2042,2060,2074,2058,2028
2058,2035,2044,2033,2004,2064,2060,2039
2054,2031,2036,2030,1974,2046,2042,2048
2054,2028,2036,2038,1994,2028,2045,2051
2051,2028,2045,2039,2019,2009,2044,2059
2051,2039,2054,2049,2033,2000,2056,2060
2049,2044,2067,2049,2052,1992,2042,2065
2046,2037,2072,2051,2059,1967,2039,2070
2054,2034,2065,2048,2053,1944,2045,2081
2048,2026,2053,2048,2040,1942,2043,2083
2052,2033,2047,2047,2040,1954,2039,2087
2049,2031,2044,2046,2036,1971,2045,2088
2053,2039,2049,2043,2041,1998,2045,2088
2056,2046,2058,2043,2042,2022,2054,2094
2053,2040,2059,2044,2041,2031,2039,2091
2054,2044,2054,2031,2039,2045,2042,2102
2056,2049,2058,2033,2053,2083,2051,2094
2055,2049,2050,2029,2045,2080,2061,2088
2052,2048,2050,2030,2044,2071,2064,2086
2052,2040,2046,2029,2042,2066,2053,2083
2055,2039,2042,2036,2047,2054,2068,2085
2053,2039,2037,2043,2053,2049,2075,2087
2052,2042,2039,2044,2052,2042,2069,2076
2054,2048,2053,2047,2052,2051,2080,2072
2060,2055,2054,2047,2057,2057,2069,2063
2062,2061,2062,2044,2057,2057,2069,2052
2060,2058,2055,2044,2060,2068,2072,2046
2070,2056,2053,2047,2065,2067,2059,2042
2066,2056,2054,2056,2073,2075,2064,2035
2065,2055,2050,2054,2070,2075,2072,2033
2066,2060,2049,2050,2062,2072,2074,2025
2063,2049,2044,2041,2054,2067,2068,2025
2060,2043,2043,2043,2050,2070,2031,2019
2059,2050,2050,2047,2054,2073,2027,2031
2067,2056,2050,2047,2059,2085,2051,2035
2065,2063,2058,2053,2062,2080,2053,2038
2062,2061,2050,2056,2051,2066,2040,2042
2055,2058,2047,2044,2057,2053,2026,2050
2059,2059,2043,2043,2064,2009,2015,2061
2063,2051,2032,2044,2056,1983,2004,2074
2063,2052,2030,2049,2062,1994,2006,2076
2071,2055,2034,2049,2058,2011,2016,2087
2065,2052,2031,2048,2049,2025,2030,2084
2066,2047,2025,2054,2045,2030,2038,2089
2063,2046,2017,2060,2031,2030,2045,2091
2055,2043,2015,2069,2026,2038,2040,2095
2061,2044,2016,2065,2025,2038,2037,2089
2062,2042,2018,2066,2028,2026,2011,2087
2052,2026,2019,2068,2017,2017,2019,2090
2054,2030,2023,2074,2026,2023,2013,2094
2063,2040,2035,2084,2038,2030,2046,2089
2062,2043,2046,2087,2065,2032,2033,2081
2058,2045,2048,2086,2078,2045,2017,2088
2063,2048,2061,2087,2082,2051,2024,2080
2064,2052,2073,2089,2095,2066,2004,2076
2066,2056,2081,2092,2088,2068,2051,2069
2062,2052,2077,2088,2078,2052,2048,2061
2058,2052,2066,2077,2071,2054,2050,2051
2063,2049,2061,2079,2061,2048,2040,2040
2059,2053,2063,2061,2053,2049,2053,2039
2054,2053,2064,2051,2056,2043,2045,2019
2050,2055,2064,2029,2045,2034,2042,2009
2048,2057,2052,2002,2031,2035,2038,2009
2052,2056,2047,1995,2021,2031,2024,2011
2048,2038,2038,1981,2018,2026,2018,2012
2051,2036,2031,1979,2029,2041,2036,2020
2058,2055,2037,1993,2045,2063,2056,2024
2064,2060,2038,2008,2046,2073,2065,2025
2061,2056,2042,2015,2046,2068,2052,2026
2059,2054,2043,2027,2050,2062,2039,2038
2059,2056,2043,2030,2040,2049,2034,2049
2067,2058,2046,2031,2042,2049,2040,2061
2071,2061,2047,2035,2048,2047,2035,2062
2067,2061,2049,2040,2047,2045,2035,2072
2066,2051,2041,2045,2046,2041,2030,2082
2070,2047,2038,2051,2044,2045,2039,2082
2061,2045,2031,2045,2028,2053,2034,2082
2059,2046,2040,2037,2007,2058,2022,2086
2059,2042,2043,2029,1992,2056,2035,2084
2057,2049,2053,2031,1996,2059,2053,2086
2057,2048,2056,2037,2008,2031,2040,2085
2052,2045,2046,2040,2028,2002,2035,2088
2054,2047,2047,2055,2067,2001,2061,2097
2066,2065,2071,2073,2078,2020,2058,2103
2067,2065,2072,2074,2081,2032,2057,2099
2062,2058,2061,2062,2079,2040,2068,2093
2062,2052,2060,2055,2046,2032,2055,2084
2057,2052,2050,2040,2035,2030,2036,2078
2066,2064,2058,2042,2061,2025,2048,2087
2068,2064,2067,2043,2078,2029,2045,2070
2070,2064,2066,2045,2085,2058,2043,2055
2067,2063,2064,2060,2119,2100,2046,2056
2069,2074,2075,2069,2106,2116,2066,2050
2069,2075,2072,2062,2088,2120,2062,2043
2072,2071,2067,2069,2081,2112,2063,2039
2066,2072,2063,2066,2067,2058,2045,2036
2068,2074,2059,2059,2011,2026,2046,2023
2063,2069,2060,2046,1941,2014,2032,2017
2051,2049,2052,2031,1910,2011,2031,2007
2051,2046,2050,2019,1952,2018,2038,2010
2057,2058,2060,2029,1996,2013,2035,2020
2060,2056,2061,2033,2010,1997,2029,2029
2051,2051,2054,2020,2008,2010,2028,2040
2060,2054,2051,2040,2047,2052,2033,2047
2059,2052,2060,2044,2001,2054,2044,2046
2060,2049,2048,2052,2025,2063,2037,2060
2058,2046,2040,2071,2114,2067,2025,2072
2058,2043,2045,2078,2124,2052,2033,2073
2055,2037,2035,2059,2086,2041,2018,2077
2050,2031,2031,2048,2057,2038,2043,2080
2048,2028,2020,2046,2039,2039,2037,2077
2045,2028,2015,2048,2042,2039,2029,2078
2053,2034,2030,2062,2051,2035,2033,2081
2053,2043,2029,2068,2070,2037,2025,2086
2055,2037,2013,2062,2080,2029,2018,2073
2037,2024,2003,2057,2076,2022,2013,2067
2038,2024,2004,2064,2072,2033,2029,2082
2050,2040,2003,2072,2069,2034,2030,2074
2054,2036,2011,2073,2075,2035,2034,2074
2051,2032,2002,2067,2068,2035,2031,2064
2040,2024,1994,2054,2060,2040,2024,2063
2046,2023,2005,2051,2037,2042,2038,2060
2051,2033,2014,2044,2036,2043,2035,2053
2056,2044,2042,2044,2047,2044,2054,2055
2058,2055,2066,2056,2052,2048,2043,2052
2057,2058,2064,2050,2056,2049,2045,2040
2059,2056,2048,2029,2049,2049,2040,2030
2055,2045,2046,2022,2048,2063,2057,2022
2056,2047,2055,2013,2042,2059,2050,2016
2059,2056,2075,2018,2045,2056,2057,2019
2059,2061,2078,2010,2038,2046,2065,2011
2054,2058,2082,2009,2030,2034,2046,2014
2047,2053,2080,2012,2032,2038,2039,2008
2055,2066,2067,2021,2041,2045,2054,2018
2055,2063,2060,2017,2046,2049,2056,2032
2051,2056,2060,2017,2045,2052,2047,2038
2051,2057,2070,2032,2058,2052,2037,2043
2049,2063,2080,2058,2061,2059,2035,2045
2051,2063,2079,2065,2064,2054,2032,2057
2056,2060,2087,2065,2077,2052,2035,2068
2053,2057,2086,2062,2084,2049,2041,2076
2052,2055,2071,2054,2082,2060,2041,2074
2060,2061,2072,2053,2074,2063,2017,2074
2053,2054,2066,2051,2099,2072,2014,2082
2046,2047,2064,2047,2105,2079,2018,2083
2041,2045,2054,2043,2093,2070,2025,2086
2048,2048,2054,2046,2074,2060,2032,2091
2057,2049,2060,2051,2070,2052,2033,2096
2056,2045,2053,2047,2051,2015,2052,2100
2059,2046,2063,2057,2043,2021,2061,2112
2075,2064,2065,2068,2048,2053,2073,2105
2074,2061,2063,2075,2029,2065,2072,2099
2071,2055,2065,2077,2004,2069,2065,2091
2067,2052,2065,2077,1912,2059,2056,2085
2057,2048,2072,2080,1897,2061,2058,2075
2051,2049,2069,2079,1984,2079,2068,2067
2048,2048,2073,2084,2052,2086,2044,2065
2046,2053,2065,2086,2110,2078,2049,2058
2045,2051,2060,2084,2137,2060,2047,2047
2051,2049,2051,2069,2124,2018,2054,2038
2049,2047,2036,2063,2074,1995,2056,2022
2046,2040,2032,2058,2040,1984,2054,2013
2047,2044,2042,2058,2043,2001,2062,2014
2047,2044,2048,2061,2064,2020,2069,2011
2046,2036,2050,2065,2068,2010,2042,2007
2034,2023,2032,2047,2037,2005,2021,2004
2038,2025,2023,2025,2030,2002,2059,2016
2044,2038,2036,2021,2029,1998,2055,2026
2048,2052,2058,2024,2037,2003,2035,2025
2053,2060,2060,2026,2040,2013,2051,2032
2058,2055,2055,2029,2023,2016,2035,2038
2054,2048,2026,2032,2008,2023,2022,2045
2051,2037,2014,2026,1994,2045,2040,2050
2052,2036,2007,2025,1981,2059,2034,2056
2047,2031,2001,2021,1969,2055,2042,2055
2040,2030,1997,2013,1968,2049,2039,2061
2038,2026,1992,2021,1972,2032,2019,2062
2037,2028,1997,2040,2006,1994,2015,2071
2038,2033,2007,2054,2050,1990,2034,2084
2045,2039,2012,2069,2084,2025,2024,2091
2046,2040,2017,2058,2093,2054,2030,2091
2044,2032,2016,2047,2089,2058,2018,2083
2035,2023,2022,2036,2067,2045,2012,2080
2039,2029,2029,2036,2056,2045,2016,2080
2042,2030,2030,2032,2049,2044,2015,2082
2038,2038,2033,2037,2046,2035,2018,2081
2046,2045,2050,2054,2040,2030,2019,2079
2039,2049,2052,2063,2040,2025,2027,2076
2043,2044,2052,2060,2043,2028,2036,2061
2035,2041,2044,2054,2052,2038,2011,2059
2044,2043,2038,2040,2047,2044,2035,2058
2050,2047,2053,2043,2040,2038,2053,2055
2050,2056,2072,2040,2022,2028,2033,2051
2055,2056,2086,2036,2010,2020,2037,2041
2049,2054,2093,2039,2014,2015,2023,2027
2040,2051,2088,2030,2008,2024,2033,2015
2050,2046,2084,2038,2044,2033,2035,2020
2054,2056,2082,2062,2079,2043,2049,2022
2050,2056,2081,2064,2071,2036,2072,2018
2052,2056,2080,2058,2071,2039,2053,2017
2058,2069,2084,2068,2066,2041,2063,2023
2060,2070,2088,2064,2051,2037,2066,2041
2058,2075,2087,2057,2052,2033,2044,2051
2059,2076,2079,2062,2054,2034,2045,2048
2061,2074,2078,2064,2069,2038,2051,2058
2061,2069,2071,2063,2074,2043,2056,2073
2065,2064,2073,2067,2084,2045,2043,2076
2064,2066,2073,2071,2080,2049,2038,2073
2060,2065,2075,2070,2072,2037,2051,2076
2060,2061,2065,2065,2072,2027,2037,2078
2058,2060,2072,2071,2076,2020,2032,2083
2056,2054,2065,2073,2095,2024,2024,2090
2049,2051,2059,2073,2096,2026,2029,2087
2045,2047,2056,2071,2087,2028,2027,2080
2045,2043,2050,2065,2040,2034,2008,2073
2029,2033,2032,2042,1972,2040,2014,2072
2024,2031,2027,2040,1968,2054,2032,2083
2041,2046,2040,2051,1978,2059,2035,2086
2048,2053,2047,2054,1986,2054,2056,2089
2049,2056,2057,2055,1991,2045,2054,2076
2048,2051,2054,2055,1997,2042,2032,2070
2038,2047,2048,2051,2017,2041,2031,2066
2036,2048,2050,2068,2050,2044,2038,2063
2048,2051,2059,2076,2056,2051,2044,2057
2045,2047,2054,2075,2071,2061,2046,2040
2044,2034,2051,2067,2081,2067,2034,2033
2030,2035,2045,2063,2080,2070,2030,2023
2023,2030,2041,2061,2082,2069,2040,2004
2023,2025,2034,2050,2064,2064,2051,1996
2021,2022,2023,2038,2053,2056,2039,1991
2017,2022,2026,2029,2051,2053,2038,1992
2022,2025,2028,2029,2036,2044,2022,1992
2014,2016,2031,2032,2037,2043,2030,1990
2022,2025,2039,2042,2046,2050,2038,2002
2039,2038,2044,2045,2044,2046,2039,2016
2041,2040,2038,2050,2045,2047,2047,2023
2044,2046,2043,2059,2050,2045,2041,2036
2044,2055,2060,2064,2048,2037,2041,2047
2050,2063,2067,2064,2035,2032,2045,2051
2049,2068,2074,2066,2037,2050,2038,2059
2049,2072,2084,2065,2034,2076,2035,2077
2049,2062,2072,2055,2022,2110,2030,2064
2046,2056,2067,2042,2035,2126,2028,2066
2046,2055,2051,2040,2028,2123,2030,2072
2042,2063,2054,2040,1999,2093,2031,2082
2053,2060,2054,2036,1988,2043,2017,2084
2050,2061,2057,2040,2006,1983,2033,2101
2058,2070,2072,2069,2068,2010,2048,2103
2064,2069,2068,2083,2096,2032,2042,2098
2054,2057,2068,2076,2102,2043,2042,2091
2059,2066,2068,2066,2069,2030,2054,2090
2047,2064,2066,2060,2018,2000,2049,2090
2049,2067,2060,2056,2022,1989,2049,2086
2043,2059,2057,2060,2043,2000,2035,2083
2046,2063,2059,2061,2075,2022,2051,2079
2046,2058,2057,2064,2092,2060,2056,2074
2046,2066,2055,2063,2102,2072,2047,2068
2042,2060,2053,2062,2100,2078,2059,2051
2038,2060,2051,2065,2101,2077,2056,2050
2040,2058,2054,2063,2104,2071,2057,2034
2042,2055,2056,2063,2100,2063,2052,2035
2038,2060,2054,2072,2095,2056,2053,2022
2037,2057,2050,2064,2087,2041,2047,2017
2037,2052,2046,2057,2070,2037,2035,2006
2038,2052,2045,2048,2024,2032,2025,2008
2030,2043,2035,2029,1970,2023,2017,1998
2033,2039,2028,2023,1987,2023,2022,2009
2040,2051,2037,2031,2008,2019,2021,2005
2045,2047,2042,2047,2011,2014,2019,2012
2044,2047,2040,2062,2024,2018,2023,2020
2034,2043,2045,2081,2044,2025,2027,2034
2036,2046,2046,2096,2055,2027,2038,2045
2041,2044,2046,2100,2064,2029,2029,2055
2044,2042,2048,2098,2050,2033,2034,2061
2038,2044,2046,2102,2036,2036,2035,2062
2034,2040,2040,2096,2037,2044,2056,2072
2038,2042,2038,2093,2036,2050,2038,2065
2038,2041,2027,2092,2047,2056,2027,2068
2039,2044,2023,2096,2044,2061,2038,2072
2041,2047,2026,2101,2039,2059,2050,2080
2039,2055,2034,2096,2032,2052,2041,2088
2040,2052,2031,2073,2016,2036,1999,2082
2034,2040,2008,2035,1981,2024,1996,2077
2027,2030,1997,2011,1988,2041,2022,2083
2038,2040,2014,2009,2018,2064,2019,2082
2039,2060,2031,1990,2029,2071,2047,2086
2054,2070,2050,1975,2038,2088,2037,2081
2057,2075,2065,1979,2039,2086,2042,2079
2057,2082,2074,1979,2024,2049,2069,2082
2064,2085,2090,1998,2036,2036,2065,2071
2061,2082,2082,2014,2066,2050,2057,2068
2051,2073,2073,2025,2075,2060,2054,2050
2048,2064,2058,2028,2073,2059,2050,2042
2049,2053,2058,2026,2064,2053,2050,2027
2041,2053,2056,2050,2069,2064,2063,2022
2039,2051,2064,2067,2078,2066,2055,2021
2039,2044,2057,2058,2077,2065,2058,2012
2037,2043,2052,2055,2076,2050,2056,2000
2032,2039,2042,2043,2066,2042,2045,1997
2026,2033,2038,2049,2062,2032,2040,2000
2030,2045,2039,2052,2065,2024,2033,2007
2040,2045,2033,2053,2051,2023,2035,2016
2041,2037,2030,2050,2040,2023,2019,2020
2035,2037,2033,2049,2033,2035,2025,2024
2030,2042,2035,2047,2030,2046,2033,2027
2036,2041,2041,2044,2038,2051,2038,2047
2038,2047,2051,2044,2047,2071,2036,2057
2040,2051,2045,2041,2047,2078,2046,2067
2039,2054,2030,2037,2057,2086,2059,2071
2040,2045,2022,2028,2066,2098,2028,2068
2040,2037,2026,2020,2105,2107,2034,2073
2035,2037,2021,2020,2120,2111,2044,2085
2039,2045,2022,2016,2126,2107,2016,2079
2038,2045,2030,2022,2129,2099,2024,2081
2048,2049,2037,2031,2124,2064,2029,2098
2042,2046,2031,2033,2108,2030,2017,2090
2037,2047,2036,2028,2087,2034,2029,2088
2046,2061,2052,2039,2081,2043,2023,2084
2047,2063,2067,2047,2059,2028,2032,2080
2054,2066,2074,2058,2037,2034,2028,2082
2050,2072,2070,2041,1940,2028,2032,2076
2052,2065,2069,2031,1935,2030,2038,2070
2045,2063,2072,2034,1963,2033,2040,2063
2052,2065,2074,2042,1979,2027,2046,2054
2049,2066,2061,2043,1978,2014,2022,2050
2046,2064,2056,2030,1976,2016,2028,2042
2050,2061,2056,2025,1993,2024,2047,2032
2040,2059,2046,2025,2020,2038,2020,2023
2041,2052,2045,2030,2057,2039,2011,2014
2040,2052,2051,2038,2080,2048,2016,2008
2038,2050,2051,2038,2080,2059,2018,1999
2044,2052,2050,2033,2056,2053,2021,1997
2034,2041,2044,2022,2035,2046,2024,1997
2032,2036,2041,2021,2027,2067,2028,2000
2032,2042,2043,2017,2020,2082,2030,2001
2036,2048,2049,2018,2004,2090,2028,2007
2037,2051,2052,2020,2005,2096,2049,2019
2048,2049,2051,2020,1998,2083,2041,2030
2041,2057,2044,2033,2029,2018,2030,2051
2044,2061,2047,2043,2080,1972,2018,2056
2035,2053,2047,2055,2117,2001,2028,2057
2035,2053,2048,2059,2118,2035,2026,2067
2042,2052,2048,2054,2084,2034,2050,2072
2040,2054,2045,2053,2041,2022,2048,2084
2037,2057,2051,2050,2012,2020,2028,2081
2040,2059,2050,2051,1997,2030,2038,2081
2036,2049,2041,2045,2006,2033,2049,2077
2039,2046,2034,2049,2012,2050,2053,2071
2036,2041,2029,2040,1994,2061,2047,2071
2018,2020,2018,2030,1990,2064,2042,2064
2022,2025,2022,2032,1997,2075,2036,2067
2034,2033,2020,2033,2005,2060,2055,2077
2035,2031,2023,2043,2034,2009,2050,2079
2043,2042,2044,2065,2089,2009,2041,2072
2047,2049,2058,2079,2130,2037,2051,2068
2040,2053,2062,2080,2156,2069,2067,2065
2041,2055,2052,2072,2140,2067,2055,2058
2040,2048,2048,2057,2093,2054,2032,2050
2040,2042,2048,2033,2062,2044,2043,2041
2034,2044,2044,2022,2049,2036,2044,2032
2037,2044,2050,2019,2045,2043,2038,2022
2034,2045,2055,2024,2051,2049,2049,2015
2034,2044,2053,2025,2049,2049,2047,2008
2036,2044,2052,2035,2046,2045,2057,2002
2034,2039,2056,2038,2047,2046,2053,2002
2025,2031,2046,2031,2042,2037,2050,1997
2023,2030,2043,2032,2041,2044,2037,1992
2029,2039,2048,2042,2062,2053,2039,2010
2031,2038,2043,2043,2076,2056,2045,2014
2035,2041,2044,2044,2081,2064,2055,2015
2040,2038,2042,2047,2067,2059,2051,2030
2032,2040,2045,2044,2051,2053,2032,2040
2035,2035,2040,2040,2052,2047,2038,2051
2032,2031,2046,2043,2050,2048,2047,2057
2026,2033,2046,2044,2050,2049,2046,2060
2035,2034,2050,2047,2050,2057,2058,2064
2036,2041,2057,2056,2058,2067,2052,2082
2038,2047,2063,2059,2068,2067,2068,2079
2037,2040,2059,2061,2051,2057,2053,2079
2032,2040,2052,2047,2030,2042,2057,2085
2034,2044,2052,2046,2025,2038,2057,2095
2035,2047,2050,2043,2023,2038,2051,2082
2023,2029,2035,2032,2022,2037,2051,2074
2016,2024,2033,2036,2038,2049,2066,2084
2030,2044,2050,2054,2061,2063,2065,2074
2036,2051,2050,2059,2061,2054,2061,2081
2037,2057,2051,2051,2051,2056,2059,2085
2042,2051,2051,2054,2052,2050,2054,2081
2045,2058,2057,2057,2057,2041,2048,2074
2046,2062,2061,2055,2065,2036,2056,2066
2050,2068,2062,2061,2068,2028,2037,2059
2047,2068,2062,2061,2074,2026,2044,2047
2042,2058,2064,2050,2070,2014,2025,2040
2041,2057,2058,2055,2074,2022,2013,2029
2039,2057,2054,2054,2074,2036,2002,2022
2041,2057,2055,2055,2075,2037,2016,2014
2036,2060,2054,2062,2072,2043,2023,2012
2035,2051,2049,2057,2054,2042,2021,2011
2037,2049,2041,2050,2032,2025,2001,2006
2030,2036,2032,2044,2025,2025,2000,2007
2034,2037,2036,2047,2034,2057,2017,2009
2035,2045,2039,2047,2059,2088,2033,2016
2032,2035,2035,2040,2058,2097,2025,2015
2024,2044,2037,2035,2053,2110,2032,2027
2041,2059,2060,2061,2073,2084,2024,2043
2059,2067,2070,2084,2113,2022,2033,2062
2056,2068,2072,2099,2157,2027,2032,2074
2057,2068,2068,2107,2174,2049,2051,2085
2050,2062,2060,2097,2137,2048,2030,2086
2040,2059,2051,2059,2089,2041,2012,2082
2030,2049,2044,2020,1970,2035,2017,2073
2024,2047,2048,2003,1868,2044,2018,2079
2030,2052,2052,2021,1956,2071,2013,2085
2036,2056,2062,2034,2041,2082,2010,2086
2040,2056,2053,2038,2085,2099,2019,2080
2038,2046,2047,2033,2081,2103,2021,2070
2026,2040,2041,2039,2085,2099,2039,2071
2030,2049,2053,2050,2091,2090,2027,2084
2047,2057,2058,2050,2090,2090,2016,2081
2042,2059,2053,2053,2071,2087,2033,2074
2043,2052,2049,2044,2047,2061,2039,2066
2032,2052,2051,2041,2022,2026,2021,2065
2044,2052,2052,2024,1965,2000,2033,2050
2040,2053,2047,2024,1946,2002,2022,2051
2040,2059,2055,2037,1990,2009,2032,2044
2036,2058,2054,2046,2031,2024,2018,2031
2032,2052,2056,2053,2060,2042,2011,2024
2038,2056,2054,2045,2054,2047,2022,2020
2038,2056,2054,2041,2040,2047,2052,2014
2034,2057,2052,2040,2032,2041,2054,2006
2030,2060,2047,2032,2016,2033,2026,2008
2030,2054,2045,2026,2000,2023,2029,2004
2028,2042,2036,2015,1983,2011,2031,1997
2031,2035,2034,2016,1980,2012,2037,2006
2029,2044,2032,2016,1988,2030,2044,2006
2036,2047,2038,2032,2026,2047,2059,2023
2044,2056,2050,2058,2061,2051,2061,2032
2044,2061,2058,2060,2056,2038,2032,2037
2045,2059,2056,2054,2060,2032,2029,2040
2045,2055,2053,2044,2042,2027,2040,2047
2051,2049,2049,2047,2039,2026,2052,2060
2044,2050,2054,2053,2043,2032,2051,2068
2043,2053,2053,2056,2045,2034,2054,2066
2045,2056,2051,2057,2052,2032,2050,2073
2044,2052,2057,2057,2049,2063,2058,2077
2041,2047,2050,2051,2053,2073,2056,2078
2042,2042,2051,2053,2045,2069,2047,2086
2040,2040,2049,2053,2047,2054,2054,2087
2038,2045,2048,2053,2049,2050,2057,2089
2038,2029,2042,2050,2038,2052,2047,2078
2038,2034,2046,2052,2035,2049,2060,2077
2037,2046,2056,2047,2045,2056,2064,2080
2043,2048,2054,2054,2048,2063,2074,2074
2046,2049,2052,2051,2046,2079,2073,2071
2043,2055,2058,2055,2058,2105,2080,2068
2045,2056,2061,2056,2070,2129,2053,2066
2049,2058,2069,2059,2064,2133,2054,2062
2043,2055,2064,2054,2061,2098,2053,2052
2043,2057,2063,2058,2064,2080,2072,2045
2046,2054,2059,2060,2067,2071,2071,2040
2042,2056,2058,2059,2063,2068,2054,2031
2035,2047,2050,2054,2058,2067,2054,2016
2034,2050,2050,2052,2060,2085,2070,2008
2039,2052,2051,2047,2057,2098,2076,2010
2038,2050,2045,2048,2054,2097,2066,2003
2037,2044,2046,2046,2048,2052,2059,2004
2027,2033,2039,2043,2044,2038,2062,2004
2033,2042,2048,2054,2056,2052,2054,2015
2043,2055,2058,2062,2058,2070,2035,2022
2045,2060,2060,2061,2057,2073,2046,2031
2047,2061,2062,2061,2055,2070,2047,2035
2044,2061,2059,2055,2051,2064,2051,2042
2046,2059,2057,2052,2037,2028,2026,2044
2042,2054,2052,2050,2032,2006,2027,2050
2040,2048,2050,2048,2034,2011,2018,2058
2046,2047,2052,2055,2038,2028,2009,2064
2044,2044,2054,2055,2041,2037,2024,2074
2041,2048,2050,2053,2043,2044,2033,2073
2038,2046,2051,2053,2043,2039,2024,2076
2043,2050,2049,2052,2050,2025,2024,2082
2046,2048,2049,2054,2055,2018,2023,2089
2044,2048,2055,2058,2048,2001,2026,2090
2041,2041,2043,2041,2032,1965,2013,2079
2030,2030,2047,2041,2027,1966,2019,2077
2032,2035,2049,2044,2040,2010,2038,2077
2037,2043,2049,2047,2045,2045,2040,2085
2044,2048,2051,2051,2040,2029,2041,2069
2039,2044,2061,2043,2034,2013,2033,2062
2044,2050,2051,2044,2036,2013,2042,2057
2039,2043,2052,2046,2036,2020,2032,2042
2028,2044,2050,2044,2037,2017,2030,2034
2023,2038,2047,2050,2041,2024,2035,2023
2023,2036,2050,2054,2043,2034,2033,2019
2020,2031,2046,2054,2052,2046,2038,2011
2026,2035,2052,2054,2051,2055,2045,2004
2026,2039,2049,2054,2049,2053,2045,2002
2029,2038,2054,2058,2053,2059,2067,2001
2024,2037,2049,2056,2055,2067,2071,2006
2020,2041,2052,2057,2054,2068,2074,1992
2011,2029,2040,2050,2046,2052,2044,1983
2008,2020,2038,2045,2036,2032,2061,1981
2021,2035,2045,2049,2034,2036,2054,1994
2022,2040,2051,2052,2040,2028,2060,1997
2028,2042,2053,2050,2044,2024,2053,2015
2041,2043,2049,2059,2046,2029,2056,2024
2064,2052,2055,2057,2053,2034,2054,2035
2078,2055,2054,2061,2055,2044,2031,2041
2060,2053,2053,2067,2065,2045,2044,2046
2050,2050,2056,2065,2064,2044,2039,2046
2050,2046,2053,2060,2062,2053,2046,2053
2042,2047,2051,2053,2059,2058,2045,2048
2033,2044,2049,2046,2049,2062,2039,2059
2034,2039,2039,2046,2040,2065,2032,2070
2041,2043,2040,2037,2041,2069,2041,2072
2044,2038,2040,2034,2043,2076,2039,2070
2040,2031,2039,2033,2034,2074,2032,2066
2034,2024,2038,2030,2012,2068,2028,2059
2030,2028,2037,2033,2021,2074,2036,2061
2040,2040,2044,2038,2025,2068,2057,2074
2044,2038,2044,2040,2025,2058,2044,2072
2047,2037,2037,2037,2029,2058,2040,2055
2047,2044,2039,2034,2038,2060,2067,2053
2051,2050,2045,2042,2039,2065,2077,2053
2047,2049,2044,2042,2044,2067,2077,2045
2052,2047,2047,2044,2044,2064,2071,2040
2049,2042,2050,2049,2046,2074,2068,2024
2040,2045,2048,2047,2054,2070,2051,2008
2028,2045,2048,2052,2049,2048,2047,1986
2026,2044,2052,2049,2049,2048,2023,1974
2023,2036,2048,2043,2052,2049,2016,1965
2018,2035,2042,2043,2058,2044,2023,1967
2017,2039,2043,2046,2051,2023,2039,1957
2015,2033,2041,2039,2044,2020,2015,1955
2006,2019,2035,2033,2038,2027,2017,1955
2013,2035,2042,2042,2036,2036,2040,1974
2027,2044,2044,2045,2043,2027,2033,1983
2026,2038,2045,2040,2042,2007,2044,1989
2030,2035,2041,2045,2041,1987,2024,2008
2049,2044,2049,2042,2042,1982,2037,2025
2073,2053,2049,2034,2037,1978,2055,2038
2084,2059,2052,2038,2037,1992,2057,2049
2073,2056,2052,2044,2044,2004,2053,2054
2058,2062,2053,2052,2054,2026,2029,2063
2063,2055,2050,2052,2058,2043,2011,2065
2057,2056,2049,2053,2061,2059,2050,2076
2062,2054,2043,2054,2053,2046,2050,2076
2062,2052,2040,2051,2045,2037,2033,2080
2054,2047,2040,2051,2050,2053,2060,2090
2057,2053,2048,2054,2051,2053,2052,2097
2065,2049,2038,2046,2038,2044,2072,2082
2053,2042,2044,2048,2030,2060,2061,2079
2050,2048,2043,2048,2026,2083,2072,2073
2042,2045,2044,2041,2039,2089,2056,2063
2039,2038,2039,2042,2075,2094,2033,2053
2037,2031,2030,2042,2090,2045,2042,2040
2027,2033,2034,2037,2081,1991,2033,2029
2032,2038,2028,2032,2077,1982,2032,2036
2042,2050,2044,2052,2113,2011,2048,2037
2047,2052,2052,2061,2111,2024,2062,2033
2044,2045,2041,2057,2089,2077,2076,2028
2046,2043,2047,2060,2077,2104,2068,2015
2035,2036,2044,2057,2056,2085,2051,2000
2025,2021,2028,2041,2008,2064,2035,1978
2017,2016,2029,2034,1909,2018,2029,1980
2022,2020,2037,2044,1922,2008,2052,1988
2033,2032,2047,2066,2003,2048,2072,1991
2026,2020,2050,2081,2053,2098,2067,1988
2032,2023,2047,2084,2084,2131,2084,1988
2042,2036,2058,2083,2087,2152,2077,2002
2043,2050,2050,2069,2036,2127,2049,2005
2039,2046,2050,2041,1981,2086,2042,2002
2041,2053,2046,2027,1942,2016,2031,2011
2040,2045,2043,2029,1917,1995,2030,2026
2043,2039,2044,2024,1914,2041,2029,2024
2048,2043,2047,2020,1918,2025,2037,2036
2044,2053,2047,2018,1912,1987,2070,2043
2050,2051,2050,2019,1948,2025,2062,2051
2056,2060,2054,2025,1997,2040,2060,2059
2051,2061,2056,2038,2036,2072,2049,2061
2047,2050,2058,2041,2034,2114,2036,2059
2043,2047,2054,2040,2037,2098,2031,2062
2044,2051,2062,2056,2071,2078,2020,2076
2054,2055,2066,2075,2122,2063,2020,2075
2054,2057,2066,2076,2152,2064,2007,2079
2047,2051,2065,2078,2173,2100,2017,2062
2045,2054,2058,2068,2149,2114,2044,2048
2039,2045,2051,2063,2115,2108,2054,2043
2030,2038,2047,2062,2099,2082,2060,2041
2027,2030,2038,2056,2091,2049,2059,2037
2024,2028,2036,2051,2090,2039,2055,2029
2027,2023,2032,2050,2077,2034,2061,2021
2023,2030,2030,2041,2060,2000,2027,2009
2025,2028,2028,2035,2049,1977,2028,2013
2027,2030,2029,2042,2047,1998,2024,2006
2029,2036,2036,2045,2044,2021,2028,2008
2035,2035,2041,2042,2048,2027,2021,1998
2033,2032,2041,2043,2051,2033,2029,1991
2035,2034,2043,2044,2056,2042,2020,1993
2029,2037,2044,2048,2064,2059,2046,1987
2030,2026,2037,2044,2060,2059,2034,1974
2026,2021,2035,2040,2066,2067,2037,1973
2026,2030,2040,2046,2062,2072,2040,1986
2022,2035,2040,2044,2057,2071,2052,1988
2033,2042,2039,2042,2062,2048,2051,2005
2041,2044,2033,2042,2054,2029,2037,2010
2041,2038,2030,2037,2043,2018,2032,2012
2040,2033,2029,2037,2041,2018,2036,2024
2034,2036,2029,2042,2039,2032,2038,2031
2032,2034,2026,2037,2047,2052,2062,2043
2036,2036,2028,2040,2043,2056,2060,2040
2041,2034,2031,2036,2052,2043,2048,2048
2038,2037,2036,2043,2055,2042,2047,2048
2039,2042,2032,2043,2059,2052,2069,2060
2039,2038,2029,2042,2061,2064,2066,2063
2039,2041,2035,2051,2063,2078,2075,2067
2034,2041,2046,2055,2059,2084,2068,2055
2028,2030,2037,2051,2057,2075,2052,2054
2028,2032,2038,2050,2055,2070,2064,2057
2034,2045,2045,2050,2056,2059,2071,2053
2037,2040,2045,2046,2051,2056,2060,2047
2039,2044,2035,2038,2048,2039,2034,2049
2034,2038,2041,2041,2051,2057,2054,2040
2033,2036,2044,2051,2058,2078,2047,2042
2035,2042,2054,2058,2074,2086,2037,2034
2036,2058,2058,2058,2073,2080,2033,2028
2039,2064,2063,2059,2081,2071,2042,2024
2041,2066,2070,2060,2076,2056,2042,2015
2037,2065,2069,2062,2081,2044,2036,2012
2046,2067,2068,2061,2078,2033,2024,1999
2040,2066,2067,2059,2084,2049,2009,1995
2033,2059,2067,2056,2081,2060,2026,1980
2026,2058,2065,2052,2069,2046,2031,1976
2023,2055,2067,2044,2062,2026,2024,1973
2021,2044,2060,2042,2056,2026,2052,1979
2028,2039,2060,2034,2052,2039,2048,1991
2029,2043,2057,2038,2044,2042,2039,1988
2034,2051,2064,2039,2032,2033,2058,1994
2031,2050,2065,2039,2029,2035,2052,2001
2032,2049,2064,2037,2035,2047,2057,2015
2036,2055,2062,2044,2039,2046,2047,2034
2032,2055,2061,2045,2034,2047,2057,2046
2038,2056,2068,2050,2036,2054,2056,2051
2032,2060,2069,2051,2040,2060,2062,2049
2023,2055,2064,2058,2042,2049,2048,2047
2034,2060,2061,2053,2048,2034,2057,2056
2054,2064,2065,2058,2052,2037,2059,2060
2069,2068,2069,2064,2060,2038,2049,2060
2051,2064,2071,2061,2071,2030,2037,2060
2040,2059,2069,2055,2081,2051,2040,2061
2034,2044,2054,2051,2083,2071,2050,2056
2032,2039,2052,2048,2097,2073,2057,2061
2039,2046,2058,2056,2100,2086,2065,2047
2037,2047,2059,2056,2093,2092,2050,2052
2042,2052,2067,2059,2091,2100,2061,2055
2052,2055,2073,2073,2099,2118,2076,2049
2048,2059,2073,2081,2118,2130,2064,2050
2042,2062,2071,2075,2112,2156,2070,2038
2045,2052,2065,2073,2112,2162,2071,2037
2043,2058,2064,2064,2100,2160,2065,2031
2047,2060,2064,2063,2095,2147,2065,2032
2050,2053,2060,2062,2094,2090,2064,2019
2045,2049,2054,2056,2080,2014,2039,1995
2035,2047,2045,2043,2066,2005,2022,1986
2024,2043,2042,2043,2056,2024,2033,1976
2016,2042,2032,2040,2045,2025,2057,1969
2022,2030,2021,2017,2009,2010,2038,1965
2015,2014,2016,2005,1983,1982,2030,1968
2014,2016,2014,2002,1966,1961,2018,1972
2024,2034,2014,2001,1959,1924,1986,1967
2016,2028,2014,1999,1950,1921,1984,1967
2015,2026,2029,2011,1982,1940,1974,1981
2023,2042,2049,2040,2040,1996,2007,1995
2026,2045,2051,2053,2059,2060,2024,2000
2022,2034,2044,2041,2050,2066,2014,2012
2028,2033,2033,2033,2037,2038,2016,2016
2026,2030,2038,2034,2022,2020,2006,2037
2030,2035,2049,2046,2067,2033,2014,2043
2041,2042,2057,2046,2085,2050,2038,2045
2033,2037,2061,2050,2086,2039,2039,2047
2032,2034,2062,2047,2090,2041,2044,2047
2021,2038,2066,2050,2060,2059,2042,2049
2029,2047,2076,2052,2026,2068,2071,2049
2033,2051,2075,2055,2010,2062,2052,2047
2042,2050,2074,2049,2013,2064,2056,2055
2040,2056,2077,2042,1996,2078,2045,2058
2035,2053,2072,2029,1966,2066,2043,2050
2033,2048,2077,2039,1980,2047,2043,2043
2030,2052,2081,2051,1997,2031,2040,2039
2037,2048,2082,2064,2015,2024,2027,2035
2029,2044,2081,2064,2032,2034,2022,2024
2028,2042,2071,2064,2046,2043,2020,2015
2024,2041,2069,2061,2058,2054,2022,2009
2030,2040,2071,2062,2091,2060,2023,1997
2026,2035,2068,2058,2106,2069,2044,1991
2026,2026,2053,2052,2094,2077,2044,1991
2017,2022,2040,2050,2070,2082,2018,1974
2013,2017,2032,2056,2061,2106,2027,1964
2008,2015,2024,2049,2035,2086,2031,1959
2010,2001,2028,2043,1997,2056,2002,1942
2002,1988,2030,2050,1986,1982,1987,1942
2009,2002,2038,2057,1962,1931,1978,1954
2023,2008,2037,2066,1974,1983,2011,1968
2030,2018,2044,2084,2049,2025,2021,1976
2039,2019,2042,2103,2101,2053,2021,1989
2037,2020,2028,2110,2135,2104,2049,1999
2037,2016,2014,2113,2158,2146,2057,2012
2031,2018,1997,2102,2125,2143,2067,2019
2032,2013,1981,2088,2102,2143,2068,2026
2027,2006,1971,2077,2093,2160,2056,2031
2021,2008,1974,2080,2093,2164,2073,2041
2022,2012,1977,2081,2084,2155,2073,2043
2021,2009,1995,2062,2076,2131,2072,2043
2022,2016,2007,2032,2060,2105,2083,2056
2023,2021,2026,2011,2040,2066,2070,2064
2030,2031,2053,2004,2026,2033,2046,2061
2026,2029,2045,1984,2020,1991,2034,2060
2021,2017,2032,1975,2031,1984,2008,2054
2022,2038,2060,2008,2048,1982,2057,2054
2037,2054,2085,2022,2030,1967,2028,2052
2036,2052,2097,2025,2014,1980,2044,2038
2033,2053,2112,2033,1999,1988,2040,2032
2030,2058,2114,2047,1987,2004,2035,2034
2033,2056,2113,2050,1984,2035,2040,2018
2031,2053,2106,2048,1981,2071,2040,2017
2024,2056,2099,2065,1992,2085,2016,2020
2031,2059,2099,2071,2030,2093,2023,2016
2037,2066,2104,2074,2054,2109,2030,2004
2042,2065,2105,2068,2046,2104,2037,1992
2038,2060,2097,2060,2043,2120,2031,1993
2037,2062,2098,2049,2044,2130,2043,1990
2038,2056,2078,2048,2068,2114,2052,1993
2042,2053,2064,2040,2085,2069,2061,1984
2030,2042,2043,2028,2122,2060,2037,1979
2029,2030,2026,2015,2150,2078,2035,1983
2036,2038,2042,2023,2188,2088,2032,1993
2040,2041,2046,2024,2218,2081,2019,2003
2033,2038,2046,2020,2185,2050,2029,2003
2032,2041,2037,2002,2110,2078,2023,2007
2026,2034,2031,1988,2067,2082,2027,2007
2012,2028,2032,1975,1998,2054,2029,2009
2008,2029,2049,1975,1924,1997,2010,2031
2014,2033,2062,2000,1878,1923,2017,2058
2031,2057,2074,2029,1902,1904,2032,2069
2036,2053,2078,2054,1993,1968,2038,2068
2034,2051,2068,2061,2040,2035,2051,2065
2035,2039,2064,2058,2049,2072,2023,2065
2027,2037,2052,2054,2029,2083,2034,2056
2029,2040,2048,2041,2024,2088,2045,2049
2017,2030,2048,2042,2013,2074,2030,2046
2021,2034,2061,2042,2012,2052,2026,2045
2029,2050,2071,2045,2009,2047,2045,2052
2033,2049,2076,2039,2020,2006,2050,2059
2041,2048,2079,2042,2053,1979,2042,2064
2037,2044,2070,2036,2055,2003,2057,2056
2034,2048,2073,2033,2051,2015,2055,2047
2032,2046,2082,2042,2049,2023,2060,2040
2029,2051,2086,2046,2054,2032,2056,2042
2031,2054,2085,2056,2062,2028,2042,2037
2028,2057,2095,2067,2071,2032,2055,2032
2028,2059,2110,2076,2074,2042,2049,2026
2027,2060,2108,2080,2068,2047,2058,2010
2027,2065,2101,2076,2070,2052,2030,1998
2035,2064,2103,2079,2079,2045,2025,1995
2035,2064,2100,2081,2077,2052,2011,1993
2035,2061,2091,2079,2078,2061,2023,1988
2032,2048,2076,2072,2075,2088,2019,1995
2022,2041,2072,2070,2069,2106,2034,2005
2028,2051,2068,2068,2051,2122,2049,2012
2027,2049,2068,2071,2060,2100,2046,2013
2028,2047,2063,2065,2057,2037,2047,2013
2025,2037,2052,2066,2044,2040,2058,2011
2016,2029,2033,2045,1997,2055,2056,2009
2012,2017,2024,2005,1932,2049,2057,2025
2017,2016,2016,1989,1937,2049,2060,2032
2022,2029,2022,1992,1966,2050,2051,2041
2030,2027,2034,2011,1977,2050,2059,2049
2031,2029,2037,2009,1986,2046,2038,2046
2020,2031,2040,2006,1986,2015,2018,2048
2020,2027,2036,2009,1984,2011,2025,2046
2021,2032,2035,2014,1980,2013,2022,2055
2027,2029,2034,2019,1986,2021,2017,2054
2020,2013,2025,2022,2004,2031,2037,2059
2023,2014,2029,2025,2026,2035,2037,2069
2024,2031,2041,2040,2058,2043,2037,2068
2032,2045,2052,2047,2085,2046,2056,2068
2032,2050,2063,2050,2082,2044,2058,2069
2036,2051,2071,2051,2075,2035,2054,2062
2043,2059,2078,2054,2079,2044,2064,2063
2039,2059,2080,2055,2085,2042,2055,2054
2033,2059,2077,2055,2088,2062,2070,2052
2040,2050,2077,2052,2098,2066,2073,2047
2040,2050,2075,2053,2082,2062,2054,2034
2026,2044,2069,2045,2065,2050,2050,2027
2035,2042,2059,2039,2038,2064,2056,2014
2030,2040,2055,2038,2041,2082,2058,2008
2030,2038,2055,2043,2047,2092,2044,1998
2027,2035,2052,2041,2034,2082,2075,1989
2029,2036,2050,2037,2032,2057,2055,1980
2022,2028,2045,2029,2023,2041,2029,1972
2015,2027,2044,2030,2041,2042,2017,1983
2028,2041,2056,2038,2044,2035,2006,1998
2026,2039,2054,2040,2053,2045,2017,2006
2028,2039,2052,2044,2070,2053,2033,2021
2032,2038,2050,2046,2071,2062,2046,2025
2032,2036,2051,2041,2061,2067,2050,2029
2037,2032,2042,2038,2049,2066,2040,2041
2032,2035,2042,2034,2045,2056,2033,2051
2026,2029,2043,2032,2038,2054,2036,2047
2025,2030,2039,2038,2038,2051,2022,2059
2025,2034,2037,2037,2052,2061,2026,2052
2031,2034,2042,2037,2052,2056,2032,2059
2037,2036,2046,2037,2053,2045,2041,2066
