CH1,CH2,CH3,CH4,CH5,CH6,CH7,CH8
2034,2033,2037,2036,2033,2032,2056,2051
2019,2033,2036,2031,2036,2036,2065,2067
2031,2041,2049,2040,2031,2046,2064,2064
2037,2050,2049,2042,2030,2051,2056,2063
2042,2060,2049,2047,2030,2045,2058,2064
2045,2063,2064,2050,2036,2046,2051,2053
2046,2059,2054,2051,2030,2048,2050,2051
2054,2059,2048,2047,2034,2052,2061,2052
2054,2055,2052,2050,2032,2054,2069,2046
2048,2055,2048,2052,2032,2054,2076,2050
2047,2054,2050,2049,2033,2047,2060,2050
2051,2047,2042,2050,2030,2050,2045,2045
2047,2046,2039,2049,2029,2048,2050,2038
2051,2052,2049,2055,2038,2056,2069,2040
2053,2050,2051,2049,2030,2051,2065,2032
2050,2051,2051,2049,2031,2053,2057,2024
2038,2044,2040,2038,2031,2046,2048,2024
2048,2038,2034,2041,2035,2061,2044,2030
2055,2046,2040,2053,2050,2071,2061,2034
2054,2048,2046,2051,2051,2069,2050,2032
2052,2052,2055,2058,2052,2052,2022,2028
2049,2052,2054,2061,2051,2045,2042,2032
2053,2056,2050,2058,2050,2051,2032,2038
2057,2042,2048,2058,2048,2049,2030,2047
2050,2035,2042,2057,2037,2044,2034,2051
2051,2032,2038,2052,2047,2044,2039,2056
2046,2035,2041,2053,2046,2046,2065,2057
2038,2049,2047,2056,2048,2051,2060,2066
2048,2045,2043,2058,2049,2050,2049,2075
2045,2040,2038,2054,2049,2045,2064,2070
2045,2039,2033,2055,2044,2046,2051,2067
2037,2040,2040,2060,2043,2042,2049,2062
2021,2035,2030,2054,2032,2038,2036,2063
2026,2033,2029,2050,2035,2044,2037,2063
2036,2048,2039,2063,2045,2053,2046,2062
2040,2046,2044,2055,2046,2049,2044,2056
2043,2049,2044,2054,2050,2060,2019,2049
2038,2049,2045,2055,2050,2066,2041,2045
2042,2053,2045,2058,2054,2062,2042,2046
2047,2053,2043,2063,2045,2070,2038,2047
2044,2054,2044,2058,2043,2069,2021,2037
2040,2054,2047,2065,2045,2068,2029,2043
2051,2053,2072,2088,2045,2062,2027,2040
2058,2059,2082,2092,2049,2020,2030,2035
2048,2061,2087,2093,2046,2009,2031,2027
2050,2052,2073,2085,2041,2022,2034,2023
2050,2047,2068,2078,2040,2042,2043,2024
2042,2045,2065,2081,2046,2054,2058,2012
2034,2032,2060,2070,2047,2059,2051,2008
2024,2034,2050,2067,2043,2057,2042,2013
2031,2044,2050,2073,2045,2069,2050,2021
2037,2049,2045,2073,2050,2068,2049,2020
2040,2052,2038,2074,2050,2062,2068,2022
2045,2052,2037,2061,2053,2068,2072,2030
2048,2045,2030,2053,2053,2063,2059,2039
2050,2044,2025,2036,2046,2053,2053,2040
2039,2031,2005,2009,2039,2047,2055,2041
2039,2030,2008,1999,2038,2047,2049,2042
2040,2043,2018,2001,2043,2052,2060,2054
2050,2050,2019,2009,2047,2048,2070,2053
2041,2047,2024,2017,2054,2061,2069,2064
2035,2047,2028,2026,2061,2081,2060,2071
2047,2047,2032,2033,2069,2088,2057,2074
2048,2050,2030,2038,2053,2088,2039,2069
2039,2039,2034,2036,2045,2075,2036,2056
2039,2036,2034,2038,2041,2073,2045,2068
2051,2047,2050,2044,2046,2071,2041,2072
2061,2053,2045,2047,2041,2062,2057,2071
2064,2051,2050,2043,2042,2052,2053,2062
2052,2054,2052,2051,2035,2049,2059,2053
2047,2056,2052,2037,2031,2054,2054,2052
2051,2047,2050,2041,2035,2044,2072,2043
2043,2047,2048,2035,2036,2038,2059,2032
2043,2050,2053,2047,2038,2024,2040,2043
2046,2054,2052,2056,2042,2019,2064,2033
2053,2053,2051,2050,2041,2011,2060,2033
2050,2052,2054,2051,2041,2016,2054,2034
2061,2052,2054,2048,2039,2019,2042,2034
2060,2052,2049,2046,2032,2026,2048,2035
2056,2053,2040,2040,2024,2030,2039,2027
2045,2045,2037,2037,2017,2024,2031,2010
2036,2037,2041,2035,2026,2028,2028,2003
2023,2035,2046,2041,2039,2035,2046,2021
2038,2038,2045,2045,2041,2040,2045,2021
2032,2040,2047,2042,2040,2043,2060,2023
2040,2044,2047,2045,2043,2048,2053,2033
2046,2051,2047,2050,2046,2046,2051,2032
2038,2042,2044,2045,2045,2047,2059,2028
2038,2043,2046,2046,2048,2046,2070,2036
2043,2045,2050,2055,2065,2051,2064,2046
2039,2051,2054,2060,2067,2055,2047,2050
2044,2056,2056,2062,2062,2058,2050,2056
2045,2054,2048,2055,2060,2056,2055,2065
2045,2050,2047,2052,2056,2052,2043,2070
2044,2054,2047,2054,2049,2056,2044,2068
2046,2059,2051,2056,2053,2055,2047,2072
2050,2054,2051,2052,2046,2060,2043,2065
2043,2044,2041,2046,2035,2045,2033,2066
2043,2035,2033,2042,2038,2051,2046,2074
2050,2052,2043,2042,2044,2054,2046,2078
2062,2050,2047,2049,2043,2050,2053,2068
2062,2058,2049,2046,2048,2056,2053,2060
2058,2060,2048,2048,2049,2054,2048,2052
2051,2058,2047,2051,2047,2055,2047,2050
2055,2059,2048,2048,2048,2053,2053,2038
2055,2056,2052,2051,2047,2056,2046,2045
2058,2054,2057,2054,2052,2048,2046,2047
2063,2052,2045,2050,2052,2042,2046,2035
2059,2050,2041,2047,2040,2032,2039,2034
2055,2041,2038,2045,2042,2038,2031,2030
2051,2046,2039,2049,2036,2039,2044,2024
2046,2039,2031,2045,2038,2037,2032,2026
2043,2040,2031,2054,2045,2043,2027,2025
2047,2039,2021,2045,2037,2041,2035,2029
2044,2036,2011,2043,2045,2042,2048,2025
2053,2044,2020,2049,2051,2050,2049,2037
2060,2052,2029,2049,2055,2060,2060,2038
2059,2051,2031,2051,2052,2061,2060,2039
2061,2044,2029,2053,2053,2057,2039,2045
2053,2042,2033,2053,2058,2054,2035,2043
2049,2044,2035,2053,2060,2046,2030,2053
2047,2046,2029,2057,2061,2043,2056,2061
2048,2048,2033,2055,2060,2036,2051,2055
2043,2044,2034,2048,2038,2021,2025,2046
2032,2040,2030,2049,2037,2025,2014,2053
2031,2040,2031,2051,2040,2034,2030,2059
2038,2049,2052,2058,2051,2050,2051,2063
2044,2052,2065,2060,2053,2058,2028,2070
2043,2056,2080,2067,2051,2057,2052,2074
2043,2053,2083,2056,2041,2050,2045,2069
2043,2049,2086,2055,2042,2047,2036,2067
2054,2058,2086,2059,2038,2046,2029,2067
2057,2058,2079,2057,2037,2044,2047,2067
2063,2059,2078,2066,2036,2043,2060,2065
2054,2060,2076,2064,2043,2041,2048,2052
2045,2053,2073,2058,2047,2043,2054,2044
2044,2056,2070,2058,2047,2049,2047,2048
2059,2057,2072,2060,2056,2056,2050,2047
2049,2062,2068,2062,2055,2054,2060,2042
2046,2060,2060,2056,2050,2057,2075,2036
2050,2047,2048,2044,2047,2050,2063,2029
2043,2052,2042,2040,2041,2045,2053,2034
2048,2044,2041,2038,2046,2042,2046,2032
2055,2052,2041,2043,2041,2042,2061,2034
2054,2051,2050,2041,2041,2037,2034,2033
2044,2054,2041,2044,2042,2037,2033,2028
2045,2053,2042,2043,2045,2039,2043,2021
2049,2054,2045,2049,2055,2045,2062,2027
2049,2051,2054,2046,2051,2041,2052,2038
2061,2050,2049,2045,2053,2036,2034,2040
2054,2057,2050,2050,2043,2039,2051,2044
2044,2052,2049,2046,2043,2040,2063,2042
2052,2048,2049,2050,2046,2045,2079,2045
2051,2048,2053,2057,2045,2045,2061,2050
2053,2046,2048,2048,2051,2040,2058,2058
2052,2045,2043,2042,2050,2040,2049,2066
2061,2048,2041,2039,2042,2035,2064,2060
2056,2043,2045,2038,2050,2036,2065,2074
2051,2038,2038,2039,2046,2041,2069,2072
2043,2032,2038,2040,2042,2043,2055,2072
2043,2042,2036,2038,2042,2053,2071,2070
2044,2039,2031,2035,2040,2045,2038,2066
2038,2024,2031,2037,2044,2058,2038,2058
2030,2038,2039,2046,2055,2067,2056,2064
2040,2050,2049,2044,2053,2072,2052,2063
2046,2057,2056,2046,2056,2072,2080,2060
2041,2060,2056,2052,2061,2072,2065,2056
2045,2056,2051,2050,2063,2067,2072,2049
2052,2055,2055,2055,2053,2067,2055,2048
2049,2051,2049,2053,2053,2059,2072,2041
2047,2047,2046,2050,2058,2056,2073,2034
2043,2042,2042,2055,2057,2046,2080,2027
2041,2039,2044,2052,2054,2035,2076,2031
2040,2038,2045,2050,2046,2020,2070,2028
2040,2036,2046,2048,2036,2007,2060,2029
2045,2038,2043,2048,2037,2002,2029,2024
2037,2036,2046,2044,2025,2000,2029,2029
2041,2037,2041,2043,2014,1995,2031,2019
2038,2026,2034,2035,2019,2010,2046,2025
2038,2036,2038,2039,2018,2030,2057,2029
2036,2040,2044,2037,2025,2029,2055,2032
2034,2037,2041,2045,2050,2045,2066,2041
2042,2052,2052,2053,2062,2062,2072,2046
2052,2056,2052,2059,2056,2062,2087,2051
2057,2054,2043,2055,2051,2051,2075,2055
2050,2048,2039,2055,2064,2056,2048,2051
2045,2043,2033,2047,2061,2047,2052,2046
2038,2042,2038,2046,2047,2037,2031,2052
2040,2050,2044,2050,2051,2049,2038,2054
2047,2056,2051,2049,2045,2068,2036,2059
2048,2059,2053,2045,2049,2075,2037,2061
2045,2057,2049,2041,2045,2095,2053,2070
2046,2056,2054,2050,2047,2105,2052,2068
2047,2054,2051,2052,2038,2090,2040,2057
2033,2039,2038,2039,2021,2071,2047,2053
2027,2038,2039,2038,2034,2059,2054,2059
2038,2047,2046,2049,2052,2011,2042,2060
2055,2045,2044,2048,2058,1982,2049,2055
2056,2041,2050,2050,2044,1965,2046,2063
2052,2037,2045,2048,2053,1981,2048,2057
2055,2040,2049,2049,2048,1983,2051,2056
2060,2047,2049,2046,2044,1974,2072,2048
2053,2048,2041,2045,2048,1973,2047,2042
2045,2053,2038,2040,2039,1974,2037,2038
2046,2052,2042,2045,2049,1993,2032,2032
2038,2055,2046,2048,2048,1998,2042,2027
2047,2057,2048,2048,2045,2016,2052,2029
2045,2054,2047,2042,2046,2038,2056,2027
2050,2061,2045,2049,2034,2062,2060,2029
2052,2055,2042,2044,2034,2090,2057,2020
2037,2035,2030,2035,2021,2120,2044,2014
2037,2040,2024,2033,2033,2149,2063,2017
2036,2050,2038,2040,2046,2097,2057,2019
2043,2052,2040,2043,2034,2010,2056,2024
2046,2057,2042,2044,2038,2026,2019,2038
2051,2056,2043,2041,2037,2071,2019,2038
2056,2054,2046,2045,2039,2083,2029,2043
2051,2056,2042,2047,2048,2088,2050,2050
2052,2053,2042,2051,2044,2082,2062,2050
2046,2050,2047,2052,2052,2076,2060,2058
2048,2052,2044,2055,2056,2071,2052,2063
2042,2045,2043,2052,2058,2064,2058,2063
2039,2033,2041,2050,2057,2066,2047,2062
2036,2032,2039,2050,2055,2052,2066,2067
2036,2031,2037,2047,2041,2041,2064,2063
2036,2037,2042,2042,2036,2027,2049,2057
2026,2030,2031,2035,2024,2023,2045,2066
2036,2030,2027,2032,2028,2027,2068,2078
2045,2048,2042,2042,2035,2065,2081,2076
2052,2047,2042,2044,2047,2113,2073,2071
2052,2043,2044,2042,2054,2150,2074,2064
2052,2042,2039,2044,2056,2200,2060,2049
2046,2045,2043,2042,2053,2239,2068,2043
2045,2055,2041,2038,2032,2241,2052,2037
2041,2045,2041,2033,2018,2135,2055,2033
2044,2049,2041,2032,2006,2032,2059,2037
2048,2052,2039,2042,2016,2041,2076,2042
2058,2052,2045,2043,2027,2062,2080,2047
2056,2057,2039,2039,2028,2041,2088,2055
2056,2057,2040,2040,2032,2023,2084,2049
2055,2053,2043,2037,2037,2003,2070,2043
2047,2054,2038,2034,2030,1980,2056,2032
2042,2043,2033,2033,2046,1979,2032,2028
2037,2042,2034,2045,2062,2003,2027,2026
2042,2057,2056,2054,2064,2012,2036,2026
2050,2058,2052,2054,2044,1990,2033,2026
2044,2048,2046,2045,2033,1978,2038,2018
2038,2049,2045,2047,2037,1986,2041,2022
2035,2050,2048,2040,2030,2008,2046,2020
2038,2048,2051,2041,2021,2018,2045,2029
2037,2049,2048,2042,2017,2028,2049,2031
2038,2051,2053,2048,2028,2020,2038,2039
2043,2049,2053,2055,2037,2021,2040,2048
2053,2058,2055,2044,2035,2023,2054,2056
2050,2056,2054,2053,2041,2022,2047,2064
2057,2058,2047,2052,2045,2026,2054,2062
2048,2056,2047,2051,2052,2022,2048,2075
2052,2048,2042,2048,2052,2031,2052,2076
2048,2038,2036,2042,2038,2026,2028,2072
2036,2036,2035,2040,2041,2020,2037,2067
2040,2045,2047,2044,2049,2028,2057,2067
2045,2043,2043,2046,2057,2042,2053,2064
2041,2043,2040,2043,2057,2044,2055,2062
2032,2047,2037,2040,2047,2029,2051,2059
2034,2043,2036,2036,2033,2026,2036,2054
2042,2045,2032,2033,2033,2046,2042,2050
2043,2044,2034,2035,2040,2062,2048,2036
2043,2048,2042,2039,2040,2071,2050,2037
2039,2045,2036,2032,2026,2049,2038,2027
2041,2030,2028,2034,2022,2046,2032,2020
2044,2028,2024,2034,2029,2059,2029,2015
2041,2028,2028,2040,2040,2068,2054,2013
2034,2028,2029,2035,2048,2056,2043,2012
2033,2025,2033,2038,2043,2056,2054,2016
2029,2034,2029,2036,2046,2063,2066,2018
2029,2033,2036,2034,2043,2062,2071,2025
2037,2048,2045,2033,2031,2052,2062,2033
2040,2048,2042,2025,2004,2030,2051,2031
2034,2045,2034,2012,1988,2022,2052,2033
2044,2042,2036,2011,1997,2022,2039,2036
2040,2037,2037,2018,2001,2024,2036,2035
2045,2037,2039,2026,2001,2042,2050,2039
2039,2037,2043,2027,2017,2043,2050,2037
2039,2045,2048,2029,2026,2055,2044,2044
2046,2048,2055,2032,2028,2064,2050,2055
2047,2057,2055,2032,2026,2067,2047,2055
2048,2059,2056,2037,2035,2082,2060,2063
2049,2056,2052,2034,2038,2087,2032,2060
2053,2056,2062,2038,2050,2093,2058,2074
2046,2060,2067,2042,2051,2081,2047,2071
2037,2051,2062,2036,2048,2026,2048,2066
2032,2046,2060,2030,2048,1997,2034,2066
2033,2050,2059,2039,2045,2018,2057,2068
2039,2055,2056,2039,2041,2024,2038,2063
2035,2056,2050,2036,2035,2034,2054,2059
2039,2062,2052,2042,2034,2045,2060,2057
2049,2067,2064,2040,2038,2043,2043,2060
2052,2064,2064,2037,2038,2053,2045,2058
2055,2068,2065,2043,2044,2051,2038,2051
2053,2062,2068,2041,2052,2050,2030,2042
2053,2061,2062,2039,2049,2047,2033,2042
2049,2053,2059,2039,2041,2050,2014,2051
2040,2053,2054,2044,2048,2054,2045,2040
2044,2048,2050,2044,2058,2052,2010,2029
2037,2051,2050,2047,2049,2051,2016,2032
2044,2050,2054,2047,2049,2047,2025,2034
2046,2044,2048,2041,2045,2040,2027,2026
2042,2044,2040,2039,2043,2032,2019,2024
2039,2039,2040,2039,2052,2044,2034,2028
2043,2048,2044,2042,2053,2055,2033,2033
2041,2048,2038,2049,2053,2058,2051,2039
2041,2047,2034,2046,2059,2058,2045,2036
2041,2045,2028,2040,2052,2052,2029,2032
2043,2041,2020,2041,2052,2049,2022,2030
2043,2033,2013,2038,2057,2050,2028,2035
2037,2035,2011,2040,2059,2052,2040,2038
2037,2026,2013,2045,2064,2051,2050,2049
2034,2024,2010,2043,2051,2049,2056,2051
2036,2022,2005,2044,2053,2050,2054,2062
2039,2015,1997,2045,2043,2050,2051,2066
2030,2018,2000,2040,2035,2052,2055,2067
2033,2026,2008,2038,2029,2054,2052,2067
2030,2030,2006,2034,2020,2054,2033,2058
2021,2024,2005,2029,2013,2057,2022,2059
2027,2027,2018,2035,2019,2057,2047,2066
2036,2051,2039,2043,2028,2064,2058,2065
2048,2063,2058,2049,2046,2067,2054,2066
2054,2061,2065,2047,2050,2067,2058,2062
2051,2056,2062,2041,2045,2062,2042,2053
2052,2060,2069,2043,2038,2061,2043,2045
2057,2064,2075,2046,2038,2058,2051,2027
2051,2056,2064,2042,2053,2055,2034,2032
2046,2058,2066,2048,2085,2047,2019,2034
2045,2056,2071,2043,2088,2040,2020,2025
2044,2062,2072,2041,2069,2033,2014,2033
2046,2067,2083,2047,2057,2038,2020,2029
2049,2081,2093,2049,2037,2030,2041,2027
2057,2081,2100,2051,2029,2036,2035,2025
2052,2076,2092,2055,2041,2026,2033,2020
2049,2062,2082,2058,2051,2017,2043,2027
2053,2061,2072,2059,2045,2024,2037,2042
2062,2066,2069,2057,2105,2030,2036,2042
2059,2068,2075,2066,2162,2033,2041,2045
2057,2075,2078,2076,2187,2042,2056,2042
2061,2076,2072,2078,2185,2042,2053,2033
2066,2062,2071,2075,2174,2052,2056,2040
2057,2063,2075,2079,2160,2045,2043,2038
2046,2064,2075,2083,2157,2045,2058,2047
2048,2066,2075,2081,2165,2046,2057,2049
2047,2065,2073,2081,2120,2041,2043,2048
2039,2048,2057,2056,2015,2022,2029,2060
2041,2043,2050,2049,1972,2027,2029,2054
2044,2046,2049,2052,1935,2043,2026,2056
2041,2042,2034,2052,1950,2068,2044,2058
2041,2036,2026,2051,1964,2081,2032,2045
2030,2023,2017,2043,1993,2067,2041,2051
2027,2021,2010,2054,2022,2071,2036,2051
2034,2036,2008,2056,2027,2067,2016,2043
2034,2031,2006,2063,2037,2068,2053,2044
2033,2039,2001,2064,2044,2065,2038,2040
2035,2041,1999,2063,2043,2066,2024,2035
2038,2032,1999,2060,2041,2064,2025,2024
2041,2039,2000,2048,2036,2054,2010,2015
2041,2033,2000,2037,2028,2040,2043,2011
2031,2032,2010,2022,2034,2039,2043,2016
2037,2040,2020,2021,2029,2033,2028,2024
2047,2044,2031,2018,2027,2033,2037,2022
2053,2054,2052,2022,2035,2037,2041,2030
2054,2057,2062,2030,2041,2034,2043,2029
2054,2054,2065,2031,2040,2032,2039,2022
2050,2057,2081,2042,2046,2038,2037,2017
2034,2048,2096,2045,2051,2037,2017,2014
2040,2046,2094,2041,2046,2045,2017,2020
2048,2052,2087,2040,2054,2053,2039,2025
2052,2062,2092,2049,2058,2063,2058,2032
2060,2066,2100,2053,2067,2068,2060,2035
2058,2068,2092,2049,2057,2073,2070,2031
2058,2061,2080,2049,2065,2076,2074,2034
2059,2067,2075,2050,2066,2074,2059,2042
2056,2065,2067,2050,2062,2067,2065,2032
2047,2060,2063,2054,2059,2069,2054,2036
2036,2065,2051,2053,2067,2065,2055,2038
2040,2060,2051,2048,2053,2064,2056,2044
2042,2057,2049,2057,2058,2056,2036,2054
2041,2058,2058,2053,2053,2047,2034,2058
2036,2047,2063,2047,2052,2037,2040,2055
2035,2045,2069,2058,2056,2038,2035,2052
2024,2033,2069,2065,2047,2032,2036,2049
2019,2038,2059,2064,2057,2035,2056,2061
2032,2051,2066,2075,2067,2046,2052,2052
2032,2045,2062,2080,2061,2047,2060,2048
2034,2045,2058,2083,2061,2057,2057,2044
2036,2049,2053,2079,2068,2074,2033,2045
2040,2047,2053,2084,2070,2078,2062,2036
2042,2049,2059,2075,2068,2077,2063,2036
2043,2050,2058,2065,2062,2073,2052,2032
2039,2041,2046,2060,2059,2066,2060,2026
2039,2034,2044,2056,2051,2075,2068,2023
2040,2032,2042,2050,2055,2078,2054,2032
2047,2037,2036,2042,2061,2076,2056,2034
2046,2038,2027,2039,2056,2055,2064,2034
2054,2033,2028,2045,2056,2040,2085,2033
2045,2035,2027,2042,2056,2033,2071,2038
2047,2021,2022,2041,2054,2007,2063,2022
2043,2018,2005,2048,2049,2006,2060,2025
2040,2021,2004,2056,2064,2018,2050,2021
2043,2021,1991,2054,2051,2026,2047,2027
2041,2017,1972,2051,2046,2046,2043,2026
2042,2015,1950,2052,2055,2045,2045,2034
2039,2018,1939,2049,2062,2050,2054,2033
2043,2023,1961,2056,2070,2058,2056,2035
2045,2034,1981,2075,2081,2064,2061,2032
2041,2036,1998,2083,2093,2085,2071,2029
2039,2036,1991,2071,2099,2091,2062,2038
2032,2026,1979,2042,2075,2109,2069,2041
2028,2021,1961,2009,2068,2086,2058,2045
2034,2016,1955,1996,2055,2057,2049,2053
2030,2014,1972,2005,2054,2036,2037,2064
2036,2036,2011,2016,2052,2026,2038,2074
2052,2057,2046,2022,2049,1999,2029,2073
2052,2069,2068,2028,2044,1996,2022,2069
2056,2084,2088,2032,2049,1999,2065,2080
2064,2087,2095,2037,2044,2009,2059,2076
2061,2082,2096,2034,2046,2012,2033,2066
2070,2090,2113,2035,2042,2031,2038,2064
2069,2085,2105,2027,2040,2042,2040,2048
2061,2076,2104,2037,2045,2055,2034,2037
2055,2083,2112,2035,2050,2051,2045,2029
2055,2081,2112,2031,2055,2047,2054,2035
2054,2072,2096,2028,2041,2049,2044,2035
2050,2065,2079,2020,2023,2046,2049,2035
2047,2063,2084,2026,2023,2046,2040,2035
2052,2069,2083,2039,2029,2048,2031,2032
2051,2061,2082,2037,2039,2039,2039,2024
2047,2066,2084,2040,2049,2036,2041,2027
2053,2056,2077,2040,2064,2036,2040,2027
2045,2040,2055,2042,2060,2038,2050,2023
2038,2031,2044,2041,2063,2042,2054,2034
2040,2047,2044,2048,2063,2048,2058,2036
2044,2042,2036,2038,2058,2050,2061,2039
2038,2039,2033,2039,2057,2048,2063,2034
2041,2044,2039,2044,2052,2056,2059,2038
2050,2049,2028,2040,2047,2067,2055,2046
2050,2053,2026,2041,2046,2078,2048,2056
2054,2068,2025,2045,2053,2092,2061,2062
2053,2071,2028,2047,2050,2125,2074,2058
2056,2063,2023,2037,2048,2140,2064,2063
2055,2066,2021,2052,2056,2128,2063,2065
2052,2053,2014,2053,2050,2025,2055,2070
2050,2046,2012,2052,2040,1968,2054,2074
2045,2048,2008,2049,2028,2008,2052,2081
2048,2044,2018,2052,2031,2039,2034,2083
2037,2039,2024,2052,2030,2045,2047,2068
2032,2041,2037,2053,2032,2043,2044,2068
2042,2057,2067,2058,2034,2042,2039,2070
2049,2066,2085,2067,2035,2049,2026,2074
2060,2072,2097,2076,2048,2041,2037,2063
2062,2073,2099,2073,2040,2024,2033,2059
2060,2074,2106,2078,2041,2025,2041,2049
2061,2058,2108,2074,2046,2049,2048,2046
2054,2063,2096,2077,2054,2067,2059,2045
2056,2061,2087,2095,2055,2062,2044,2034
2055,2070,2114,2104,2054,2054,2053,2037
2052,2063,2112,2114,2062,2056,2048,2035
2051,2068,2114,2112,2067,2059,2050,2027
2056,2066,2096,2111,2073,2055,2059,2035
2056,2061,2100,2110,2074,2044,2039,2029
2060,2065,2094,2117,2077,2026,2042,2026
2059,2067,2088,2122,2070,2020,2010,2014
2050,2049,2071,2116,2065,2020,2049,2014
2052,2048,2055,2120,2079,2030,2059,2025
2056,2058,2055,2116,2084,2035,2057,2028
2053,2051,2046,2093,2070,2035,2048,2026
2054,2051,2034,2087,2074,2035,2053,2033
2051,2047,2031,2082,2067,2034,2065,2028
2042,2055,2049,2068,2063,2031,2059,2038
2049,2043,2056,2046,2044,2020,2051,2037
2036,2037,2055,2030,2026,2019,2042,2037
2032,2031,2049,2021,2019,2026,2033,2043
2032,2025,2054,2024,2026,2042,2033,2048
2040,2029,2047,2031,2043,2068,2055,2063
2041,2049,2061,2053,2055,2078,2056,2072
2053,2068,2077,2068,2062,2081,2053,2084
2060,2074,2087,2074,2061,2094,2057,2088
2054,2078,2083,2071,2062,2102,2071,2073
2048,2067,2067,2055,2056,2105,2069,2068
2044,2051,2036,2042,2052,2108,2076,2074
2047,2056,2033,2043,2045,2110,2073,2067
2048,2055,2026,2044,2044,2095,2058,2061
2051,2050,2021,2046,2038,2042,2048,2062
2054,2051,2025,2045,2025,1997,2051,2058
2043,2055,2031,2047,2021,2003,2046,2053
2041,2045,2027,2030,2015,2021,2045,2042
2036,2046,2015,2018,2025,2037,2047,2034
2037,2036,2007,2017,2032,2046,2037,2023
2037,2036,2007,2026,2040,2052,2056,2019
2042,2050,2037,2049,2059,2065,2059,2025
2048,2058,2048,2062,2068,2066,2042,2028
2051,2065,2051,2079,2083,2062,2047,2028
2058,2068,2051,2092,2096,2056,2046,2029
2055,2066,2059,2090,2081,2061,2050,2024
2050,2057,2050,2084,2073,2057,2032,2021
2043,2044,2042,2075,2065,2049,2038,2017
2052,2042,2044,2075,2067,2055,2046,2038
2057,2045,2042,2074,2065,2053,2051,2032
2055,2039,2036,2068,2065,2054,2054,2025
2041,2040,2036,2071,2061,2053,2054,2035
2043,2054,2045,2064,2052,2048,2056,2040
2048,2060,2051,2059,2043,2044,2055,2047
2049,2056,2049,2045,2038,2036,2050,2041
2044,2056,2053,2039,2025,2041,2045,2036
2041,2051,2047,2035,2028,2039,2052,2049
2043,2051,2048,2035,2014,2042,2050,2051
2040,2050,2053,2025,2011,2039,2048,2054
2034,2041,2062,2020,2012,2031,2042,2060
2031,2043,2064,2017,2002,2029,2013,2048
2032,2041,2081,2019,2009,2025,2026,2060
2041,2048,2083,2033,2020,2036,2032,2065
2034,2046,2082,2036,2017,2029,2036,2060
2040,2045,2072,2043,2021,2036,2028,2060
2041,2056,2069,2057,2047,2062,2036,2066
2046,2058,2068,2059,2063,2064,2069,2066
2045,2055,2052,2055,2063,2065,2045,2062
2041,2043,2039,2058,2055,2065,2063,2058
2036,2037,2032,2056,2050,2064,2049,2044
2042,2043,2022,2063,2054,2058,2064,2039
2042,2038,2018,2068,2047,2061,2061,2036
2040,2041,2013,2075,2054,2056,2053,2032
2041,2033,1995,2068,2045,2065,2060,2026
2044,2033,1980,2067,2045,2063,2028,2032
2044,2029,1963,2066,2043,2070,2057,2027
2044,2029,1953,2060,2049,2061,2063,2023
2044,2027,1944,2045,2042,2055,2064,2025
2042,2030,1943,2044,2042,2060,2065,2021
2045,2037,1955,2034,2032,2049,2041,2012
2036,2029,1958,2014,2036,2039,2031,2009
2028,2027,1972,1995,2032,2035,2035,2011
2035,2036,1996,1983,2034,2041,2043,2015
2038,2036,2032,1976,2029,2041,2036,2022
2048,2049,2072,1991,2026,2038,2035,2028
2049,2052,2110,2004,2036,2039,2030,2033
2049,2061,2126,2004,2040,2042,2051,2037
2054,2072,2136,2024,2051,2055,2059,2041
2061,2083,2150,2040,2049,2059,2046,2044
2057,2081,2134,2041,2044,2056,2015,2045
2057,2068,2121,2040,2029,2056,2046,2055
2052,2064,2108,2033,2015,2053,2031,2056
2053,2068,2095,2037,2012,2041,2055,2068
2052,2067,2094,2042,2013,2038,2054,2070
2054,2070,2098,2059,2004,2032,2052,2066
2057,2074,2098,2059,2001,2038,2051,2061
2052,2077,2097,2056,2008,2057,2044,2063
2046,2059,2075,2048,2011,2069,2046,2053
2044,2048,2065,2049,2022,2069,2042,2056
2053,2061,2067,2050,2002,2057,2022,2048
2049,2059,2061,2039,1995,2033,2019,2045
2044,2065,2061,2037,1984,1999,2008,2053
2044,2068,2072,2050,1972,1975,2022,2053
2045,2067,2071,2046,1982,1977,2030,2032
2050,2060,2065,2045,2007,1996,2037,2025
2042,2057,2057,2051,2026,2014,2028,2024
2039,2055,2056,2047,2031,2036,2045,2022
2042,2055,2068,2054,2051,2057,2060,2032
2049,2069,2086,2082,2085,2076,2070,2033
2061,2072,2090,2092,2098,2078,2055,2038
2053,2067,2093,2102,2093,2086,2073,2032
2051,2061,2087,2102,2095,2080,2062,2031
2057,2063,2081,2099,2084,2072,2054,2027
2050,2052,2071,2111,2117,2053,2040,2024
2053,2053,2066,2133,2154,2048,2030,2030
2059,2065,2070,2152,2171,2057,2041,2036
2062,2068,2067,2150,2187,2065,2039,2034
2051,2060,2056,2143,2184,2066,2040,2038
2058,2056,2050,2133,2157,2065,2033,2036
2055,2058,2041,2123,2133,2084,2061,2026
2046,2048,2038,2108,2082,2111,2043,2014
2044,2055,2049,2120,2041,2132,2055,2019
2051,2061,2055,2134,2021,2116,2043,2022
2039,2055,2038,2101,1897,2081,2031,2029
2038,2044,2023,2067,1832,2007,2033,2041
2035,2052,2016,2057,1833,1931,2027,2059
2047,2058,2017,2069,1971,1948,2037,2071
2058,2071,2030,2078,2066,2015,2052,2074
2062,2066,2041,2067,2098,2069,2054,2079
2062,2058,2038,2043,2131,2106,2081,2085
2065,2049,2026,2032,2119,2116,2076,2083
2066,2044,2013,2018,2079,2115,2076,2075
2063,2044,2024,2036,2048,2106,2066,2073
2049,2039,2024,2040,2027,2097,2049,2063
2045,2038,2021,2034,1990,2078,2027,2050
2032,2026,2016,2026,1960,2052,2026,2027
2024,2023,2016,2026,1934,2000,2009,2036
2034,2034,2034,2009,1938,1983,2024,2042
2048,2053,2044,2006,1987,2018,2036,2043
2049,2060,2060,1994,2030,2037,2029,2030
2046,2049,2050,1954,2055,2033,2014,2033
2038,2033,2026,1937,2054,2025,2004,2028
2028,2032,2025,1957,2070,2033,2008,2042
2046,2036,2026,1986,2094,2037,2010,2040
2054,2045,2032,2000,2073,2032,2018,2039
2061,2056,2038,1996,2032,2036,2042,2044
2066,2064,2056,2006,2032,2049,2066,2038
2057,2057,2061,2017,2036,2070,2034,2024
2055,2055,2067,2014,2022,2073,2045,2026
2055,2050,2070,2013,1985,2054,2040,2025
2046,2046,2076,2008,1943,2027,2030,2027
2042,2045,2075,2007,1941,2011,2019,2034
2045,2054,2074,2014,1968,1986,2011,2041
2048,2058,2076,2017,2003,2013,2025,2051
2050,2069,2088,2052,2090,2051,2056,2064
2062,2082,2101,2081,2158,2079,2063,2060
2067,2077,2093,2082,2154,2088,2069,2069
2059,2066,2078,2069,2145,2102,2068,2062
2046,2056,2062,2059,2150,2106,2071,2062
2046,2051,2056,2058,2148,2094,2063,2067
2052,2042,2048,2039,2093,2068,2055,2070
2050,2044,2052,2042,2125,2066,2042,2071
2049,2053,2056,2051,2151,2061,2041,2073
2045,2048,2056,2066,2150,2036,2007,2070
2043,2044,2047,2066,2104,2039,2021,2060
2041,2046,2046,2048,2040,2042,2038,2071
2057,2050,2050,2043,1991,2031,2036,2071
2056,2057,2049,2034,1974,2028,2035,2072
2056,2054,2052,2031,1974,2045,2032,2061
2056,2049,2051,2027,2042,2052,2040,2053
2058,2049,2047,2031,2035,2057,2019,2051
2053,2052,2047,2024,2044,2063,2033,2046
2051,2042,2040,2017,2057,2067,2033,2035
2056,2049,2048,2026,2064,2083,2033,2051
2072,2050,2045,2042,2081,2097,2059,2051
2063,2049,2042,2045,2062,2095,2038,2038
2056,2040,2039,2038,2029,2089,2037,2017
2051,2042,2039,2024,2020,2086,2013,2011
2041,2041,2034,2011,1982,2080,2029,2013
2047,2053,2040,2003,1860,2052,2009,2007
2038,2045,2037,1985,1786,1987,1997,2021
2041,2050,2045,2007,1822,1946,2010,2034
2054,2063,2066,2020,1808,1962,2033,2053
2062,2063,2065,2025,1864,1993,2047,2061
2075,2060,2064,2032,2017,2046,2062,2059
2067,2063,2055,2048,2156,2089,2055,2055
2063,2052,2047,2049,2201,2090,2059,2043
2062,2051,2041,2060,2217,2084,2043,2040
2059,2054,2055,2085,2280,2106,2059,2040
2066,2054,2072,2098,2291,2109,2057,2042
2056,2053,2072,2090,2257,2105,2069,2062
2057,2055,2078,2081,2210,2123,2080,2054
2046,2052,2068,2066,2144,2145,2065,2047
2043,2048,2070,2048,2098,2143,2070,2064
2046,2052,2072,2056,2083,2146,2078,2084
2046,2067,2085,2064,2033,2086,2053,2085
2046,2072,2086,2043,1941,2000,2025,2084
2042,2058,2070,2014,1880,1914,2017,2086
2050,2062,2069,2044,1916,1924,2024,2095
2063,2069,2074,2079,1997,1959,2050,2091
2065,2067,2072,2096,2075,2026,2041,2080
2061,2057,2051,2078,2085,2046,2034,2059
2046,2030,2010,2010,1972,2009,2019,2042
2035,2016,1994,1962,1919,1988,1996,2045
2044,2022,2006,1988,2045,2004,2007,2049
2057,2044,2031,2043,2141,2041,2025,2054
2065,2053,2047,2079,2184,2071,2034,2053
2065,2065,2046,2094,2177,2077,2067,2056
2068,2062,2042,2078,2131,2066,2056,2051
2064,2062,2043,2068,2128,2062,2054,2048
2062,2053,2037,2052,2094,2035,2054,2040
2055,2039,2035,2016,1956,2019,2049,2045
2051,2038,2030,1983,1854,2013,2061,2046
2043,2034,2028,1961,1763,1979,2040,2037
2025,2017,2012,1947,1756,1949,2031,2023
2018,2017,2009,1997,1959,2002,2036,2023
2039,2036,2036,2038,2042,2079,2051,2015
2043,2049,2052,2041,1989,2113,2040,2020
2054,2054,2059,2046,2006,2137,2036,2026
2053,2050,2050,2031,2008,2118,2020,2027
2046,2039,2037,2015,2005,2073,2014,2028
2040,2040,2043,2030,2044,2019,2030,2036
2048,2050,2061,2070,2212,2028,2026,2043
2058,2054,2062,2087,2310,2076,2049,2058
2051,2050,2047,2080,2256,2118,2049,2063
2047,2045,2057,2091,2288,2172,2062,2066
2050,2050,2060,2101,2280,2178,2067,2073
2043,2044,2058,2089,2216,2153,2073,2074
2038,2034,2043,2043,2013,2114,2062,2070
2027,2027,2038,2033,2012,2087,2044,2070
2027,2024,2030,2029,2041,2046,2032,2064
2019,2017,2029,2014,1988,2029,2051,2063
2028,2028,2036,2027,2028,2044,2072,2076
2048,2042,2043,2045,2030,2062,2047,2088
2064,2052,2049,2050,1960,2068,2085,2088
2069,2048,2046,2041,1941,2067,2072,2077
2066,2045,2044,2024,1867,2029,2056,2078
2069,2053,2054,2029,1875,2001,2054,2077
2070,2065,2063,2030,1929,2024,2054,2069
2072,2070,2068,2029,1964,2036,2060,2071
2079,2077,2074,2040,2008,2047,2061,2072
2074,2071,2068,2027,1964,2024,2065,2063
2057,2057,2058,1992,1872,1985,2041,2047
2043,2049,2039,1966,1796,1933,2030,2035
2046,2043,2029,2001,1968,1933,2019,2020
2038,2036,2030,2049,2184,1980,2021,2020
2044,2033,2037,2123,2339,2063,2032,2024
2039,2025,2031,2152,2314,2115,2040,2031
2035,2012,2019,2140,2252,2146,2030,2025
2041,2025,2025,2090,2132,2110,2033,2030
2034,2024,2025,2041,1949,2061,2025,2028
2029,2022,2030,2018,1882,2054,2021,2034
2038,2042,2042,2015,1846,2039,2008,2037
2044,2049,2049,2045,1978,2023,2045,2060
2060,2056,2062,2092,2128,2057,2059,2067
2062,2068,2076,2128,2229,2088,2067,2061
2055,2064,2070,2119,2194,2087,2056,2063
2045,2056,2065,2073,2034,2056,2040,2071
2042,2056,2069,2089,2138,2040,2035,2074
2042,2048,2076,2105,2181,2029,2051,2081
2042,2060,2076,2081,2093,2034,2029,2092
2049,2053,2067,2052,2002,2053,2052,2086
2041,2044,2060,2014,1797,2051,2045,2082
2033,2030,2036,1968,1751,2044,2040,2069
2029,2013,2019,1979,2029,2064,2051,2072
2029,2014,2033,2071,2412,2129,2070,2079
2038,2027,2046,2120,2528,2136,2069,2074
2042,2022,2043,2102,2512,2105,2045,2056
2048,2031,2044,2115,2442,2069,2024,2056
2054,2035,2049,2121,2223,2064,2037,2064
2059,2047,2067,2149,2270,2073,2043,2076
2072,2060,2072,2132,2196,2042,2032,2066
2068,2052,2055,2047,1883,1976,1995,2051
2057,2030,2038,1982,1746,1940,1980,2036
2046,2029,2030,1962,1767,1960,1974,2024
2035,2026,2027,1958,1785,1963,1958,2012
2036,2033,2028,1977,1901,1967,1977,2015
2026,2028,2042,2008,1967,1984,1980,2019
2027,2049,2052,2019,1948,1961,1992,2015
2032,2051,2054,2024,1998,1955,1997,2027
2031,2037,2036,2017,2107,1974,2017,2025
2039,2028,2030,2012,2064,1995,2032,2028
2041,2040,2040,2021,2013,2042,2058,2032
2041,2036,2035,2016,1958,2057,2077,2037
2048,2039,2042,2044,1976,2074,2076,2031
2042,2040,2045,2061,2002,2060,2054,2032
2044,2047,2052,2063,2025,2046,2054,2030
2044,2048,2051,2068,2001,2042,2042,2040
2049,2049,2045,2069,1882,2055,2070,2055
2052,2053,2045,2067,1905,2095,2063,2072
2064,2066,2058,2099,2015,2148,2095,2088
2082,2078,2075,2122,2170,2184,2107,2096
2074,2079,2087,2148,2337,2210,2108,2111
2070,2082,2087,2157,2294,2206,2118,2118
2076,2071,2083,2158,2292,2212,2124,2109
2074,2067,2084,2147,2272,2227,2123,2120
2064,2064,2065,2084,2120,2155,2097,2104
2045,2035,2032,1991,1943,2037,2058,2084
2028,2027,2021,1927,1876,1955,2039,2078
2029,2025,2009,1896,1814,1927,2023,2064
2018,2008,2000,1960,1934,1969,2011,2052
2020,2008,2018,2041,2080,2021,2032,2034
2022,2016,2040,2091,2176,2052,2022,2025
2035,2032,2056,2044,2018,2042,2019,2028
2049,2035,2046,1975,1839,1999,2022,2039
2053,2037,2048,1967,1739,1998,2034,2052
2070,2058,2070,2026,1815,2058,2048,2064
2074,2068,2088,2062,1915,2112,2059,2058
2070,2070,2081,2062,2099,2155,2060,2037
2056,2057,2070,2058,2233,2193,2075,2034
2053,2053,2060,2041,2217,2185,2057,2054
2061,2053,2055,2037,2186,2123,2064,2054
2060,2052,2050,2078,2262,2008,2033,2043
2052,2043,2043,2115,2290,1941,2034,2031
2049,2037,2047,2117,2165,1956,2030,2026
2047,2042,2041,2058,1904,2001,2028,2018
2040,2036,2028,1965,1568,2000,1994,2005
2028,2029,2020,1968,1693,2023,2015,2008
2035,2030,2021,1995,1827,2041,2028,2016
2036,2031,2032,2016,1948,2025,2038,2027
2041,2032,2037,2039,2048,2000,2029,2045
2043,2030,2041,2087,2173,2024,2024,2045
2042,2038,2045,2099,2208,2028,2019,2057
2045,2039,2045,2089,2172,2029,2013,2071
2049,2043,2042,2078,2156,2036,2046,2070
2056,2048,2044,2073,2176,2052,2031,2065
2061,2049,2048,2065,2183,2062,2023,2067
2050,2051,2046,2059,2162,2064,2043,2076
2045,2051,2058,2073,2227,2082,2048,2080
2040,2054,2060,2093,2338,2094,2018,2067
2028,2042,2058,2096,2381,2092,2024,2055
2021,2033,2047,2081,2356,2041,2028,2053
2032,2037,2044,2069,2272,1966,2018,2049
2036,2042,2044,2050,2194,1933,2016,2049
2039,2039,2047,2065,2116,1959,2023,2065
2054,2050,2051,2082,2123,1991,2041,2064
2057,2051,2053,2068,1977,1981,2048,2058
2057,2045,2051,2059,1950,1983,2039,2054
2056,2050,2058,2058,1939,2010,2047,2048
2051,2052,2048,2018,1876,2064,2039,2034
2044,2046,2046,1988,1788,2098,2033,2019
2039,2047,2044,2005,1826,2102,2051,2023
2046,2051,2043,2038,1982,2038,2027,2009
2040,2039,2044,2042,2005,1937,1999,2013
2043,2033,2054,2040,1930,1947,2008,2011
2047,2035,2060,2059,1947,2013,2050,2009
2045,2033,2062,2090,2134,2079,2058,2009
2040,2029,2066,2109,2163,2090,2063,2016
2041,2035,2073,2120,2130,2092,2061,2026
2040,2043,2072,2125,2088,2093,2064,2028
2040,2047,2061,2119,2083,2098,2040,2028
2042,2050,2063,2116,2108,2103,2041,2032
2044,2050,2053,2087,2040,2092,2043,2026
2041,2040,2038,2039,1830,2042,2032,2016
2030,2027,2009,2012,1713,2001,2014,2008
2025,2024,2010,2016,1800,2006,2020,2016
2024,2017,2008,2024,1921,2005,2020,2024
2024,2020,2012,2036,2035,1997,2033,2033
2026,2023,2020,2056,2130,2009,2053,2053
2042,2027,2026,2056,2144,2019,2078,2068
2049,2035,2029,2038,2115,2039,2077,2072
2033,2034,2024,2010,2044,2041,2077,2072
2031,2031,2014,1971,1934,2023,2053,2069
2036,2018,2019,1963,1874,2010,2056,2078
2040,2037,2032,1983,1871,2043,2087,2105
2065,2061,2062,2040,1955,2093,2096,2113
2072,2065,2064,2064,2010,2135,2111,2108
2075,2066,2065,2090,2126,2182,2090,2104
2080,2081,2074,2113,2214,2210,2104,2099
2080,2086,2083,2104,2238,2210,2075,2074
2071,2077,2081,2088,2241,2165,2049,2047
2056,2069,2067,2046,2122,2056,2009,2018
2037,2042,2040,1966,1817,1929,1964,1988
2011,2000,1996,1875,1617,1803,1934,1968
1992,1983,1981,1908,1728,1812,1934,1961
1999,2000,2009,2020,2118,1900,1984,1976
2026,2025,2052,2110,2305,2005,2017,1997
2038,2047,2064,2103,2253,2064,2047,2006
2052,2046,2065,2093,2207,2087,2040,2008
2045,2035,2051,2083,2214,2091,2035,2017
2044,2025,2042,2065,2176,2089,2036,2025
2048,2039,2053,2080,2192,2107,2049,2031
2058,2053,2069,2099,2292,2131,2055,2033
2065,2063,2074,2120,2360,2136,2030,2029
2059,2053,2071,2115,2370,2136,2048,2026
2060,2059,2071,2114,2356,2129,2051,2033
2054,2057,2065,2093,2311,2096,2037,2035
2045,2043,2052,2050,2108,2033,2024,2028
2039,2033,2040,2023,1983,1987,2013,2027
2030,2031,2037,2015,1860,1931,2014,2034
2032,2021,2032,2017,1763,1907,2000,2034
2040,2024,2036,2024,1800,1947,2009,2042
2044,2027,2040,2056,1970,1988,2010,2056
2046,2039,2045,2059,2010,2005,2020,2059
2050,2034,2048,2046,1999,2006,2023,2052
2045,2038,2045,2044,2006,1992,2036,2049
2038,2027,2034,2051,2061,1991,2022,2045
2038,2027,2036,2054,2070,2007,2017,2050
2036,2032,2033,2041,2069,2034,2034,2053
2038,2034,2040,2065,2118,2073,2054,2054
2052,2046,2055,2092,2147,2097,2066,2053
2047,2043,2054,2090,2136,2107,2044,2039
2040,2041,2045,2073,2117,2110,2047,2025
2038,2033,2041,2032,1918,2098,2036,2022
2036,2032,2035,2025,1901,2094,2027,2028
2042,2043,2044,2042,1968,2099,2036,2017
2042,2046,2044,2050,1993,2093,2023,2018
2040,2043,2041,2050,2015,2088,2028,2010
2038,2040,2039,2051,2054,2075,2040,2012
2042,2040,2040,2056,2082,2053,2039,2016
2045,2038,2037,2059,2075,1987,2043,2020
2047,2041,2040,2057,2054,1944,2012,2012
2041,2034,2038,2052,2040,1954,2002,2011
2037,2034,2041,2054,2029,1994,2022,2023
2049,2047,2053,2068,2037,2030,2038,2028
2050,2046,2052,2068,2039,2037,2033,2027
2044,2044,2045,2064,2039,2021,2020,2026
2043,2040,2042,2061,2037,2023,2024,2028
2044,2042,2048,2059,2037,2024,2035,2033
2044,2043,2053,2060,2039,2034,2049,2039
2052,2042,2044,2054,2032,2038,2049,2052
2058,2032,2040,2053,2036,2049,2050,2067
2060,2028,2028,2053,2046,2061,2069,2075
2061,2017,2024,2060,2061,2077,2091,2076
2060,2019,2018,2063,2048,2062,2092,2071
2054,2026,2012,2067,2011,2026,2060,2063
2045,2030,2015,2066,2006,2011,2058,2052
2043,2029,2011,2062,2009,2006,2045,2047
2045,2021,1995,2059,2021,1991,2014,2039
2024,2021,1999,2052,2022,1997,2030,2035
2021,2024,2013,2057,2042,2022,2029,2041
2027,2036,2015,2066,2091,2043,2011,2044
2038,2039,2017,2065,2113,2057,2046,2047
2041,2046,2030,2067,2101,2051,2053,2054
2056,2055,2037,2070,2064,2021,2048,2064
2053,2053,2038,2068,2053,2037,2053,2057
2060,2054,2040,2070,2057,2084,2072,2038
2043,2042,2032,2061,2043,2115,2075,2028
2040,2042,2035,2055,2028,2122,2087,2025
2051,2046,2055,2056,2029,2111,2090,2029
2055,2051,2067,2054,2015,2085,2085,2028
2045,2042,2083,2057,2015,2056,2049,2029
2052,2058,2104,2075,2057,2062,2073,2044
2063,2072,2122,2101,2104,2106,2071,2039
2068,2085,2121,2107,2136,2129,2053,2024
2059,2078,2107,2108,2131,2153,2030,2012
2055,2069,2094,2102,2131,2157,2026,2030
2056,2076,2093,2112,2125,2167,2040,2037
2058,2068,2086,2106,2124,2138,2076,2034
2059,2059,2078,2096,2091,2083,2074,2035
2053,2054,2075,2093,2062,2049,2049,2040
2041,2056,2069,2099,2080,2038,2066,2032
2044,2065,2068,2090,2082,2038,2084,2048
2052,2064,2062,2074,2049,2034,2077,2057
2049,2064,2050,2062,1988,2033,2084,2061
2054,2063,2049,2052,1902,2030,2092,2068
2056,2072,2062,2061,1921,2051,2086,2073
2059,2078,2066,2064,1989,2074,2064,2075
2060,2064,2052,2050,2003,2090,2063,2072
2053,2060,2039,2026,1950,2050,2059,2067
2043,2054,2028,1997,1870,2009,2066,2056
2040,2034,2016,1983,1911,2013,2053,2055
2033,2038,2020,1995,1997,1990,2037,2057
2052,2061,2046,2046,2088,1973,2040,2058
2056,2064,2056,2101,2139,1983,2036,2051
2059,2063,2063,2109,2162,2000,2028,2051
2060,2066,2061,2094,2148,2033,2048,2057
2061,2066,2055,2077,2115,2031,2061,2050
2061,2061,2050,2075,2073,2036,2052,2040
2056,2064,2052,2074,2058,2041,2044,2019
2051,2062,2046,2058,2079,2029,2025,2012
2040,2054,2043,2042,2082,2008,2017,2008
2040,2049,2047,2055,2114,2032,2037,2010
2039,2053,2059,2066,2105,2034,2051,2012
2041,2054,2065,2060,2082,2038,2050,2023
2053,2055,2059,2064,2080,2041,2064,2026
2059,2053,2070,2073,2093,2055,2069,2025
2059,2050,2056,2076,2106,2057,2058,2007
2054,2043,2054,2085,2109,2050,2025,2007
2054,2052,2047,2087,2112,2076,2063,2011
2047,2052,2039,2080,2095,2077,2040,2015
2048,2043,2035,2081,2093,2056,2015,2011
2049,2042,2025,2073,2095,2046,2020,2015
2047,2037,2014,2066,2099,2063,2027,2026
2044,2036,2004,2063,2100,2062,2030,2029
2041,2025,2004,2077,2100,2069,2047,2025
2041,2024,2031,2091,2080,2068,2036,2037
2043,2018,2053,2110,2074,2072,2044,2041
2040,2020,2057,2100,2048,2088,2063,2041
2038,2019,2041,2093,2037,2115,2046,2038
2029,2016,2033,2082,2052,2130,2046,2036
2035,2023,2031,2095,2074,2103,2042,2041
2035,2033,2027,2104,2086,1990,2033,2045
2030,2021,1998,2087,2061,1958,2023,2039
2027,2018,1985,2086,2067,1995,2012,2040
2037,2031,1990,2084,2068,2023,2031,2043
2039,2039,2002,2090,2062,2034,2045,2036
2041,2046,2020,2093,2060,2033,2030,2024
2036,2056,2034,2085,2057,2041,2012,2040
2040,2056,2042,2080,2055,2038,2036,2042
2038,2050,2034,2051,2045,2028,2047,2034
2039,2036,2020,2024,2036,2028,2049,2029
2036,2045,2018,2004,2040,2039,2049,2030
2038,2051,2032,1984,2048,2051,2057,2028
2046,2060,2041,1977,2054,2052,2064,2021
2055,2072,2052,1972,2062,2060,2061,2028
2063,2078,2062,1985,2076,2074,2077,2026
2073,2083,2074,2011,2073,2078,2077,2028
2073,2089,2098,2033,2073,2076,2080,2030
2058,2080,2091,2037,2070,2066,2076,2022
2052,2070,2081,2039,2072,2064,2057,2024
2054,2068,2084,2054,2072,2067,2083,2022
2056,2071,2077,2054,2078,2053,2066,2022
2053,2065,2077,2054,2084,2031,2068,2015
2054,2068,2072,2055,2080,2022,2073,2023
2052,2069,2071,2066,2077,2011,2082,2035
2056,2064,2065,2062,2074,2010,2064,2035
2060,2067,2065,2056,2079,2005,2059,2040
2057,2060,2064,2057,2076,2009,2041,2041
2052,2056,2065,2057,2072,2010,2048,2046
2049,2056,2053,2056,2060,2021,2039,2043
2043,2058,2042,2055,2065,2036,2010,2047
2036,2059,2030,2047,2056,2062,2027,2054
2041,2051,2024,2044,2058,2072,2049,2052
2034,2042,2024,2041,2052,2070,2040,2045
2034,2038,2021,2049,2056,2082,2043,2048
2034,2038,2024,2058,2069,2080,2039,2052
2041,2053,2043,2071,2077,2072,2055,2050
2051,2063,2054,2070,2071,2043,2047,2050
2052,2068,2054,2059,2059,2028,2040,2047
2042,2066,2061,2059,2058,2043,2047,2043
2048,2066,2062,2061,2067,2060,2039,2028
2045,2063,2051,2052,2057,2047,2039,2024
2045,2063,2059,2053,2062,2046,2039,2027
2050,2062,2064,2055,2072,2051,2053,2024
2050,2061,2070,2055,2062,2043,2039,2020
2047,2062,2072,2063,2072,2048,2046,2020
2048,2064,2071,2069,2078,2064,2047,2022
2048,2056,2069,2065,2079,2068,2027,2015
2045,2058,2064,2071,2078,2083,2046,2008
2040,2054,2068,2072,2075,2095,2018,2007
2031,2048,2051,2060,2064,2111,2021,2000
2029,2045,2047,2054,2053,2148,2048,2010
2039,2052,2062,2056,2066,2180,2048,2019
2040,2057,2065,2066,2069,2153,2056,2023
2050,2063,2066,2071,2071,2044,2028,2032
2061,2074,2074,2072,2075,1992,2056,2047
2064,2074,2067,2076,2077,1991,2080,2052
2071,2071,2058,2072,2079,2005,2055,2047
2065,2072,2057,2076,2072,2021,2055,2041
2055,2056,2045,2072,2073,2030,2042,2043
2045,2056,2046,2073,2078,2036,2048,2045
2043,2056,2048,2078,2079,2042,2048,2050
2054,2058,2051,2081,2076,2038,2045,2059
2055,2051,2050,2080,2079,2044,2028,2055
2054,2051,2045,2079,2078,2052,2051,2057
2046,2045,2039,2068,2075,2065,2037,2055
2036,2035,2022,2062,2065,2059,2036,2049
2032,2028,2021,2059,2067,2066,2056,2057
2040,2042,2028,2068,2074,2071,2053,2060
2045,2047,2031,2071,2073,2077,2080,2060
2054,2051,2031,2075,2073,2081,2079,2067
2056,2059,2035,2067,2075,2074,2068,2058
2049,2054,2032,2059,2063,2069,2064,2052
2046,2047,2031,2053,2052,2051,2056,2038
2041,2045,2036,2042,2048,2052,2051,2028
2042,2041,2033,2041,2047,2058,2052,2025
2046,2043,2039,2036,2050,2053,2047,2021
2049,2045,2045,2035,2044,2041,2051,2025
2040,2051,2051,2034,2047,2039,2022,2023
2047,2048,2050,2032,2042,2035,2038,2025
2049,2054,2056,2038,2050,2026,2038,2029
2039,2060,2050,2041,2048,2025,2028,2016
2030,2050,2047,2039,2043,2026,2029,2013
2036,2055,2054,2043,2060,2025,2046,2018
2047,2069,2072,2053,2065,2022,2048,2028
2046,2083,2081,2059,2068,2012,2044,2027
2055,2080,2079,2059,2069,2008,2038,2031
2054,2076,2077,2060,2073,2015,2023,2038
2050,2071,2067,2058,2071,2020,2030,2043
2052,2062,2059,2058,2069,2033,2050,2045
2053,2062,2058,2065,2080,2045,2024,2047
2046,2063,2059,2069,2089,2046,2023,2053
2050,2066,2053,2067,2080,2037,2044,2064
2048,2056,2057,2064,2083,2070,2030,2062
2052,2056,2050,2058,2076,2089,2026,2064
2044,2055,2050,2055,2067,2117,2038,2071
2041,2057,2043,2053,2054,2093,2041,2079
2043,2057,2054,2051,2056,2064,2038,2082
2038,2052,2042,2053,2047,2039,2028,2087
2041,2050,2038,2051,2048,2035,2039,2081
2048,2057,2051,2057,2058,2041,2043,2077
2043,2058,2051,2067,2064,2058,2059,2081
2052,2059,2052,2063,2064,2068,2042,2070
2049,2055,2054,2062,2053,2074,2053,2066
2052,2065,2052,2058,2049,2074,2053,2062
2050,2062,2052,2050,2041,2035,2060,2057
2054,2059,2047,2044,2028,2015,2049,2039
2043,2055,2042,2045,2028,2024,2040,2027
2039,2057,2044,2049,2039,2038,2034,2039
2043,2055,2042,2054,2058,2057,2059,2034
2039,2056,2039,2058,2067,2065,2047,2028
2038,2057,2037,2063,2064,2057,2054,2033
2038,2048,2042,2055,2075,2040,2064,2030
2039,2047,2047,2057,2070,2040,2058,2033
2035,2048,2034,2053,2062,2024,2042,2030
2029,2042,2034,2050,2064,2024,2045,2038
2041,2053,2044,2062,2073,2030,2057,2048
2042,2048,2046,2057,2074,2030,2058,2047
2048,2052,2041,2063,2068,2034,2054,2057
2049,2055,2040,2070,2071,2044,2054,2054
2054,2053,2048,2069,2078,2027,2037,2056
2047,2052,2046,2078,2076,2032,2038,2048
2038,2048,2044,2078,2081,2042,2035,2042
2035,2044,2042,2069,2070,2068,2040,2046
2027,2037,2029,2064,2056,2079,2046,2057
2030,2028,2021,2056,2052,2077,2027,2064
2026,2030,2027,2066,2044,2049,2042,2069
2034,2035,2029,2068,2044,2047,2061,2074
2039,2031,2031,2061,2038,2041,2050,2075
2042,2034,2037,2066,2039,2063,2051,2076
2043,2031,2030,2062,2045,2058,2046,2073
2038,2029,2016,2064,2048,2065,2045,2061
2037,2033,2013,2057,2044,2063,2051,2043
2039,2029,1999,2043,2042,2072,2037,2041
2033,2026,1990,2031,2036,2081,2065,2034
2034,2032,1997,2033,2036,2095,2052,2043
2035,2034,2007,2024,2039,2085,2076,2040
2039,2049,2023,2034,2029,2055,2059,2045
2044,2054,2026,2026,2031,2046,2078,2044
2046,2054,2024,2017,2033,2052,2069,2046
2045,2046,2025,2008,2045,2074,2075,2045
2053,2047,2036,2008,2038,2066,2079,2040
2050,2050,2053,2009,2038,2072,2075,2035
2048,2057,2067,2012,2038,2066,2061,2027
2049,2069,2079,2016,2046,2056,2042,2027
2045,2075,2093,2026,2051,2067,2043,2029
2045,2079,2089,2034,2056,2077,2042,2023
2041,2077,2088,2039,2063,2110,2038,2029
2050,2091,2094,2050,2078,2151,2058,2035
2055,2081,2083,2051,2079,2164,2070,2040
2050,2078,2083,2042,2069,2125,2057,2038
2050,2071,2071,2034,2049,1985,2024,2030
2049,2063,2064,2025,2028,1939,2034,2034
2050,2061,2057,2023,2022,1980,2040,2040
2046,2056,2056,2031,2020,2007,2048,2042
2044,2054,2052,2032,2025,2020,2046,2058
2044,2056,2063,2040,2036,2028,2050,2067
2044,2060,2055,2040,2052,2034,2052,2067
2050,2056,2061,2041,2050,2049,2045,2066
2033,2050,2054,2036,2040,2066,2050,2063
2036,2047,2055,2028,2008,2084,2047,2072
2035,2045,2048,2015,1976,2075,2048,2072
2031,2040,2035,2002,1976,2081,2067,2070
2034,2028,2034,2004,1993,2080,2060,2076
2043,2052,2050,2026,2017,2057,2068,2086
2056,2058,2055,2039,2052,2057,2072,2083
2051,2060,2056,2036,2048,2054,2062,2070
2048,2057,2049,2029,2018,2034,2055,2075
2049,2057,2044,2015,1997,2036,2056,2058
2043,2050,2035,2002,1962,2037,2067,2042
2040,2051,2032,2008,1980,2029,2064,2048
2051,2058,2048,2039,2033,1984,2076,2060
2073,2064,2056,2064,2122,1976,2089,2064
2068,2068,2059,2063,2179,2008,2068,2059
2060,2060,2057,2062,2186,2045,2064,2059
2060,2059,2056,2056,2145,2053,2066,2054
2054,2058,2050,2048,2103,2064,2076,2035
2052,2058,2053,2036,2073,2054,2067,2034
2044,2047,2044,2020,2029,2031,2024,2034
2038,2044,2045,2021,1956,2015,2020,2044
2047,2052,2059,2024,1822,2043,2051,2058
2060,2058,2056,2030,1877,2067,2057,2050
2056,2057,2062,2047,1990,2079,2093,2056
2061,2057,2059,2056,2059,2061,2074,2038
2047,2047,2044,2042,2012,2043,2050,2036
2036,2042,2037,2029,1969,2084,2048,2042
2033,2042,2031,2026,1936,2119,2048,2042
2037,2036,2026,2010,1939,2140,2037,2036
2035,2039,2029,2013,1955,2124,2026,2045
2040,2047,2038,2019,1963,2074,2033,2060
2039,2052,2039,2013,1980,1992,2028,2049
2037,2043,2032,2019,2002,1918,2026,2068
2037,2042,2030,2035,2048,1915,2049,2084
2040,2041,2030,2046,2109,1979,2059,2081
2040,2044,2026,2059,2150,2039,2057,2081
2037,2036,2035,2061,2159,2077,2038,2080
2044,2046,2044,2063,2137,2070,2033,2085
2050,2053,2042,2057,2091,2047,2036,2087
2054,2053,2044,2049,2062,2037,2039,2082
2048,2050,2038,2025,1995,2007,2028,2072
2047,2047,2035,2011,1941,1994,2016,2062
2051,2045,2034,2001,1949,1997,2022,2061
2054,2057,2030,2008,1970,2015,2017,2067
2057,2059,2030,2013,1979,2036,2018,2056
2047,2053,2026,2012,1974,2057,2021,2049
2048,2048,2034,2030,2008,2067,2034,2053
2051,2060,2048,2050,2032,2079,2026,2057
2057,2058,2047,2049,2062,2064,2034,2056
2054,2057,2045,2052,2100,2039,2046,2064
2054,2054,2039,2046,2073,2001,2041,2052
2050,2050,2036,2038,2060,1983,2031,2030
2041,2044,2038,2034,2053,1962,2037,2025
2040,2039,2040,2037,2023,1942,2035,2029
2044,2046,2040,2021,1979,1935,2007,2032
2044,2038,2034,2020,1957,1926,2022,2032
2044,2037,2026,2017,2009,1959,2058,2036
2038,2036,2027,2027,2043,2008,2078,2040
2036,2033,2031,2050,2090,2093,2070,2044
2046,2051,2043,2079,2153,2165,2089,2060
2051,2058,2047,2094,2174,2195,2101,2069
2057,2055,2045,2072,2109,2158,2093,2075
2056,2043,2043,2062,2072,2108,2089,2071
2044,2037,2042,2072,2061,2070,2065,2074
2039,2037,2053,2069,2075,2048,2054,2071
2044,2043,2051,2088,2113,2016,2046,2077
2059,2046,2055,2094,2150,2010,2044,2081
2062,2038,2049,2095,2163,2009,2041,2068
2038,2027,2051,2084,2142,2006,2036,2079
2032,2033,2069,2092,2123,2025,2065,2086
2046,2042,2081,2089,2095,2037,2066,2082
2051,2041,2081,2075,1991,2039,2068,2086
2059,2046,2084,2087,2037,2059,2058,2075
2073,2057,2079,2090,2041,2079,2071,2076
2073,2052,2071,2076,2030,2074,2051,2070
2073,2056,2052,2071,2051,2070,2064,2062
2063,2037,2034,2062,2057,2077,2056,2047
2054,2034,2033,2056,2056,2073,2055,2038
2041,2033,2019,2032,2022,2047,2053,2025
2040,2036,2015,2023,2018,2047,2048,2027
2033,2048,2013,2002,1938,2035,2054,2034
2039,2053,2004,1989,1902,2047,2062,2037
2046,2057,2002,1999,1962,2093,2072,2048
2053,2061,2003,2008,1982,2078,2068,2038
2031,2047,1989,1997,2010,2059,2026,2032
2031,2037,1982,1983,2035,2062,2025,2035
2036,2048,2000,1980,2067,2077,2054,2033
2048,2061,2005,1983,2089,2082,2031,2039
2054,2062,2016,1982,2109,2080,2017,2047
2063,2074,2027,1977,2080,2098,2041,2057
2066,2071,2017,1985,2053,2135,2045,2049
2062,2061,2015,1994,2020,2116,2034,2065
2063,2064,2027,1999,1978,2056,2016,2064
2050,2059,2029,1997,1949,2018,2025,2064
2047,2053,2037,2000,1981,2004,2033,2074
2051,2058,2044,2009,2078,2031,2047,2087
2048,2047,2035,2010,2149,2078,2072,2083
2037,2041,2028,2017,2189,2105,2066,2081
2037,2044,2040,2040,2223,2109,2071,2083
2044,2052,2053,2048,2187,2084,2060,2082
2039,2049,2051,2038,2134,2059,2049,2086
2047,2051,2051,2025,2060,2044,2080,2088
2053,2059,2056,2025,1998,2062,2059,2072
2043,2057,2050,2027,1876,2060,2056,2069
2038,2044,2046,2027,1865,2028,2058,2060
2032,2049,2048,2037,1988,2042,2049,2056
2046,2050,2045,2026,2024,2018,2052,2060
2047,2051,2049,2014,1975,2022,2058,2052
2051,2045,2049,2015,1972,2042,2065,2053
2049,2044,2045,2003,1977,2059,2075,2048
2041,2038,2040,1996,1956,2062,2061,2037
2040,2044,2026,1989,1954,2059,2048,2023
2037,2025,2004,1988,1976,2098,2052,2026
2038,2025,1998,1989,1980,2105,2045,2022
2038,2024,2000,2000,1980,2102,2045,2024
2039,2024,2003,2002,1973,2079,2037,2015
2034,2011,2000,2007,1965,2004,2005,2032
2052,2026,2005,2028,2033,1979,2024,2053
2065,2042,2027,2056,2094,2015,2082,2056
2068,2043,2023,2065,2094,2032,2066,2060
2067,2051,2027,2044,2085,2039,2076,2051
2056,2041,2020,2029,2065,2021,2055,2047
2054,2045,2021,2035,2050,2013,2047,2058
2056,2045,2023,2040,2045,2008,2035,2061
2059,2044,2026,2044,2060,2008,2041,2069
2066,2044,2036,2052,2059,1999,2046,2070
2056,2046,2037,2046,2051,1992,2045,2076
2057,2044,2046,2031,2043,2002,2048,2083
2062,2044,2050,2028,2042,2019,2055,2079
2051,2041,2052,2020,2040,2025,2042,2073
2035,2034,2068,2015,2039,2036,2057,2068
2039,2053,2093,2033,2048,2059,2047,2080
2044,2064,2104,2038,2054,2061,2056,2080
2052,2064,2103,2036,2046,2047,2057,2081
2058,2074,2100,2037,2042,2039,2050,2090
2061,2071,2088,2032,2044,2030,2037,2083
2063,2073,2075,2031,2037,2039,2033,2080
2065,2072,2071,2035,2022,2045,2051,2082
2070,2073,2061,2021,2007,2043,2076,2083
2064,2067,2063,2000,1979,2029,2066,2080
2068,2066,2072,1995,1982,2032,2066,2071
2066,2074,2086,2012,1997,2043,2060,2061
2067,2076,2088,2018,1999,2035,2046,2060
2069,2084,2098,2025,1991,2022,2054,2056
2070,2084,2096,2022,1983,2028,2061,2054
2064,2076,2088,2021,1981,2029,2059,2049
2061,2065,2077,2015,1978,2047,2061,2049
2062,2064,2067,2006,1978,2064,2056,2043
2060,2055,2058,1999,2017,2064,2051,2034
2050,2033,2037,1999,2030,2063,2047,2034
2044,2026,2035,2006,2008,2080,2051,2040
2057,2045,2048,2009,2007,2054,2052,2036
2056,2050,2053,2018,2020,2026,2057,2049
2059,2060,2054,2023,2040,2072,2054,2060
2064,2050,2044,2031,2041,2122,2062,2065
2060,2048,2042,2037,2055,2118,2067,2066
2067,2060,2058,2055,2060,2032,2069,2061
2066,2071,2064,2064,2040,2028,2039,2068
2075,2070,2067,2052,2033,2080,2053,2063
2072,2068,2058,2049,2027,2106,2050,2063
2058,2059,2056,2039,2009,2131,2046,2061
2049,2048,2059,2043,2038,2138,2065,2069
2051,2046,2059,2043,2034,2112,2069,2077
2054,2050,2058,2037,2005,2045,2064,2086
2059,2047,2058,2034,1967,2020,2065,2086
2056,2037,2052,2023,1950,2006,2054,2086
2046,2038,2059,2021,1966,1992,2034,2082
2049,2051,2076,2035,2002,1991,2033,2073
2043,2042,2076,2029,2003,1977,2030,2064
2037,2034,2071,2031,2026,2006,2042,2068
2043,2029,2066,2031,2047,2019,2027,2066
2040,2034,2050,2018,1997,2001,2022,2060
2049,2037,2050,2017,1980,2004,2025,2055
2052,2039,2049,2019,2016,2018,2038,2046
2043,2031,2033,2019,2063,2047,2035,2041
2040,2031,2023,2020,2091,2046,2028,2038
2042,2028,2012,2010,2077,2035,2047,2046
2046,2028,2016,2007,2069,2038,2064,2045
2057,2032,2018,2008,2074,2034,2054,2049
2064,2041,2022,2012,2071,2018,2058,2044
2072,2043,2030,2016,2075,2037,2045,2047
2070,2049,2026,2020,2067,2037,2027,2040
2053,2036,2020,2016,2066,2042,2044,2041
2052,2042,2030,2021,2061,2072,2036,2049
2067,2054,2029,2011,2029,2096,2055,2049
2061,2060,2049,2017,1995,2096,2045,2043
2058,2070,2080,2029,1985,2094,2026,2045
2056,2066,2086,2035,1974,2080,2042,2052
2055,2061,2091,2050,2004,2060,2058,2079
2066,2062,2090,2066,2059,2061,2068,2081
2070,2057,2082,2071,2102,2086,2074,2085
2066,2058,2078,2078,2128,2004,2064,2082
2072,2056,2075,2083,2148,1940,2050,2085
2066,2050,2077,2088,2166,1974,2048,2080
2058,2053,2075,2090,2172,2012,2050,2083
2054,2055,2063,2096,2196,2012,2038,2082
2048,2043,2052,2100,2231,2004,2025,2064
2039,2036,2041,2121,2302,2039,2006,2075
2037,2040,2028,2143,2346,2088,2042,2083
2049,2051,2036,2127,2324,2102,2055,2084
2053,2056,2033,2070,2122,2044,2049,2074
2039,2046,2018,1975,1825,1988,2013,2056
2029,2037,2012,1934,1736,1991,2011,2047
2034,2045,2029,1954,1762,2007,2023,2050
2043,2058,2052,1969,1776,2033,2050,2067
2055,2063,2052,1983,1862,2041,2070,2063
2060,2059,2052,1988,1902,2026,2048,2063
2052,2053,2058,1997,1938,2024,2061,2058
2057,2052,2060,2005,1937,2028,2053,2058
2058,2058,2068,2017,1974,2029,2052,2059
2057,2063,2070,2038,2043,2057,2048,2057
2066,2056,2073,2034,2087,2076,2044,2046
2049,2048,2057,1999,2066,2040,2024,2032
2040,2051,2053,1980,2049,2000,2031,2022
2041,2043,2039,1979,2038,1990,2011,2020
2042,2033,2032,1991,2044,2027,2030,2024
2039,2038,2037,2012,2034,2068,2049,2037
2042,2041,2041,2014,2026,2084,2046,2037
2047,2054,2051,2028,2031,2086,2046,2053
2063,2058,2057,2030,2035,2081,2060,2057
2062,2061,2063,2023,1977,2078,2052,2064
2066,2064,2058,2012,1976,2091,2074,2066
2070,2064,2053,1999,1971,2086,2082,2069
2073,2068,2043,1986,1896,2070,2067,2076
2072,2064,2038,1975,1894,2039,2057,2075
2064,2064,2042,1986,2007,2033,2055,2076
2058,2058,2039,2006,2075,2023,2049,2080
2050,2047,2031,2021,2139,2028,2070,2087
2052,2043,2028,2040,2140,2025,2075,2082
2046,2036,2025,2040,2103,2004,2059,2083
2040,2036,2024,2053,2115,2006,2045,2075
2041,2026,2017,2037,2073,2004,2047,2080
2045,2026,2023,2034,2019,2014,2044,2085
2046,2039,2049,2042,2010,2021,2063,2088
2053,2037,2055,2050,2025,2047,2064,2092
2060,2036,2056,2048,2029,2063,2067,2083
2062,2035,2058,2050,2029,2063,2043,2078
2060,2038,2053,2050,2026,2062,2052,2070
2063,2044,2045,2052,2028,2064,2043,2058
2063,2044,2053,2059,2039,2070,2035,2046
2060,2048,2059,2058,2037,2080,2051,2040
2052,2047,2067,2052,2029,2080,2044,2037
2052,2055,2069,2050,2032,2067,2030,2032
2050,2053,2059,2052,2054,2077,2044,2037
2052,2057,2051,2050,2059,2084,2047,2034
2056,2062,2036,2051,2047,2073,2066,2038
2056,2058,2018,2035,2024,2037,2062,2035
2056,2050,1991,2024,2018,2007,2034,2025
2039,2037,1985,2022,2027,2008,2037,2027
2057,2036,1989,2040,2043,2018,2044,2028
2048,2042,1994,2031,2049,2010,2037,2030
2041,2037,1989,2008,2042,2009,2031,2025
2033,2031,1985,1997,2036,2024,2057,2028
2027,2025,1992,2006,2027,2030,2055,2022
2030,2025,2009,2014,2013,2033,2072,2031
2032,2032,2032,2028,2022,2036,2069,2040
2041,2038,2046,2031,2035,2036,2074,2045
2048,2051,2064,2040,2042,2036,2069,2059
2047,2050,2077,2052,2060,2043,2072,2068
2044,2057,2091,2062,2076,2046,2063,2068
2037,2053,2096,2069,2075,2059,2058,2069
2038,2047,2100,2072,2075,2076,2077,2079
2039,2044,2094,2064,2066,2069,2065,2072
2036,2034,2073,2048,2053,2058,2064,2071
2030,2013,2050,2025,2035,2045,2060,2069
2032,2006,2046,2018,2028,2046,2051,2075
2038,2027,2056,2024,2021,2047,2071,2077
2046,2038,2061,2016,2026,2047,2061,2080
2053,2050,2059,2020,2025,2054,2072,2079
2057,2051,2053,2014,2011,2064,2072,2078
2063,2053,2052,2012,2002,2070,2083,2064
2064,2054,2049,2024,2020,2073,2076,2053
2053,2050,2043,2014,2026,2062,2070,2039
2051,2042,2032,2015,2026,2053,2061,2021
2046,2037,2031,2013,2046,2052,2067,2026
2037,2037,2030,2024,2049,2052,2072,2045
2060,2045,2034,2025,2047,2056,2060,2047
2057,2048,2035,2026,2056,2051,2072,2038
2048,2040,2027,2032,2060,2056,2062,2031
2057,2040,2027,2036,2056,2061,2065,2042
2056,2040,2022,2036,2053,2055,2064,2031
2062,2033,2023,2037,2028,2045,2058,2032
2051,2043,2027,2028,2022,2054,2073,2041
2052,2046,2026,2022,2004,2048,2076,2052
2062,2046,2033,2026,2013,2046,2077,2060
2069,2062,2048,2039,2018,2040,2072,2064
2068,2072,2058,2060,2018,2041,2079,2048
2067,2072,2058,2068,2034,2037,2071,2051
2064,2076,2059,2062,2023,2035,2054,2047
2066,2076,2056,2055,2023,2035,2055,2057
2058,2066,2054,2053,2030,2039,2061,2063
2059,2062,2058,2053,2036,2044,2064,2071
2051,2063,2055,2045,2044,2039,2055,2068
2049,2050,2042,2039,2043,2032,2046,2070
2039,2041,2040,2042,2042,2037,2047,2067
2043,2032,2036,2053,2050,2047,2062,2069
2042,2026,2030,2053,2048,2046,2061,2071
2029,2013,2012,2040,2032,2045,2041,2074
2028,2015,2019,2040,2040,2062,2052,2075
2046,2043,2042,2054,2049,2083,2051,2072
2051,2052,2052,2048,2029,2088,2067,2073
2052,2051,2054,2051,2018,2087,2057,2072
2050,2051,2060,2050,2007,2069,2064,2076
2065,2059,2072,2055,1997,2049,2069,2065
2061,2061,2075,2047,1990,2034,2068,2048
2048,2059,2076,2042,1975,2015,2052,2043
2045,2056,2074,2040,1961,1993,2043,2042
2050,2058,2070,2031,1970,1988,2047,2042
2043,2050,2059,2021,1960,1969,2035,2040
2044,2038,2041,2006,1958,1947,2036,2028
2040,2036,2031,2000,1981,1953,2044,2027
2040,2040,2031,2010,2032,1982,2053,2026
2044,2048,2040,2018,2055,2007,2038,2029
2046,2054,2044,2028,2073,2021,2034,2032
2041,2061,2054,2036,2060,2050,2036,2034
2049,2070,2055,2041,2032,2077,2043,2044
2064,2074,2062,2054,2070,2081,2064,2048
2059,2064,2061,2056,2082,2085,2088,2047
2052,2062,2063,2054,2076,2076,2069,2036
2050,2061,2057,2053,2039,2060,2067,2043
2055,2067,2058,2052,2022,2055,2053,2052
2060,2064,2061,2051,2037,2057,2054,2057
2057,2065,2058,2051,2039,2046,2034,2052
2047,2052,2064,2040,2010,2027,2056,2048
2042,2049,2064,2054,2042,2034,2065,2046
2042,2050,2060,2061,2056,2060,2070,2054
2053,2047,2067,2075,2074,2088,2079,2064
2054,2047,2074,2075,2076,2092,2080,2072
2053,2041,2056,2068,2053,2092,2055,2071
2047,2037,2032,2057,2029,2086,2059,2057
2037,2022,2022,2052,2009,2085,2031,2061
2031,2024,2014,2061,1995,2075,2059,2068
2049,2038,2011,2076,2028,2049,2070,2073
2055,2039,1997,2096,2056,2034,2066,2069
2044,2033,1972,2098,2078,1989,2059,2055
2033,2020,1946,2094,2083,1983,2041,2047
2040,2032,1957,2113,2100,2013,2042,2042
2043,2027,1954,2123,2146,2043,2053,2043
2042,2024,1936,2124,2171,2051,2049,2043
2052,2021,1932,2119,2185,2060,2055,2041
2050,2018,1936,2104,2192,2062,2069,2043
2049,2018,1938,2076,2156,2056,2045,2039
2052,2021,1952,2079,2136,2046,2039,2025
2044,2013,1958,2064,2122,2043,2041,2020
2043,2007,1962,2061,2109,2051,2029,2017
2037,2003,1968,2069,2043,2045,2041,2007
2019,1996,1945,2047,1969,2037,2026,1995
2021,2002,1943,2045,1962,2043,2040,1998
2034,2036,1954,2029,1876,2050,2066,2003
2056,2036,1956,2013,1917,2050,2064,2013
2038,2030,1943,1991,1950,2018,2032,2011
2026,2023,1943,1978,1969,1999,2038,2015
2027,2030,1970,1978,1983,1999,2034,2024
2037,2050,2014,1982,1981,2002,2037,2024
2045,2061,2056,1975,1979,2002,2029,2037
2043,2061,2052,1960,1983,2002,2019,2050
2050,2059,2067,1961,1986,2015,2044,2061
2056,2066,2094,1983,2008,2033,2068,2076
2063,2086,2112,2003,2031,2049,2067,2075
2067,2088,2125,2024,2041,2056,2076,2075
2062,2078,2124,2028,2040,2057,2068,2087
2059,2071,2134,2033,2044,2055,2068,2098
2055,2073,2147,2047,2030,2044,2063,2086
2041,2069,2145,2047,2032,2042,2058,2088
2045,2086,2160,2072,2042,2049,2076,2083
2053,2106,2158,2089,2046,2052,2066,2079
2059,2108,2158,2101,2054,2054,2068,2074
2059,2104,2141,2088,2043,2052,2071,2065
2055,2093,2120,2087,2046,2050,2067,2069
2058,2094,2111,2089,2052,2050,2081,2066
2058,2096,2092,2091,2049,2052,2080,2062
2062,2093,2070,2085,2054,2048,2058,2057
2062,2086,2064,2080,2040,2046,2065,2053
2068,2086,2056,2063,2028,2040,2064,2050
2060,2084,2053,2047,2018,2035,2058,2047
2070,2093,2074,2061,2009,2027,2054,2038
2063,2087,2079,2060,2014,2028,2049,2024
2056,2068,2068,2049,2017,2040,2052,2026
2054,2069,2068,2078,2054,2052,2050,2031
2055,2068,2069,2096,2065,2056,2049,2033
2053,2074,2068,2106,2070,2051,2069,2034
2056,2074,2088,2117,2074,2054,2061,2039
2058,2077,2081,2114,2057,2041,2048,2030
2059,2062,2072,2108,2046,2041,2053,2046
2062,2067,2068,2115,2057,2047,2046,2049
2061,2061,2054,2122,2064,2046,2056,2040
2045,2067,2055,2116,2073,2058,2058,2047
2042,2069,2053,2119,2076,2069,2070,2050
2042,2067,2047,2119,2084,2095,2076,2063
2049,2059,2048,2116,2076,2106,2064,2066
2045,2062,2048,2083,2056,2103,2043,2069
2039,2050,2044,2045,2037,2070,2060,2074
2040,2035,2023,2017,2018,2014,2044,2077
2040,2027,2033,2025,2033,1981,2043,2080
2049,2041,2055,2038,2053,1995,2048,2091
2061,2050,2062,2050,2057,2022,2048,2083
2051,2045,2036,2045,2050,2048,2043,2077
2054,2032,2025,2064,2061,2060,2073,2072
2053,2033,2006,2081,2070,2064,2069,2069
2052,2027,1973,2095,2066,2057,2063,2061
2061,2034,1942,2117,2076,2060,2078,2062
2074,2041,1927,2126,2072,2056,2050,2046
2061,2038,1913,2131,2091,2060,2052,2033
2055,2043,1952,2156,2103,2060,2054,2034
2054,2045,1962,2158,2098,2064,2035,2030
2052,2045,1967,2170,2080,2054,2026,2026
2053,2030,1956,2165,2075,2042,2041,2015
2048,2021,1962,2152,2052,2021,2030,2010
2028,2005,1951,2120,2019,2014,2013,2009
2022,1998,1978,2080,1989,2023,2023,2002
2026,2038,2053,2081,1979,2036,2040,2008
2038,2094,2145,2094,2006,2050,2038,2015
2053,2109,2169,2096,2002,2029,2030,2005
2054,2099,2144,2068,2019,1998,2034,2029
2067,2081,2095,2037,2036,1998,2050,2050
2068,2062,2066,2008,2026,1996,2034,2038
2047,2028,2025,1934,1985,1996,2023,2024
2038,2023,2031,1893,1967,2006,2032,2025
2034,2040,2066,1891,1973,2016,2050,2051
2041,2072,2101,1904,1979,2019,2040,2066
2052,2088,2123,1917,2003,2020,2056,2074
2064,2102,2136,1947,2038,2036,2067,2090
2072,2107,2149,1978,2070,2066,2096,2100
2078,2118,2161,2008,2094,2085,2088,2101
2077,2108,2152,2021,2094,2092,2084,2105
2070,2090,2137,2015,2091,2078,2079,2102
2055,2076,2126,2016,2081,2072,2082,2097
2060,2086,2132,2018,2075,2074,2056,2099
2066,2087,2117,2008,2060,2041,2050,2084
2046,2059,2089,1990,2035,2036,2021,2075
2043,2044,2080,1993,2041,2055,2054,2082
2054,2070,2091,2006,2054,2067,2053,2079
2055,2075,2098,2009,2049,2068,2060,2075
2054,2063,2086,2017,2056,2068,2041,2072
2056,2058,2078,2024,2059,2036,2039,2071
2055,2062,2071,2028,2058,2020,2055,2073
2047,2070,2068,2025,2056,2020,2056,2067
2050,2061,2074,2058,2059,2034,2049,2059
2046,2061,2069,2068,2068,2046,2049,2050
2053,2060,2078,2074,2071,2050,2065,2044
2048,2053,2068,2069,2067,2058,2058,2037
2045,2051,2050,2060,2047,2055,2063,2029
2037,2039,2032,2057,2038,2057,2070,2031
2030,2034,2022,2070,2034,2055,2058,2026
2028,2025,1999,2064,2038,2055,2031,2027
2021,2006,1961,2056,2030,2054,2060,2023
2022,2009,1942,2052,2035,2062,2052,2034
2039,2026,1966,2083,2045,2076,2080,2040
2046,2039,1999,2097,2057,2075,2084,2053
2058,2043,2010,2105,2060,2065,2075,2057
2060,2044,2019,2114,2061,2060,2057,2054
2061,2046,2015,2124,2064,2054,2055,2042
2055,2052,2019,2137,2075,2041,2027,2030
2054,2039,2002,2127,2054,2030,2028,2026
2044,2024,1976,2111,2021,2016,2033,2021
2036,2023,1975,2118,1998,2005,2032,2038
2037,2032,1992,2131,1995,1997,2025,2046
2036,2037,1985,2141,2010,2008,2024,2051
2045,2050,2010,2178,2048,2032,2030,2066
2058,2074,2055,2210,2092,2050,2041,2083
2069,2082,2066,2224,2088,2042,2043,2083
2063,2062,2050,2208,2066,2038,2036,2067
2044,2030,2037,2136,2044,2026,2008,2050
2031,2016,2045,2056,2019,2023,2028,2052
2036,2024,2035,1962,1990,2019,2035,2052
2029,2037,2038,1896,1930,2019,2041,2055
2042,2056,2061,1878,1951,2030,2043,2058
2048,2068,2086,1902,1974,2074,2057,2066
2055,2080,2104,1952,1980,2089,2051,2067
2062,2077,2095,1971,1980,2086,2054,2061
2057,2067,2087,1991,1990,2086,2057,2057
2049,2068,2083,1993,2006,2047,2058,2064
2053,2069,2091,2004,2028,2006,2067,2066
2052,2061,2092,2010,2041,2025,2067,2057
2057,2065,2107,2010,2040,2039,2061,2062
2069,2082,2112,2018,2047,2046,2081,2056
2070,2083,2100,2039,2066,2037,2058,2046
2058,2070,2061,2057,2106,2048,2056,2040
2044,2047,2037,2064,2116,2052,2060,2033
2030,2048,2019,2078,2103,2053,2061,2044
2043,2046,2033,2104,2103,2051,2050,2052
2051,2052,2039,2109,2090,2054,2067,2051
2059,2060,2040,2105,2085,2063,2057,2055
2055,2062,2036,2099,2069,2057,2070,2055
2055,2060,2013,2095,2059,2050,2040,2049
2045,2051,1985,2086,2057,2042,2041,2040
2046,2049,1982,2081,2067,2046,2044,2040
2052,2038,1980,2075,2072,2048,2055,2054
2042,2038,1975,2074,2074,2044,2052,2062
2042,2035,1969,2062,2069,2046,2049,2059
2038,2026,1963,2041,2065,2049,2045,2064
2042,2031,1978,2041,2069,2053,2059,2064
2044,2037,1985,2040,2060,2051,2039,2067
2044,2034,1989,2033,2043,2039,2012,2061
2028,2019,1989,2018,2021,2020,2027,2058
2030,2018,2009,2017,2017,2021,2027,2066
2035,2040,2031,2028,2016,2022,2020,2065
2043,2039,2037,2026,1997,2015,2034,2063
2040,2043,2035,2010,1984,2007,2045,2055
2035,2037,2036,1999,1982,2009,2033,2052
2031,2037,2051,2013,1999,2036,2037,2045
2032,2039,2067,2012,1973,2052,2024,2032
2035,2038,2060,1989,1918,2032,2027,2028
2024,2041,2070,1982,1894,2026,2015,2030
2026,2038,2086,1984,1894,2006,2016,2030
2033,2036,2078,1996,1948,1971,2028,2042
2029,2054,2097,2054,2075,2036,2054,2063
2062,2092,2162,2131,2155,2105,2098,2068
2082,2119,2191,2152,2148,2138,2103,2066
2086,2112,2168,2125,2100,2120,2093,2060
2072,2092,2133,2087,2063,2074,2049,2056
2068,2077,2119,2078,2032,2058,2055,2058
2068,2081,2118,2085,2041,2091,2064,2052
2063,2073,2113,2091,2062,2115,2080,2047
2057,2070,2110,2104,2056,2096,2072,2054
2060,2068,2111,2114,2059,2036,2026,2056
2051,2076,2114,2106,2051,2012,2026,2055
2050,2067,2102,2106,2045,2034,2033,2055
2046,2064,2090,2105,2065,2059,2039,2043
2046,2057,2073,2084,2054,2080,2030,2047
2038,2040,2048,2070,2061,2063,2050,2050
2041,2036,2032,2067,2114,2065,2060,2075
2038,2032,2018,2048,2105,2069,2075,2082
2046,2030,2006,2021,2064,2059,2053,2090
2049,2026,1994,2021,2095,2028,2047,2103
2043,2016,1969,1994,2114,2019,2016,2086
2028,1992,1945,1979,2101,2024,2023,2074
2018,2001,1966,1986,2024,2011,2028,2077
2030,2023,2005,2016,2005,2022,2026,2069
2044,2033,2045,2050,2028,2041,2017,2054
2045,2042,2072,2058,1979,2054,2014,2044
2036,2033,2065,2057,2000,2064,2013,2050
2032,2029,2074,2086,2067,2062,2026,2044
2039,2037,2080,2114,2077,2040,2007,2033
2050,2048,2105,2128,2061,2043,2038,2036
2062,2063,2119,2130,2066,2060,2038,2031
2066,2073,2113,2128,2064,2058,2056,2029
2075,2075,2104,2132,2069,2039,2050,2042
2069,2084,2105,2129,2067,2026,2031,2050
2074,2081,2098,2123,2064,2009,2045,2039
2066,2072,2070,2113,2053,2015,2050,2028
2057,2053,2049,2096,2049,2018,2023,2021
2046,2044,2035,2078,2047,2010,2023,2020
2051,2055,2045,2071,2039,2003,2025,2025
2060,2072,2035,2042,2071,2016,2040,2042
2064,2062,2003,1986,2078,2031,2036,2042
2062,2043,1966,1953,2084,2045,2035,2041
2056,2038,1968,1961,2099,2053,2035,2045
2057,2039,1994,2000,2123,2061,2045,2056
2056,2042,2020,2081,2117,2042,2062,2054
2039,2032,2013,2117,2087,2024,2049,2059
2040,2024,1998,2109,2056,2031,2062,2062
2047,2031,1992,2112,1996,2042,2062,2073
2047,2039,1993,2100,1911,2058,2038,2080
2050,2034,1974,2096,1973,2091,2040,2080
2052,2042,1981,2087,2006,2140,2052,2076
2054,2052,1994,2082,2020,2168,2050,2076
2062,2051,1992,2060,2035,2136,2044,2079
2058,2041,1974,2036,2002,2038,2042,2058
2045,2027,1979,2027,1968,1979,2032,2064
2053,2040,2014,2019,1963,2009,2041,2061
2050,2042,2027,2023,1966,2008,2018,2066
2051,2041,2026,2028,1983,2007,2043,2063
2047,2041,2037,2059,2039,2036,2071,2068
2057,2051,2056,2099,2082,2081,2079,2081
2067,2055,2072,2104,2081,2100,2061,2080
2075,2060,2096,2110,2075,2098,2053,2067
2080,2054,2108,2106,2039,2087,2056,2051
2056,2041,2094,2071,2024,2089,2039,2024
2038,2040,2093,2041,1999,2092,2026,2010
2028,2044,2090,2021,1954,2088,2033,2008
2036,2057,2083,2020,1915,2072,2026,2019
2037,2052,2069,2042,1899,2026,2011,2017
2030,2029,2043,2038,1906,1970,2002,2016
2022,2017,2023,2018,1936,1933,1979,2012
2030,2019,2039,2010,1978,1910,1983,2021
2041,2038,2065,1973,2026,1947,2020,2040
2049,2049,2060,1947,2069,1995,2048,2041
2049,2051,2065,1937,2092,2022,2051,2047
2051,2054,2073,1938,2053,2025,2038,2046
2046,2043,2067,1965,2074,2034,2041,2047
2050,2040,2063,1991,2118,2036,2021,2052
2054,2043,2070,2013,2107,2044,2039,2059
2055,2054,2086,2023,2064,2054,2056,2066
2057,2061,2088,2029,2006,2064,2063,2069
2052,2064,2085,2033,2007,2057,2061,2074
2053,2062,2076,2048,2029,2056,2037,2074
2048,2052,2065,2052,2009,2058,2036,2081
2038,2049,2062,2056,2003,2075,2025,2083
2042,2049,2062,2046,2018,2081,2033,2077
2050,2059,2057,2028,2014,2076,2047,2074
2039,2048,2049,2010,2028,2064,2050,2068
2045,2053,2043,2011,2045,2053,2054,2077
2049,2050,2045,2018,2045,2023,2024,2074
2051,2045,2046,2023,2033,2004,2018,2064
2055,2048,2049,2031,2058,1980,2019,2065
2058,2058,2050,2039,2090,2001,2026,2061
2060,2055,2054,2043,2072,2021,2040,2062
2059,2053,2042,2041,2055,2038,2045,2063
2060,2045,2030,2029,2032,2028,2046,2049
2066,2033,2004,2024,2008,2022,2040,2044
2062,2036,1992,2051,2041,2041,2050,2056
2064,2037,1995,2082,2081,2056,2055,2044
2055,2035,1997,2079,2079,2046,2036,2038
2050,2028,1996,2086,2089,2041,2035,2028
2055,2029,1999,2098,2117,2067,2026,2017
2056,2017,1979,2083,2098,2080,2014,2009
2034,1999,1958,2065,2078,2084,2031,2004
2024,2001,1960,2066,2075,2094,2025,2018
2033,2019,1957,2071,2049,2079,2028,2025
2033,2019,1952,2079,2046,2030,2048,2033
2039,2026,1961,2108,2101,2012,2049,2039
2039,2026,1982,2111,2033,2010,2048,2036
2035,2021,1988,2079,1963,2018,2058,2040
2027,2026,2014,2065,1998,2031,2038,2047
2030,2038,2053,2074,2020,2034,2032,2058
2037,2065,2112,2090,2050,2038,2039,2066
2052,2096,2167,2106,2051,2057,2053,2072
2061,2110,2170,2100,2050,2067,2061,2091
2064,2101,2155,2081,2042,2071,2057,2099
2066,2092,2126,2055,2030,2073,2057,2101
2063,2080,2118,2042,2025,2064,2052,2094
2063,2077,2116,2021,2013,2055,2065,2088
2053,2071,2096,2015,2009,2051,2043,2085
2054,2072,2102,2020,2018,2049,2053,2088
2061,2082,2111,2022,2028,2039,2071,2086
2066,2075,2102,2005,2009,2066,2061,2070
2060,2064,2087,1983,1982,2092,2044,2067
2056,2056,2070,1975,1965,2098,2054,2062
2052,2048,2058,1978,1978,2094,2041,2053
2052,2053,2056,2010,2023,2052,2040,2060
2065,2064,2065,2053,2062,1983,2010,2072
2069,2067,2084,2067,2066,1971,2016,2066
2054,2064,2076,2042,2034,2001,2059,2051
2050,2066,2071,2016,2016,2028,2057,2048
2051,2065,2063,2015,2020,2044,2032,2045
2053,2058,2058,2016,2023,2048,2050,2045
2056,2058,2059,2030,2031,2037,2030,2048
2051,2067,2062,2040,2031,2036,2050,2051
2050,2061,2056,2039,2027,2032,2039,2047
2046,2056,2053,2048,2033,2036,2044,2042
2048,2061,2056,2061,2061,2048,2067,2038
2056,2064,2063,2069,2067,2054,2075,2041
2048,2052,2052,2072,2071,2057,2082,2047
2051,2046,2047,2064,2070,2056,2079,2052
2054,2046,2030,2067,2059,2049,2071,2056
2058,2043,2034,2079,2056,2049,2068,2047
2046,2031,2033,2095,2066,2046,2048,2035
2032,2025,2030,2100,2064,2054,2061,2038
2032,2025,2020,2104,2061,2068,2070,2047
2037,2034,2034,2110,2058,2074,2059,2052
2045,2043,2028,2108,2044,2068,2059,2062
2036,2037,2014,2110,2028,2051,2060,2064
2035,2028,2003,2102,2072,2021,2061,2071
2037,2024,2006,2103,2095,2003,2061,2075
2036,2021,2015,2089,2076,2007,2049,2072
2032,2023,2030,2083,2067,2022,2059,2079
2052,2048,2053,2090,2061,2052,2059,2095
2074,2078,2068,2100,2055,2062,2066,2092
2073,2067,2068,2096,2039,2048,2066,2089
2068,2062,2076,2082,2043,2033,2046,2078
2059,2056,2065,2050,2007,2033,2034,2077
2063,2067,2077,2049,2001,2062,2042,2078
2068,2071,2065,2061,1988,2062,2055,2064
2067,2064,2048,2069,1996,2070,2055,2049
2062,2061,2028,2071,1993,2046,2035,2032
2058,2053,1995,2074,2023,1989,2037,2035
2057,2056,1979,2093,2106,2014,2055,2037
2053,2050,1966,2099,2150,2038,2048,2040
2051,2048,1964,2088,2144,2033,2026,2056
2060,2050,1975,2075,2091,2011,2055,2064
2063,2045,1974,2046,2103,2034,2044,2050
2043,2016,1971,2019,2081,2056,2068,2037
2041,2028,2039,2016,2048,2075,2066,2045
2046,2057,2121,2028,2049,2067,2072,2051
2047,2064,2143,2020,2063,2057,2068,2059
2058,2072,2153,2035,2035,2074,2084,2074
2072,2089,2175,2070,2012,2072,2073,2066
2073,2103,2206,2090,2056,2066,2087,2077
2072,2104,2189,2080,2065,2054,2088,2075
2070,2083,2139,2066,2045,2027,2080,2066
2056,2068,2100,2042,1991,1991,2063,2068
2050,2059,2075,2034,1981,1991,2074,2078
2055,2055,2061,2038,2010,1993,2075,2084
2052,2055,2056,2037,2060,1998,2069,2078
2043,2047,2045,2029,2038,2015,2061,2080
2033,2048,2038,2018,1986,2021,2042,2067
2036,2043,2033,2005,1959,2039,2031,2071
2039,2035,2020,1992,1917,2058,2038,2087
2040,2029,2010,1980,1911,2029,2034,2093
2056,2057,2031,2012,1963,2013,2053,2094
2066,2078,2048,2037,2006,2020,2046,2096
2062,2069,2048,2062,2039,2035,2037,2078
2057,2061,2045,2060,2028,2037,2035,2070
2051,2059,2047,2065,1958,2024,2030,2054
2051,2051,2059,2083,1955,2016,2031,2044
2039,2049,2052,2102,2012,2042,2044,2048
2044,2046,2045,2126,2065,2063,2060,2043
2046,2045,2032,2145,2099,2077,2050,2043
2045,2047,2019,2150,2136,2096,2068,2047
2047,2046,2004,2140,2134,2115,2063,2050
2052,2051,1993,2128,2096,2101,2079,2040
2055,2058,1985,2105,2096,2081,2070,2039
2047,2050,1978,2099,2120,2076,2069,2032
2031,2042,1968,2068,2137,2066,2039,2002
2006,2019,1961,2019,2026,2046,2024,1988
2006,2001,1969,1992,2025,2072,2039,2011
2023,2023,1988,1998,2088,2088,2042,2013
2029,2040,2030,2021,2101,2064,2060,2028
2052,2057,2056,2032,2086,2032,2058,2040
2049,2054,2053,2023,2081,2016,2059,2045
2054,2057,2059,2017,2060,2004,2031,2039
2054,2060,2085,2019,2005,1991,2019,2026
2047,2062,2087,2037,2018,2006,2036,2045
2054,2066,2100,2059,2044,2031,2055,2046
2053,2071,2123,2077,2070,2044,2041,2056
2056,2080,2130,2071,2077,2047,2062,2070
2056,2076,2114,2058,2069,2038,2053,2088
2068,2075,2094,2050,2063,2037,2055,2099
2068,2063,2069,2045,2061,2038,2069,2109
2064,2058,2055,2047,2056,2046,2063,2113
2057,2043,2052,2050,2040,2042,2045,2111
2060,2039,2042,2050,2060,2040,2049,2112
2066,2042,2041,2054,2058,2029,2046,2093
2053,2035,2020,2045,2079,2027,2049,2085
2045,2031,2012,2049,2087,2052,2058,2073
2038,2030,2002,2038,2083,2058,2053,2063
2045,2038,2006,2042,2072,2046,2049,2065
2046,2041,2007,2038,2061,2049,2055,2067
2057,2049,2020,2051,2043,2050,2058,2075
2072,2068,2044,2068,2052,2022,2083,2085
2086,2072,2040,2070,2068,2026,2079,2083
2083,2063,2012,2084,2091,2039,2083,2077
2069,2048,1976,2089,2143,2043,2071,2062
2063,2039,1955,2087,2242,2077,2053,2042
2057,2036,1952,2078,2271,2107,2062,2041
2064,2032,1963,2072,2284,2129,2065,2023
2057,2028,1978,2056,2264,2120,2056,2026
2048,2039,1993,2054,2202,2116,2038,2038
2053,2057,2009,2025,2110,2106,2038,2037
2041,2044,2006,1999,2049,2070,2034,2035
2044,2045,2001,2002,1996,2039,2033,2053
2048,2047,2025,2007,1863,2016,2052,2068
2058,2068,2049,2029,1876,1991,2054,2077
2063,2068,2090,2055,1905,1986,2036,2068
2059,2068,2114,2070,1959,2015,2008,2066
2052,2064,2132,2100,2030,2078,2056,2066
2051,2075,2146,2116,2059,2094,2060,2056
2046,2070,2166,2111,2049,2090,2040,2062
2055,2071,2157,2093,2052,2075,2056,2070
2052,2061,2132,2072,2013,2039,2054,2068
2057,2046,2114,2076,1982,2019,2068,2071
2046,2046,2115,2107,2010,2025,2064,2060
2037,2051,2106,2117,1996,2031,2057,2067
2033,2039,2086,2100,1992,2037,2069,2079
2036,2045,2062,2061,1933,2042,2045,2089
2061,2064,2056,2004,1856,2067,2041,2072
2062,2066,2053,1980,1919,2090,2037,2061
2054,2072,2064,2012,2012,2116,2060,2055
2059,2076,2065,2045,2045,2112,2062,2061
2068,2074,2056,2063,2067,2072,2060,2069
2064,2053,2051,2067,2078,2050,2049,2061
2049,2053,2057,2052,2060,2066,2042,2057
2040,2036,2050,2042,2018,2052,2037,2055
2031,2032,2044,2023,2016,2000,2051,2040
2035,2048,2061,2046,2032,1994,2040,2053
2048,2070,2076,2079,2060,2014,2052,2055
2057,2077,2058,2091,2099,2014,2040,2051
2062,2062,2033,2103,2127,2004,2044,2052
2060,2058,2035,2088,2095,1999,2027,2038
2042,2050,2034,2072,2049,1998,2017,2031
2048,2046,2040,2076,2068,2013,2034,2042
2057,2065,2062,2094,2117,2029,2038,2049
2056,2068,2074,2112,2149,2037,2042,2049
2052,2064,2074,2112,2183,2032,2036,2052
2050,2057,2073,2113,2174,2013,2053,2046
2055,2056,2067,2103,2100,1992,2050,2037
2050,2055,2064,2092,2055,1984,2037,2054
2049,2054,2061,2066,2033,1990,2043,2061
2045,2052,2062,2044,2033,2012,2051,2060
2039,2043,2058,2045,2035,2023,2024,2059
2043,2045,2060,2044,2038,2055,2036,2062
2039,2044,2049,2043,2039,2079,2039,2067
2037,2046,2053,2051,2026,2083,2055,2071
2041,2042,2061,2064,2035,2086,2042,2072
2038,2040,2068,2079,2044,2077,2036,2068
2035,2030,2057,2086,2061,2068,2034,2070
2036,2031,2042,2103,2089,2072,2023,2070
2045,2037,2032,2114,2100,2062,2050,2071
2044,2037,2034,2096,2088,2072,2037,2076
2038,2056,2039,2077,2074,2072,2056,2072
2046,2066,2036,2050,2077,2068,2044,2070
2054,2053,2014,2011,2073,2052,2046,2058
2044,2045,2000,1991,2070,2029,2046,2049
2039,2046,2003,2016,2078,2023,2061,2043
2060,2062,2034,2038,2072,2021,2049,2045
2057,2066,2041,2027,1957,2013,2042,2041
2049,2045,2039,2015,1935,2024,2040,2042
2045,2041,2024,2011,1968,2035,2049,2047
2047,2044,2026,2011,2002,2041,2027,2036
2053,2056,2054,2025,2021,2035,2029,2036
2053,2065,2078,2025,2027,2029,2023,2020
2038,2046,2085,2018,2023,2037,2012,2012
2027,2041,2090,2015,1977,2060,2017,2025
2040,2060,2098,2021,1952,2064,2032,2035
2053,2066,2094,2016,1931,2022,2041,2044
2052,2073,2078,2023,1920,1972,2034,2042
2054,2069,2078,2034,1953,1936,2032,2050
2056,2065,2076,2046,2004,1949,2046,2054
2050,2061,2073,2045,2050,2008,2034,2058
2055,2062,2070,2066,2092,2060,2069,2060
2059,2060,2076,2070,2122,2083,2066,2061
2052,2062,2075,2076,2124,2096,2069,2070
2051,2055,2065,2069,2119,2092,2069,2071
2050,2055,2069,2069,2096,2074,2052,2074
2055,2063,2075,2068,2079,2063,2038,2085
2057,2068,2071,2070,2067,2055,2053,2087
2058,2063,2068,2065,2047,2046,2031,2078
2045,2042,2045,2047,2031,2029,2016,2068
2037,2039,2044,2047,2045,2038,2036,2079
2052,2056,2054,2066,2087,2054,2049,2078
2050,2051,2056,2080,2097,2058,2052,2074
2056,2056,2056,2093,2078,2058,2038,2068
2053,2055,2040,2087,2081,2058,2034,2066
2050,2054,2040,2084,2066,2052,2044,2060
2047,2058,2049,2084,2071,2053,2040,2051
2053,2056,2056,2091,2088,2045,2055,2049
2054,2056,2047,2089,2082,2043,2047,2054
2054,2058,2047,2089,2073,2049,2050,2043
2052,2063,2042,2092,2075,2058,2050,2042
2057,2056,2039,2087,2065,2047,2033,2046
2055,2059,2043,2086,2040,2041,2027,2034
2051,2054,2034,2078,2065,2037,2041,2030
2046,2044,2027,2064,2085,2041,2042,2028
2041,2029,2027,2052,2072,2044,2043,2027
2039,2035,2047,2061,2082,2045,2024,2031
2052,2048,2063,2050,2065,2053,2037,2040
2045,2046,2082,2060,2071,2041,2030,2032
2038,2050,2100,2071,2066,2027,2038,2030
2039,2047,2107,2080,2043,2015,2028,2041
2040,2054,2100,2077,2011,2007,2059,2046
2041,2056,2090,2095,2028,2030,2073,2054
2056,2062,2076,2103,2052,2042,2068,2059
2056,2055,2072,2107,2064,2049,2068,2063
2059,2054,2064,2109,2058,2043,2060,2070
2056,2052,2060,2100,2048,2040,2030,2073
2057,2051,2056,2097,2042,2038,2042,2069
2048,2048,2042,2078,2047,2033,2034,2058
2042,2038,2043,2075,2054,2040,2038,2061
2044,2037,2053,2062,2049,2043,2042,2063
2033,2020,2040,2043,2031,2047,2041,2044
2020,2018,2034,2030,1987,2029,2032,2037
2024,2028,2033,2005,1957,2028,2028,2046
2041,2033,2031,2002,1948,2007,2009,2059
2043,2045,2032,2002,1989,2000,1990,2064
2049,2057,2039,2021,2067,2042,2036,2076
2070,2067,2056,2044,2075,2072,2035,2079
2078,2068,2059,2009,2024,2070,2053,2063
2070,2062,2047,1995,2001,2084,2031,2044
2054,2055,2048,2001,1997,2037,2045,2039
2057,2060,2067,2037,2058,2000,2076,2050
2068,2066,2080,2066,2126,2034,2081,2057
2067,2075,2075,2073,2137,2074,2086,2058
2066,2064,2072,2074,2120,2089,2085,2060
2068,2064,2079,2072,2105,2088,2076,2050
2068,2079,2078,2058,2077,2076,2069,2052
2069,2062,2057,2040,2047,2065,2058,2042
2053,2039,2040,2032,2039,2055,2053,2024
2043,2040,2050,2040,2038,2058,2056,2026
2044,2063,2072,2044,2019,2056,2054,2033
2045,2067,2069,2058,2045,2071,2059,2041
2046,2063,2066,2058,2070,2070,2051,2044
2050,2053,2055,2047,2059,2051,2051,2046
2054,2057,2054,2046,2107,2045,2059,2054
2050,2056,2059,2067,2152,2061,2065,2058
2055,2051,2054,2073,2182,2065,2062,2052
2055,2054,2055,2079,2202,2059,2047,2054
2056,2057,2057,2082,2194,2082,2046,2052
2056,2056,2051,2069,2143,2084,2045,2057
2055,2054,2053,2069,2114,2060,2027,2064
2055,2052,2050,2058,2077,2026,2024,2062
2046,2042,2045,2043,2024,2020,2020,2062
2039,2037,2041,2023,1905,2012,2023,2062
2037,2037,2035,2000,1853,2009,2018,2073
2039,2039,2040,2009,1908,2058,2034,2077
2051,2050,2041,2041,1964,2101,2049,2076
2057,2049,2037,2061,1990,2096,2052,2078
2058,2042,2036,2068,2025,2036,2030,2068
2062,2047,2035,2072,2054,1901,1998,2054
2054,2038,2030,2071,2072,1914,2018,2047
2048,2039,2033,2063,2059,1999,2036,2036
2041,2043,2036,2065,2067,2070,2033,2028
2049,2049,2043,2069,2050,2120,1996,2026
2049,2044,2046,2061,2040,2168,2023,2016
2050,2057,2046,2058,2044,2166,2027,2017
2048,2062,2047,2068,2051,2114,2039,2026
2052,2059,2040,2057,2061,2012,2034,2026
2054,2048,2028,2047,2056,1998,2047,2030
2049,2042,2021,2031,2048,2034,2053,2034
2050,2039,2031,2023,2044,2046,2034,2027
2044,2038,2040,2020,2038,2050,2053,2021
2049,2043,2064,2026,2046,2034,2062,2034
2059,2058,2081,2026,2036,2018,2039,2034
2061,2046,2073,2022,2042,2025,2045,2037
2055,2046,2067,2029,2056,2030,2042,2042
2055,2051,2064,2042,2081,2045,2067,2047
2062,2050,2069,2053,2071,2040,2041,2053
2058,2035,2054,2042,2055,2021,2019,2053
2049,2028,2040,2036,2048,2023,2032,2047
2047,2019,2034,2040,2050,2057,2044,2048
2052,2023,2040,2045,2062,2080,2056,2051
2053,2035,2044,2058,2085,2098,2051,2061
2055,2047,2053,2074,2091,2108,2072,2071
2056,2043,2048,2066,2092,2108,2058,2064
2053,2045,2040,2065,2094,2104,2028,2065
2045,2048,2050,2067,2089,2110,2033,2072
2044,2047,2056,2078,2080,2107,2022,2067
2037,2041,2058,2075,2072,2097,2025,2065
2039,2039,2067,2052,2066,2056,2040,2064
2048,2044,2058,2035,2056,2032,2051,2064
2054,2043,2055,2022,2047,2040,2051,2062
2047,2041,2040,2020,2005,2034,2048,2058
2049,2039,2037,2027,1986,2039,2040,2053
2045,2032,2030,2028,2016,2039,2034,2042
2045,2029,2025,2031,2027,2049,2040,2036
2041,2031,2022,2034,2033,2043,2035,2024
2038,2027,2023,2039,2038,2038,2025,2027
2042,2027,2022,2051,2042,2042,2031,2022
2043,2030,2025,2044,2043,2034,2039,2024
2045,2041,2035,2033,2016,2015,2044,2022
2049,2049,2049,2019,2018,2044,2040,2023
2048,2050,2045,2000,2004,2044,2054,2016
2040,2041,2031,1990,1989,2037,2037,2014
2033,2033,2030,1994,2015,2033,2046,2023
2045,2046,2065,2030,2055,2007,2058,2042
2063,2076,2099,2062,2087,2019,2039,2050
2065,2084,2102,2076,2081,2028,2045,2054
2066,2077,2101,2087,2085,2042,2043,2049
2053,2064,2098,2083,2093,2065,2065,2040
2053,2051,2085,2081,2092,2076,2045,2035
2053,2054,2080,2086,2090,2065,2068,2046
2052,2057,2076,2090,2056,2048,2056,2049
2053,2066,2069,2088,2036,2034,2066,2046
2053,2062,2070,2091,2038,2040,2057,2049
2042,2058,2063,2090,2041,2037,2059,2051
2043,2060,2052,2075,2042,2050,2034,2054
2044,2052,2037,2060,2016,2057,2031,2055
2039,2045,2029,2048,2006,2079,2026,2057
2042,2044,2028,2051,2005,2079,2038,2063
2042,2042,2022,2046,2020,2066,2016,2060
2032,2031,2017,2047,2041,2022,2008,2061
2032,2030,2019,2050,2069,1992,2034,2071
2042,2042,2032,2065,2086,1978,2034,2058
2038,2044,2037,2046,2068,2012,2042,2052
2042,2052,2039,2028,2036,2036,2038,2061
2052,2053,2044,2004,2029,2058,2046,2067
2045,2052,2039,1993,2028,2065,2050,2063
2056,2048,2042,1991,2026,2060,2044,2057
2051,2043,2046,2014,2031,2049,2027,2045
2059,2050,2042,2031,2036,2043,2031,2041
2055,2041,2028,2031,2038,2029,2040,2031
2056,2046,2028,2026,2046,2022,2022,2027
2048,2036,2019,2013,2043,2020,2026,2021
2040,2029,2016,2006,2040,2012,2042,2022
2037,2033,2029,2012,2019,2016,2023,2026
2041,2040,2042,2012,1975,2044,2052,2024
2042,2046,2041,1995,1910,2043,2007,2010
2022,2029,2029,1978,1872,2056,2006,1999
2011,2023,2025,1984,1898,2041,2032,2010
2036,2034,2038,2024,2006,1999,2044,2029
2045,2041,2049,2061,2114,1993,2051,2046
2058,2058,2065,2080,2183,2027,2067,2049
2056,2063,2072,2088,2174,2064,2071,2042
2055,2052,2052,2071,2135,2073,2052,2038
2044,2034,2033,2054,2110,2070,2049,2034
2047,2039,2020,2046,2095,2068,2057,2039
2056,2042,2033,2053,2074,2063,2067,2052
2056,2061,2050,2061,2074,2064,2072,2052
2058,2061,2058,2070,2073,2061,2074,2062
2058,2062,2056,2076,2086,2061,2065,2066
2062,2062,2044,2071,2087,2059,2063,2067
2057,2051,2041,2069,2065,2057,2060,2073
2064,2046,2044,2078,2109,2061,2057,2067
2052,2038,2048,2080,2114,2057,2057,2056
2044,2033,2051,2081,2108,2054,2061,2056
2046,2050,2067,2087,2116,2057,2042,2070
2052,2050,2075,2082,2091,2059,2050,2066
2053,2052,2084,2071,2069,2055,2045,2059
2048,2055,2081,2051,2062,2051,2061,2052
2049,2059,2086,2024,1983,2045,2055,2056
2059,2068,2090,2002,1919,2028,2054,2052
2055,2068,2082,2003,1967,2040,2065,2053
2057,2058,2057,2010,2014,2054,2067,2044
2053,2047,2048,2015,2046,2064,2079,2042
2054,2047,2050,2040,2083,2064,2079,2047
2059,2056,2060,2047,2109,2062,2082,2048
2068,2066,2058,2042,2114,2052,2069,2052
2066,2064,2076,2044,2103,2045,2061,2036
2053,2055,2080,2054,2105,2047,2078,2030
2051,2054,2083,2059,2122,2053,2055,2014
2043,2052,2073,2055,2108,2040,2062,2020
2044,2042,2063,2044,2072,2034,2059,2027
2055,2051,2065,2058,2078,2039,2036,2032
2060,2053,2049,2053,2014,2031,2042,2028
2059,2042,2024,2041,1936,2032,2054,2032
2049,2045,2023,2050,1986,2039,2045,2026
2040,2034,2026,2063,2030,2040,2043,2028
2043,2039,2031,2066,2056,2043,2054,2032
2040,2039,2024,2060,2037,2050,2047,2029
2036,2032,2022,2045,2008,2056,2041,2027
2033,2030,2020,2023,1966,2055,2051,2025
2035,2031,2024,2022,1941,2057,2045,2038
2031,2039,2037,2027,1944,2043,2070,2048
2043,2048,2040,2026,1993,2018,2051,2064
2050,2046,2034,2038,2043,2017,2068,2064
2050,2051,2038,2043,2063,2033,2076,2070
2051,2046,2045,2045,2090,2054,2061,2072
2047,2040,2042,2045,2111,2072,2065,2076
2057,2038,2045,2035,2100,2079,2065,2080
2055,2036,2047,2029,2098,2073,2054,2072
2049,2033,2040,2025,2090,2070,2046,2064
2047,2034,2037,2027,2098,2089,2056,2052
2044,2032,2032,2020,2009,2085,2041,2044
2043,2030,2031,2016,2004,2077,2046,2041
2034,2020,2033,2011,2092,2076,2030,2034
2030,2020,2032,2019,2131,2068,2061,2025
2029,2023,2024,2016,2099,2057,2062,2024
2031,2025,2023,2024,2075,2061,2058,2024
2035,2031,2027,2034,2070,2064,2066,2031
2040,2036,2025,2033,2060,2062,2053,2031
2042,2038,2025,2038,2053,2058,2062,2026
2041,2043,2030,2046,2035,2046,2065,2018
2049,2047,2043,2054,2031,2046,2064,2007
2037,2045,2042,2040,2027,2024,2025,1989
2023,2029,2038,2025,2014,2029,2025,1986
2016,2030,2035,2024,2022,2034,2021,1994
2036,2045,2037,2045,2051,2017,2032,2013
2049,2057,2045,2059,2056,2012,2034,2016
2052,2061,2044,2051,2049,2016,2017,2027
2051,2047,2044,2043,2055,2023,2021,2026
2047,2049,2060,2036,2051,2035,2027,2032
2047,2051,2067,2049,2055,2036,2034,2035
2046,2055,2069,2050,2059,2030,2042,2041
2042,2056,2059,2050,2070,2029,2049,2048
2048,2057,2058,2049,2069,2030,2037,2045
2041,2059,2062,2045,2072,2030,2046,2044
2045,2059,2068,2049,2074,2038,2055,2057
2047,2054,2064,2040,2073,2038,2063,2062
2046,2048,2053,2036,2069,2042,2059,2065
2050,2046,2052,2038,2063,2040,2056,2060
2044,2034,2045,2037,2057,2023,2047,2057
2038,2029,2038,2035,2047,2024,2027,2059
2043,2047,2044,2037,2060,2033,2050,2058
2049,2053,2065,2046,2056,2033,2040,2055
2056,2062,2075,2053,2066,2035,2014,2047
2052,2059,2077,2044,2064,2035,2048,2049
2048,2060,2062,2042,2068,2040,2043,2043
2047,2053,2059,2039,2064,2064,2050,2022
2042,2056,2056,2030,2028,2087,2050,2024
2040,2050,2047,2018,1981,2071,2051,2016
2036,2039,2035,2005,1939,2035,2035,2009
2036,2035,2031,1996,1911,1998,2037,2013
2039,2038,2045,2028,1959,1952,2041,2027
2048,2045,2058,2052,2054,1982,2046,2025
2042,2034,2046,2059,2107,2029,2056,2016
2042,2035,2057,2091,2164,2078,2068,2012
2044,2051,2070,2113,2169,2091,2061,2012
2039,2038,2055,2094,2121,2073,2063,2024
2041,2038,2048,2086,2096,2055,2064,2035
2054,2045,2048,2079,2071,2045,2059,2035
2052,2042,2036,2050,2054,2042,2042,2038
2053,2046,2026,2014,2032,2032,2067,2032
2048,2042,2023,2014,2024,2033,2055,2038
2056,2039,2023,2025,2028,2045,2056,2042
2050,2040,2024,2035,2047,2072,2057,2044
2047,2047,2033,2033,2056,2092,2071,2037
2054,2051,2038,2035,2067,2102,2080,2034
2042,2049,2051,2030,2067,2088,2067,2033
2044,2050,2051,2027,2064,2086,2055,2042
2043,2052,2045,2032,2074,2087,2054,2055
2046,2053,2042,2031,2080,2101,2048,2058
2047,2050,2044,2043,2081,2124,2035,2053
2044,2044,2034,2043,2068,2131,2036,2056
2039,2033,2016,2027,2048,2096,2033,2040
2027,2008,1999,2012,2045,2042,1994,2037
2024,1999,1986,2010,2047,2009,2006,2046
2031,2012,2006,2028,2058,2024,2020,2049
2031,2026,2031,2042,2060,2034,2018,2031
2027,2033,2042,2046,2059,2014,2014,2030
2037,2045,2049,2062,2062,1997,2028,2038
2042,2049,2056,2070,2069,2001,2029,2046
2045,2053,2060,2073,2076,2018,2022,2042
2040,2046,2043,2074,2086,2049,2045,2029
2034,2034,2031,2069,2084,2067,2040,2018
2032,2034,2041,2078,2102,2078,2044,2018
2042,2050,2062,2081,2108,2091,2053,2016
2042,2056,2063,2085,2118,2094,2053,2021
2042,2052,2062,2071,2107,2089,2048,2025
2043,2045,2058,2062,2099,2078,2054,2026
2047,2046,2059,2051,2079,2072,2047,2028
2050,2050,2062,2048,2068,2061,2029,2018
2044,2054,2058,2056,2083,2070,2040,2018
2045,2048,2057,2067,2099,2080,2060,2026
2056,2054,2052,2066,2081,2073,2056,2030
2050,2056,2040,2062,2069,2063,2046,2024
2052,2053,2027,2056,2045,2056,2057,2025
2049,2050,2029,2031,2013,2052,2036,2028
2049,2062,2033,2023,1999,2049,2020,2031
2045,2060,2036,2014,1978,2035,2016,2033
2048,2054,2036,1997,1931,2036,2042,2041
2048,2054,2034,1976,1937,2088,2042,2039
2049,2052,2025,1971,1962,2102,2035,2040
2045,2046,2019,1970,1935,2103,2040,2036
2040,2035,2018,1979,1965,2086,2029,2033
2038,2035,2021,1997,2007,2031,2024,2050
2038,2040,2046,2044,2050,1941,2014,2079
2051,2053,2069,2109,2140,1965,1999,2080
2055,2060,2094,2146,2174,1999,2011,2074
2051,2055,2097,2135,2184,2042,2024,2069
2051,2055,2081,2093,2185,2084,2039,2062
2045,2055,2059,2042,2140,2079,2020,2057
2038,2039,2047,1972,2066,2050,2017,2048
2039,2034,2044,1952,2036,2028,2028,2046
2045,2044,2052,1985,2039,2023,2049,2043
2045,2046,2060,2011,2018,1988,2020,2035
2042,2044,2061,2021,1997,1978,2034,2034
2039,2044,2043,2017,1969,1988,2022,2028
2038,2037,2030,1999,1913,2016,2022,2022
2031,2032,2022,2004,1922,2043,2069,2032
2037,2029,2017,1987,1911,2067,2050,2033
2045,2033,2021,1980,1879,2047,2044,2021
2039,2029,2019,1979,1881,1990,2036,2021
2045,2034,2026,2001,1973,1996,2016,2018
2037,2030,2015,2026,2062,2030,2019,2007
2029,2025,2003,2050,2146,2065,2039,2017
2037,2031,2020,2088,2198,2064,2052,2034
2061,2052,2037,2113,2243,2050,2063,2047
2056,2052,2030,2114,2246,2065,2080,2045
2053,2042,2013,2101,2225,2094,2074,2034
2040,2030,2015,2104,2152,2115,2061,2033
2033,2030,2027,2110,2085,2094,2049,2031
2036,2045,2051,2110,1990,2065,2058,2039
2041,2054,2064,2096,1902,2062,2046,2052
2056,2071,2075,2090,1962,2084,2071,2064
2054,2064,2060,2076,2018,2100,2072,2058
2051,2056,2050,2078,2085,2106,2071,2063
2048,2055,2046,2077,2065,2106,2077,2056
2051,2064,2052,2042,1917,2097,2078,2066
2054,2062,2035,2024,1893,2083,2070,2073
2048,2053,2030,2031,1966,2063,2049,2070
2045,2047,2015,2033,2052,2059,2032,2056
2036,2030,1997,2031,2150,2051,2039,2059
2039,2022,1989,2021,2224,2044,2042,2054
2038,2032,1990,2004,2315,2047,2038,2050
2033,2021,1975,1952,2218,2019,2030,2051
2027,2012,1990,1931,1998,1992,2027,2046
2039,2036,2043,1936,1836,1974,2024,2054
2040,2047,2079,1949,1869,1968,2020,2043
2039,2054,2102,1957,1938,1978,2029,2032
2044,2060,2126,1978,1937,2024,2041,2035
2044,2080,2157,2017,1898,2046,2009,2042
2054,2086,2160,2047,1878,2059,2021,2026
2042,2074,2142,2059,1858,2048,2015,2012
2039,2067,2140,2085,1919,2000,2036,2021
2041,2069,2157,2153,2137,2019,2031,2030
2044,2058,2146,2181,2272,2083,2065,2031
2032,2043,2108,2177,2301,2132,2075,2025
2037,2032,2067,2161,2265,2125,2046,2022
2025,2017,2036,2115,2183,2077,2037,2016
2025,2018,2017,2092,2142,2038,2065,2019
2043,2025,2015,2060,2076,2001,2035,2028
2042,2025,1998,2015,2026,1989,2042,2032
2044,2035,1988,2022,2035,2019,2044,2037
2046,2040,1993,2023,2020,2047,2041,2037
2050,2042,2002,2025,2051,2072,2050,2037
2046,2047,2007,2026,2089,2070,2049,2043
2047,2042,2008,1998,2092,2060,2040,2048
2039,2043,2006,1992,2111,2048,2050,2045
2041,2051,2020,2013,2135,2047,2023,2053
2044,2064,2036,2012,2125,2065,2014,2055
2047,2052,2028,2006,2107,2065,2040,2067
2047,2053,2035,2003,2064,2057,2041,2068
2044,2047,2040,2002,2037,2056,2005,2053
2041,2033,2024,1981,1960,2021,1999,2055
2032,2018,2012,1965,1884,1954,1990,2063
2043,2030,2026,1992,1974,1983,1986,2065
2051,2048,2056,2030,2049,2059,2010,2054
2048,2054,2059,2047,2038,2121,2037,2050
2041,2048,2047,2055,2033,2153,2049,2055
2037,2043,2031,2032,1969,2134,2058,2060
2041,2040,2036,2018,1970,2120,2062,2065
2048,2044,2046,2047,1941,2084,2072,2072
2058,2034,2064,2052,1878,2090,2060,2060
2050,2032,2084,2064,1819,2107,2064,2045
2056,2055,2117,2087,1747,2079,2054,2033
2056,2064,2112,2081,1682,2039,2060,2032
2058,2070,2101,2097,1823,2046,2036,2032
2067,2074,2082,2134,2022,2053,2043,2048
2063,2070,2068,2149,2147,2072,2056,2045
2062,2060,2064,2151,2238,2101,2060,2050
2071,2060,2060,2100,2197,2129,2074,2033
2055,2046,2031,2059,2264,2097,2028,1999
2029,2019,1990,2029,2307,2056,2019,2000
2020,2021,1997,2069,2443,2087,2048,2017
2046,2043,2022,2105,2544,2102,2063,2049
2062,2057,2041,2108,2456,2101,2086,2062
2061,2060,2041,2056,2253,2123,2089,2061
2057,2064,2042,2009,1995,2138,2082,2057
2051,2060,2020,1929,1719,2062,2065,2052
2053,2064,2020,1902,1699,2016,2051,2052
2065,2070,2033,1941,1824,2024,2040,2052
2061,2068,2039,1977,1932,1995,2034,2051
2051,2056,2031,1989,1983,1960,2035,2058
2050,2049,2013,1968,1918,1958,2040,2065
2034,2038,2001,1988,2104,2021,2053,2069
2037,2036,2018,2058,2184,2102,2081,2072
2036,2027,2017,2096,2187,2078,2058,2059
2031,2025,2025,2069,2070,2006,2040,2060
2035,2024,2038,2052,2040,1986,2022,2063
2046,2024,2049,2047,2117,2024,2027,2069
2042,2031,2049,2051,2178,2055,2031,2059
2034,2020,2044,2078,2211,2075,2053,2046
2034,2023,2063,2066,2165,2063,2025,2035
2027,2018,2071,2026,2004,2032,2018,2025
2019,2017,2067,2006,1942,2036,2014,2017
2025,2037,2079,2004,1939,2038,2033,2025
2040,2064,2091,1996,1939,2021,2034,2024
2058,2063,2088,1995,1903,1980,2031,2036
2064,2061,2071,2004,1930,1986,2031,2037
2061,2058,2069,2024,1997,2011,2056,2037
2060,2057,2064,2034,2015,2031,2050,2028
2061,2046,2059,2044,2129,2052,2049,2020
2044,2037,2053,2069,2253,2056,2050,2017
2041,2045,2063,2091,2270,2057,2049,2020
2042,2033,2058,2081,2238,2046,2034,2005
2033,2025,2053,2067,2156,2041,2040,2010
2031,2032,2062,2054,2091,2042,2044,2017
2037,2035,2052,2043,2020,2018,2021,2018
2033,2034,2057,2038,2006,2001,2028,2015
2031,2029,2067,2047,2025,2016,2047,2022
2045,2051,2096,2071,2038,2037,2064,2045
2064,2070,2103,2078,2031,2043,2067,2039
2057,2059,2089,2085,2052,2042,2042,2043
2057,2053,2073,2082,2049,2024,2057,2039
2052,2048,2054,2075,2061,2026,2062,2050
2043,2036,2026,2053,2062,2023,2045,2053
2040,2029,2015,2034,1984,2029,2047,2063
2040,2031,2010,2038,2015,2041,2048,2059
2037,2034,2016,2049,1979,2062,2044,2076
2052,2041,2017,2047,2078,2083,2063,2086
2055,2046,2030,2061,2141,2105,2083,2086
2058,2044,2035,2067,2066,2106,2071,2090
2060,2032,2031,2052,1986,2099,2073,2083
2067,2044,2044,2061,2003,2115,2086,2089
2066,2053,2049,2070,1950,2103,2085,2086
2058,2058,2038,2061,1946,2051,2072,2080
2050,2040,2013,2005,1779,1987,2055,2068
2049,2026,1989,1982,1688,1962,2063,2068
2040,2025,1987,1984,1773,1964,2038,2054
2038,2030,2005,2055,2149,2009,2032,2036
2039,2028,2035,2139,2360,2062,2043,2031
2035,2030,2055,2150,2289,2102,2047,2037
2036,2038,2055,2115,2088,2126,2043,2030
2039,2053,2071,2068,1804,2108,2041,2022
2036,2065,2080,2037,1738,2087,2024,2028
2047,2072,2078,2027,1798,2055,2041,2040
2050,2068,2065,2034,1878,2018,2043,2055
2063,2068,2068,2061,2005,2046,2062,2048
2063,2054,2070,2058,2064,2082,2076,2046
2070,2067,2076,2032,2117,2080,2066,2051
2072,2065,2070,1988,2229,2036,2047,2044
2059,2052,2037,1953,2383,2028,2039,2039
2049,2047,2031,1941,2361,2042,2029,2024
2044,2040,2043,1988,2208,2056,2017,2023
2036,2036,2063,2020,2033,2070,2032,2031
2045,2037,2071,1976,1790,2070,2054,2050
2046,2044,2059,1961,1789,2072,2068,2058
2054,2038,2029,1928,1797,2043,2052,2073
2052,2041,2015,1948,1906,2040,2060,2073
2057,2049,2031,2023,2183,2082,2076,2070
2054,2049,2044,2104,2355,2098,2046,2068
2065,2054,2056,2126,2393,2104,2039,2074
2052,2044,2039,2126,2328,2100,2039,2061
2029,2031,2030,2143,2373,2108,2076,2061
2028,2038,2048,2195,2516,2124,2090,2072
2033,2042,2059,2199,2529,2126,2056,2081
2038,2043,2059,2159,2405,2117,2055,2075
2056,2062,2059,2090,2112,2062,2057,2069
2052,2052,2049,2052,1975,2036,2043,2070
2052,2053,2047,2074,1953,2052,2053,2058
2056,2060,2052,2084,1948,2077,2051,2054
2055,2065,2050,2048,1944,2062,2030,2037
2062,2065,2038,2004,1844,2026,2004,2032
2060,2046,2025,2014,1796,2015,2014,2036
2058,2038,2029,1997,1687,1949,2004,2042
2058,2034,2014,1975,1661,1904,2012,2026
2056,2028,2019,1998,1855,1920,2014,2020
2048,2026,2029,2014,2035,1938,2013,2020
2048,2022,2027,2030,2185,1970,2006,2010
2042,2027,2028,2053,2264,2011,2025,2006
2044,2037,2030,2070,2295,2042,2015,1997
2036,2035,2021,2053,2261,2055,2017,1995
2026,2032,2012,2034,2193,2089,2029,2013
2033,2043,2021,2026,2057,2092,2036,2027
2050,2045,2020,2012,1969,2076,2039,2033
2048,2042,2020,2017,1951,2048,2040,2047
2048,2051,2050,2049,1943,1997,2053,2050
2061,2070,2084,2098,1991,2008,2080,2072
2080,2086,2114,2148,2045,2049,2094,2089
2087,2097,2124,2145,1961,2031,2075,2081
2078,2085,2105,2102,1883,1993,2049,2055
2048,2058,2101,2062,1912,1964,2042,2024
2020,2032,2082,2050,2047,1980,2037,2017
2021,2022,2077,2073,2000,2005,2037,2033
2036,2038,2110,2145,2119,2011,2030,2050
2049,2058,2134,2176,2090,2009,2034,2062
2052,2068,2136,2149,1953,2028,2040,2072
2046,2067,2132,2139,1952,2042,2050,2057
2033,2046,2096,2101,1964,2045,2045,2051
2027,2031,2065,2072,2000,2057,2050,2054
2029,2035,2049,2051,2086,2072,2056,2055
2035,2037,2026,2024,2145,2069,2047,2052
2027,2032,2016,1990,2165,2073,2047,2045
2037,2038,1998,1994,2173,2075,2040,2042
2046,2040,2002,2001,2168,2073,2046,2036
2053,2054,2005,1999,2148,2049,2038,2032
2059,2058,2008,1992,2128,2000,2020,2040
2064,2047,1991,1977,2154,1990,2029,2039
2058,2034,1979,1970,2204,2021,2025,2038
2060,2038,1995,1980,2198,2051,2024,2032
2055,2051,2018,1985,2119,2092,2065,2024
2053,2047,2025,1982,2086,2122,2069,2017
2043,2033,2025,1973,2040,2104,2057,2012
2035,2028,2036,1961,1976,2066,2053,2026
2041,2037,2055,1961,1918,2003,2046,2032
2041,2031,2050,1980,1999,1991,2049,2037
2045,2039,2055,1988,1967,1997,2042,2032
2052,2049,2057,1987,1958,1983,2033,2022
2052,2053,2060,2008,2041,2019,2012,2022
2053,2044,2062,2023,1911,2042,2049,2032
2051,2056,2068,2039,1934,2071,2047,2037
2059,2056,2074,2050,1994,2084,2042,2039
2059,2042,2057,2038,2011,2076,2046,2040
2051,2039,2033,2027,2011,2073,2061,2051
2046,2033,2017,2016,2027,2074,2056,2054
2043,2034,2016,2007,2015,2064,2046,2047
2036,2040,2019,2017,2022,2051,2027,2048
2041,2045,2025,2030,2031,2037,2024,2056
2041,2038,2008,2015,2018,2015,2022,2051
2038,2033,2001,2020,2040,2010,2029,2056
2039,2039,2001,2031,2087,2027,2030,2061
2042,2033,1990,2042,2117,2028,2006,2066
2037,2028,1997,2055,2148,2031,2027,2077
2049,2032,2014,2062,2113,2036,2034,2074
2049,2032,2009,2056,2072,2047,2031,2067
2051,2030,2003,2040,2061,2047,2041,2065
2052,2032,2003,2043,2054,2054,2041,2057
2056,2039,2005,2037,2042,2048,2043,2030
2052,2030,2003,2035,2036,2035,2018,2014
2034,2025,2020,2037,2037,2043,2028,2020
2024,2029,2027,2048,2041,2058,2027,2024
2030,2030,2026,2045,2045,2051,2030,2019
2034,2027,2029,2046,2041,2052,2049,2020
2034,2028,2043,2048,2039,2050,2029,2018
2038,2034,2077,2055,2047,2055,2013,2017
2043,2045,2085,2061,2043,2060,2023,2014
2047,2037,2074,2051,2049,2054,2046,2022
2053,2034,2076,2054,2047,2047,2040,2021
2040,2026,2075,2051,2052,2035,2050,2019
2046,2035,2087,2050,2055,2029,2044,2019
2053,2050,2084,2056,2065,2031,2058,2036
2059,2062,2076,2059,2067,2021,2047,2033
2056,2057,2056,2066,2067,2017,2043,2037
2055,2055,2054,2072,2059,2018,2039,2034
2053,2045,2048,2066,2048,2015,2044,2032
2042,2041,2039,2056,2039,2019,2044,2036
2043,2028,2023,2042,2028,2017,2034,2035
2040,2020,2009,2033,2021,2020,2050,2039
2038,2022,2021,2042,2035,2024,2049,2044
2046,2037,2040,2047,2036,2046,2061,2061
2064,2043,2052,2054,2044,2064,2063,2074
2064,2054,2058,2066,2051,2074,2084,2088
2055,2054,2054,2069,2055,2098,2088,2084
2061,2043,2042,2062,2056,2091,2046,2080
2046,2032,2025,2053,2041,2084,2073,2065
2033,2011,2001,2030,2030,2080,2052,2060
2020,2004,1990,2024,2016,2078,2039,2064
2024,2018,2010,2029,2020,2084,2036,2056
2043,2034,2013,2030,2029,2105,2046,2065
2047,2039,2020,2035,2034,2122,2055,2064
2054,2040,2023,2038,2043,2121,2055,2054
2055,2037,2026,2036,2050,2103,2057,2050
2048,2027,2020,2029,2048,2052,2048,2036
2052,2026,2026,2025,2050,2044,2022,2025
2041,2019,2030,2022,2049,2033,2017,2027
2038,2017,2028,2017,2040,2010,2023,2025
2044,2024,2024,2015,2022,1982,2026,2025
2046,2023,2022,2018,2008,1980,2039,2017
2054,2032,2039,2024,2011,1985,2054,2027
2056,2045,2056,2037,2012,1990,2056,2024
2053,2054,2049,2036,2005,1986,2044,2029
2046,2044,2027,2027,2006,1972,2002,2021
2042,2025,2008,2025,2019,1971,2023,2028
2034,2023,2008,2031,2028,1999,2013,2038
2046,2041,2026,2039,2038,2023,2039,2043
2053,2053,2052,2047,2042,2027,2011,2042
2056,2062,2069,2052,2040,2035,2034,2043
2056,2066,2076,2060,2050,2045,2037,2042
2058,2068,2071,2063,2054,2049,2047,2044
2058,2059,2064,2058,2050,2047,2050,2049
2055,2048,2063,2058,2051,2049,2043,2048
2054,2047,2063,2056,2053,2048,2048,2047
2048,2039,2074,2060,2057,2051,2043,2047
2048,2043,2084,2076,2061,2059,2054,2049
2054,2043,2115,2087,2061,2064,2030,2056
2057,2055,2132,2101,2060,2054,2031,2054
2057,2051,2120,2101,2062,2044,2045,2064
2051,2048,2115,2102,2062,2040,2030,2053
2053,2042,2101,2105,2053,2040,2009,2055
2044,2035,2079,2100,2057,2046,2009,2054
2051,2047,2064,2110,2061,2055,2031,2058
2061,2052,2051,2111,2061,2056,2042,2060
2057,2049,2035,2106,2053,2047,2048,2056
2062,2047,2025,2097,2049,2044,2043,2045
2060,2047,2014,2083,2041,2034,2036,2043
2049,2031,2005,2060,2010,2015,2035,2024
2037,2024,2003,2044,1983,2017,2040,2023
2030,2024,2009,2041,1974,2001,2030,2015
2027,2024,2048,2029,1963,2001,2033,2006
2032,2034,2085,2031,1997,2027,2037,2020
2045,2049,2106,2039,2036,2051,2045,2029
2058,2059,2134,2047,2072,2071,2066,2038
2064,2079,2140,2057,2102,2091,2062,2054
2066,2092,2148,2074,2108,2092,2076,2052
2077,2093,2140,2083,2087,2082,2065,2044
2076,2078,2130,2087,2069,2046,2029,2045
2075,2075,2117,2099,2068,2024,2040,2050
2079,2080,2102,2098,2080,2036,2055,2052
2070,2070,2075,2089,2079,2052,2050,2035
2058,2059,2047,2073,2078,2068,2055,2035
2055,2052,2034,2057,2069,2063,2047,2043
2058,2057,2023,2033,2061,2068,2044,2057
2064,2053,2009,2018,2059,2066,2064,2055
2063,2043,2001,2009,2065,2069,2063,2054
2053,2035,1999,2010,2075,2071,2058,2056
2056,2042,1999,2003,2080,2079,2046,2058
2055,2045,2003,2017,2080,2069,2062,2060
2053,2046,2013,2030,2069,2058,2037,2065
2053,2034,2008,2021,2046,2044,2060,2072
2052,2023,2004,2014,2010,2047,2047,2077
2053,2023,2014,2031,2046,2056,2053,2086
2061,2028,2037,2048,2052,2052,2040,2077
2055,2019,2038,2049,2056,2050,2040,2075
2052,2024,2043,2054,2045,2062,2047,2075
2059,2046,2074,2060,2071,2068,2045,2067
2052,2056,2091,2071,2119,2064,2056,2060
2047,2064,2106,2072,2154,2061,2055,2050
2045,2062,2096,2055,2115,2051,2049,2050
2044,2059,2086,2049,2053,2061,2045,2042
2045,2063,2076,2056,2038,2069,2038,2037
2044,2058,2063,2052,2052,2049,2043,2042
2052,2058,2058,2046,2012,2013,2056,2048
2058,2059,2052,2045,1966,2011,2056,2040
2058,2052,2044,2042,1985,2026,2060,2040
2058,2050,2038,2040,2002,2031,2066,2030
2052,2042,2033,2034,2021,2050,2044,2028
2051,2041,2030,2022,2043,2062,2029,2016
2044,2043,2028,2034,2078,2071,2026,2021
2048,2044,2039,2049,2131,2068,2036,2019
2042,2039,2039,2078,2210,2055,2055,2009
2038,2037,2052,2084,2159,2031,2057,2015
2045,2047,2057,2086,2118,2040,2080,2026
2047,2043,2050,2086,2064,2027,2065,2030
2047,2042,2041,2046,1904,2004,2046,2027
2045,2044,2041,2050,1921,2019,2051,2029
2047,2051,2043,2058,1991,2025,2051,2032
2052,2042,2048,2048,1990,2016,2038,2033
2050,2036,2033,2033,1959,2008,2046,2041
2056,2033,2041,2035,1962,2014,2044,2050
2055,2036,2045,2030,1963,2012,2057,2047
2047,2036,2062,2041,1986,2012,2054,2058
2051,2047,2079,2056,1993,2021,2060,2064
2053,2049,2077,2048,2003,2034,2042,2066
2054,2053,2082,2061,2044,2068,2056,2077
2064,2071,2093,2091,2101,2098,2062,2082
2078,2069,2087,2101,2131,2105,2070,2081
2068,2069,2077,2092,2159,2107,2041,2076
2060,2067,2074,2070,2128,2108,2052,2074
2056,2070,2067,2050,2003,2104,2042,2063
2051,2057,2057,2024,1900,2057,2038,2053
2047,2048,2048,2013,1955,2021,2029,2052
2049,2044,2044,2021,1994,1968,2028,2050
2052,2043,2041,2051,2096,1975,2019,2045
2045,2041,2045,2069,2196,2030,2045,2048
2054,2043,2055,2097,2242,2085,2063,2045
2053,2048,2066,2110,2238,2105,2078,2050
2060,2054,2076,2103,2171,2065,2050,2052
2064,2056,2085,2100,2088,2046,2054,2044
2055,2046,2080,2072,1927,2026,2058,2039
2056,2041,2076,2071,1960,2032,2061,2030
2064,2042,2068,2087,2049,2047,2056,2028
2050,2040,2062,2102,2071,2053,2056,2026
2046,2036,2050,2094,2043,2052,2042,2025
2043,2035,2040,2074,1935,2050,2058,2031
2056,2046,2047,2086,1955,2079,2052,2044
2064,2054,2055,2089,1989,2096,2082,2049
2059,2051,2042,2077,1984,2101,2082,2048
2054,2063,2042,2060,1841,2105,2067,2047
2066,2068,2057,2091,1960,2141,2053,2047
2056,2062,2060,2101,2031,2141,2047,2045
2058,2060,2059,2073,2034,2111,2039,2032
2041,2044,2047,2052,2110,2072,2004,2018
2034,2029,2032,2046,2198,2023,2016,2034
2034,2035,2033,2058,2169,1926,2033,2053
2038,2041,2054,2078,2105,1949,2050,2055
2040,2036,2058,2079,2072,2014,2075,2056
2040,2030,2067,2077,2142,2056,2064,2056
2038,2039,2055,2073,2157,2064,2066,2059
2039,2030,2043,2060,2090,2044,2069,2053
2035,2025,2036,2025,1984,2016,2064,2058
2027,2025,2036,2004,1947,2019,2055,2056
2039,2033,2025,2000,1978,2034,2068,2063
2044,2039,2035,2023,2052,2007,2049,2060
2050,2044,2036,2026,2081,2008,2043,2057
2048,2053,2032,2023,2070,2008,2046,2058
2049,2052,2007,2001,2079,2028,2051,2049
2042,2036,1981,1986,2074,2045,2064,2034
2046,2032,1976,1998,2082,2064,2053,2032
2047,2035,1992,2025,2090,2067,2040,2023
2049,2045,2019,2045,2084,2047,2046,2027
2052,2048,2027,2052,2067,2035,2057,2032
2047,2047,2036,2044,2054,2032,2054,2026
2047,2046,2036,2039,2042,2037,2056,2028
2052,2039,2029,2038,2007,2037,2056,2028
2046,2039,2036,2048,2080,2050,2060,2032
2043,2041,2034,2057,2130,2056,2060,2029
2036,2037,2039,2066,2133,2067,2066,2038
2049,2038,2039,2074,2141,2080,2053,2041
2057,2043,2035,2080,2141,2089,2064,2038
2061,2050,2032,2078,2143,2089,2076,2038
2067,2050,2032,2056,2093,2073,2073,2039
2059,2052,2033,2028,2009,2053,2039,2040
2053,2049,2030,1998,1917,2055,2031,2041
2052,2049,2046,2014,1985,2076,2061,2046
2059,2057,2053,2027,2050,2071,2053,2039
2057,2049,2058,2038,2151,2065,2052,2049
2052,2048,2053,2045,2177,2045,2057,2060
2054,2046,2051,2060,2121,2045,2067,2063
2055,2046,2054,2065,2077,2045,2051,2069
2054,2041,2048,2059,2076,2044,2061,2073
2049,2040,2047,2062,2116,2034,2046,2075
2039,2044,2045,2062,2112,2023,2059,2065
2032,2036,2052,2058,2058,2017,2054,2058
2034,2047,2066,2031,1850,2008,2045,2060
2049,2068,2087,2031,1848,2013,2075,2068
2053,2075,2091,2037,1969,2019,2078,2075
2059,2068,2079,2034,2032,2017,2059,2056
2052,2060,2064,2018,1978,2007,2054,2058
2058,2055,2063,2021,1956,2027,2058,2057
2065,2060,2066,2047,2010,2021,2050,2049
2062,2055,2063,2047,1980,1978,2034,2036
2056,2056,2063,2049,1955,1977,2037,2035
2045,2051,2053,2049,2017,2007,2045,2024
2050,2047,2050,2048,2067,2032,2051,2035
2061,2055,2054,2063,2096,2061,2044,2035
2058,2053,2048,2052,2080,2093,2056,2027
2057,2049,2051,2050,2095,2096,2044,2031
2053,2053,2045,2046,2104,2080,2050,2023
2048,2049,2045,2053,2126,2080,2042,2016
2037,2036,2038,2053,2135,2076,2044,2017
2039,2043,2040,2060,2138,2080,2057,2020
2057,2062,2054,2075,2143,2091,2063,2030
2058,2061,2054,2083,2133,2098,2062,2033
2061,2060,2043,2074,2066,2099,2046,2034
2059,2048,2040,2053,1926,2062,2030,2038
2052,2049,2038,2043,1913,2039,2045,2035
2048,2044,2040,2053,1936,1998,2012,2026
2048,2042,2045,2054,1950,1962,2030,2024
2049,2043,2050,2056,1970,1976,2026,2040
2049,2041,2051,2055,1996,2014,2034,2040
2041,2043,2058,2060,2022,2039,2034,2052
2044,2050,2064,2072,2040,2059,2047,2062
2044,2061,2064,2075,2036,2054,2041,2076
2053,2067,2067,2078,2021,2057,2056,2089
2052,2064,2047,2069,1997,2057,2061,2079
2049,2059,2033,2057,2008,2041,2029,2068
2041,2045,2029,2052,2030,2064,2040,2062
2039,2042,2018,2045,1996,2089,2063,2064
2042,2046,2021,2024,1953,2078,2049,2055
2040,2041,2006,2001,1864,2041,2041,2051
2039,2038,2009,1989,1802,1994,2036,2053
2043,2042,2024,2011,1886,1982,2029,2065
2055,2049,2034,2026,1985,1995,2049,2069
2051,2044,2032,2031,2022,2034,2057,2050
2046,2037,2028,2045,2073,2106,2080,2043
2051,2042,2047,2075,2100,2134,2076,2047
2057,2046,2046,2109,2182,2153,2082,2043
2049,2036,2032,2105,2207,2137,2076,2030
2047,2036,2031,2095,2161,2096,2032,2030
2038,2039,2057,2088,2086,2058,2035,2026
2046,2048,2094,2104,2062,2044,2038,2031
2055,2058,2103,2102,2020,2034,2045,2022
2042,2047,2085,2102,2022,2036,2027,2015
2041,2032,2047,2084,2015,2051,2038,2018
2040,2028,2024,2074,1989,2073,2044,2021
2044,2032,2014,2062,1992,2094,2043,2010
2045,2026,2015,2053,2010,2101,2049,2008
2043,2028,2005,2042,2021,2088,2039,2008
2031,2025,1989,2040,2058,2020,2029,2018
2038,2024,1993,2048,2084,1984,2036,2031
2038,2022,1998,2053,2084,1983,2036,2040
2040,2027,2002,2052,2087,2008,2058,2051
2042,2023,1999,2037,2089,2032,2051,2050
2044,2021,1995,2033,2095,2037,2042,2054
2035,2013,1995,2030,2095,2026,2044,2049
2024,2004,1984,2013,2089,2027,2027,2055
2030,2010,2002,2014,2081,2032,2038,2057
2030,2034,2040,2039,2094,2038,2042,2062
2041,2060,2076,2071,2116,2054,2052,2072
2042,2058,2076,2072,2077,2047,2040,2069
2039,2054,2063,2068,2032,2046,2044,2069
2048,2060,2062,2057,1965,2046,2045,2070
2050,2063,2071,2069,1988,2055,2047,2077
2060,2068,2077,2083,2023,2061,2041,2070
2056,2071,2075,2086,2023,2061,2045,2064
2061,2074,2087,2093,2031,2063,2047,2062
2064,2080,2100,2104,2048,2063,2055,2052
2063,2079,2099,2099,2053,2061,2033,2049
2060,2070,2080,2080,2031,2041,2022,2049
2054,2067,2074,2072,2029,2028,2026,2045
2051,2064,2061,2093,2086,2047,2034,2049
2056,2063,2068,2098,2140,2060,2027,2037
2058,2063,2059,2081,2118,2063,2028,2026
2048,2052,2043,2051,2092,2052,2040,2017
2044,2042,2026,2021,2033,2038,2039,2013
2044,2032,2023,1997,2015,2024,2021,2006
2034,2032,2032,1995,2016,2022,2028,2010
2038,2037,2045,1992,2011,2022,2031,2018
2052,2057,2061,2000,2004,2030,2039,2026
2047,2056,2056,2012,2008,2043,2046,2031
2045,2049,2053,2021,2026,2052,2048,2033
2038,2044,2057,2033,2084,2069,2065,2034
2046,2052,2068,2042,2108,2082,2061,2048
2053,2057,2065,2049,2119,2076,2056,2053
2056,2057,2084,2062,2080,2071,2056,2056
2058,2066,2096,2069,2014,2072,2063,2065
2060,2068,2095,2070,1997,2073,2057,2074
2061,2063,2091,2065,1996,2068,2054,2075
2059,2067,2079,2068,2023,2084,2060,2073
2051,2058,2076,2087,2093,2104,2068,2078
2066,2077,2088,2110,2125,2100,2072,2091
2069,2070,2081,2100,2135,2085,2052,2084
2064,2058,2045,2071,2229,2070,2039,2071
2044,2042,2010,2052,2358,2048,2027,2072
2038,2044,1995,2050,2365,2030,2030,2066
2041,2044,1980,2004,2098,1980,2023,2066
2037,2035,1968,1950,1845,1968,2002,2057
2037,2042,1973,1966,1778,1988,2028,2048
2047,2046,1987,2000,1841,1996,2015,2038
2041,2052,1988,2008,1895,2002,2017,2045
2045,2044,1991,2001,1935,2001,2032,2046
2040,2042,1993,2000,1963,2013,2034,2036
2042,2034,2006,2011,2008,2037,2042,2036
2049,2044,2037,2047,2080,2069,2047,2040
2059,2053,2058,2074,2104,2086,2059,2048
2066,2059,2067,2073,2105,2090,2074,2045
2068,2063,2086,2081,2106,2096,2072,2042
2060,2056,2094,2076,2091,2087,2055,2039
2061,2052,2087,2060,2048,2050,2062,2028
2054,2041,2063,2037,1974,2013,2019,2019
2050,2032,2056,2040,1998,2015,2010,2013
2056,2047,2064,2044,2016,2030,2024,2019
2059,2061,2072,2053,2039,2038,2047,2020
2055,2071,2070,2058,2045,2042,2049,2033
2060,2067,2051,2047,2044,2045,2055,2032
2068,2064,2045,2044,2039,2050,2049,2048
2069,2073,2047,2041,2049,2058,2056,2059
2063,2070,2051,2038,2012,2052,2053,2054
2068,2066,2045,2029,1971,2049,2052,2059
2056,2061,2041,2012,1961,2042,2058,2060
2049,2051,2037,2003,1934,2042,2046,2063
2054,2058,2044,2013,2062,2049,2046,2069
2048,2051,2057,2023,2145,2065,2056,2075
2053,2052,2073,2042,2144,2085,2070,2083
2053,2055,2075,2048,2145,2094,2063,2082
2048,2047,2067,2043,2133,2096,2051,2074
2043,2032,2062,2046,2141,2100,2063,2076
2043,2038,2062,2062,2130,2112,2060,2079
2056,2045,2066,2065,2099,2110,2060,2071
2052,2046,2065,2049,1978,2071,2059,2060
2049,2047,2054,2032,1964,2040,2043,2059
2047,2045,2054,2049,2065,2055,2046,2056
2049,2049,2051,2062,2135,2056,2035,2052
2054,2050,2058,2056,2110,2054,2034,2041
2045,2049,2052,2043,2022,2061,2033,2033
2041,2045,2049,2009,1880,2042,2028,2037
2052,2048,2053,2010,1858,2024,2041,2041
2053,2047,2054,2020,1881,2019,2054,2037
2056,2047,2058,2020,1901,1982,2051,2041
2065,2060,2073,2025,1946,1979,2046,2048
2074,2069,2082,2041,1980,1990,2048,2036
2067,2064,2078,2058,2029,2009,2049,2033
2051,2053,2073,2050,2031,2015,2053,2022
2040,2035,2061,2049,2074,2016,2047,2023
2038,2032,2046,2043,2070,2008,2048,2032
2054,2045,2054,2050,2020,2025,2045,2028
2052,2056,2059,2038,1936,2040,2042,2035
2057,2054,2060,2014,1831,2034,2040,2032
2056,2056,2059,1994,1779,2020,2036,2035
2063,2052,2047,1991,1852,2001,2029,2043
2057,2047,2045,2010,1995,1981,2053,2053
2059,2054,2055,2037,2141,2030,2073,2057
2060,2049,2052,2047,2220,2069,2068,2054
2057,2044,2044,2054,2219,2094,2068,2053
2052,2037,2038,2064,2210,2098,2056,2056
2046,2031,2037,2060,2205,2103,2054,2057
2042,2033,2040,2063,2215,2104,2042,2060
2045,2034,2042,2081,2215,2107,2037,2061
2047,2039,2043,2065,2153,2084,2053,2077
2055,2034,2038,2056,2092,2050,2024,2066
2043,2033,2033,2045,2068,2064,2030,2062
2038,2041,2039,2039,2020,2085,2032,2058
2043,2044,2039,2021,1948,2090,2020,2044
2037,2047,2041,2011,1966,2079,2047,2053
2050,2049,2043,2019,2033,2055,2057,2066
2045,2045,2050,2033,2059,2037,2044,2062
2054,2048,2059,2052,2078,2034,2046,2058
2066,2057,2061,2062,2076,2028,2065,2049
2064,2052,2060,2053,2054,2025,2047,2039
2051,2052,2063,2041,2041,2023,2035,2036
2055,2049,2059,2041,2034,2033,2043,2036
2064,2040,2055,2040,2070,2036,2036,2027
2051,2038,2050,2031,2097,2039,2055,2027
2050,2030,2046,2030,2092,2046,2047,2027
2043,2027,2038,2029,2065,2038,2041,2021
2047,2036,2034,2034,2063,2031,2044,2018
2045,2034,2025,2029,2076,2027,2042,2019
2050,2032,2022,2036,2046,2035,2042,2030
2057,2042,2039,2056,2056,2051,2061,2032
2056,2041,2041,2060,2082,2064,2053,2028
2056,2039,2051,2062,2068,2075,2074,2034
2059,2039,2055,2060,2071,2085,2079,2038
2062,2039,2052,2061,2076,2093,2051,2037
2059,2030,2054,2060,2104,2091,2069,2037
2054,2031,2049,2061,2090,2074,2072,2039
2054,2031,2046,2050,2057,2045,2053,2033
2050,2034,2050,2052,2060,2047,2054,2037
2050,2035,2058,2060,2060,2052,2047,2040
2044,2042,2049,2053,2054,2044,2032,2042
2035,2034,2055,2050,2047,2046,2059,2053
2036,2034,2054,2065,2037,2041,2040,2052
2041,2035,2047,2052,2004,2031,2042,2067
2041,2030,2028,2039,2020,2010,2023,2058
2039,2012,2000,2021,2030,2004,2021,2067
2051,2022,2007,2037,2093,2029,2032,2075
2061,2038,2029,2052,2105,2055,2043,2068
2062,2038,2040,2027,2095,2063,2052,2063
2055,2034,2043,1993,2090,2075,2050,2064
2052,2033,2052,1987,2099,2074,2043,2052
2054,2038,2071,2002,2118,2067,2065,2048
2052,2052,2092,2035,2148,2076,2053,2045
2055,2051,2087,2051,2162,2094,2047,2043
2057,2046,2087,2057,2096,2070,2044,2040
2063,2054,2092,2064,2030,2038,2049,2031
2065,2061,2109,2068,2011,2036,2033,2020
2054,2063,2103,2066,1977,2038,2040,2012
2058,2060,2102,2065,1956,2035,2031,2012
2052,2056,2096,2068,1997,2043,2026,2012
2049,2050,2088,2069,1986,2037,2028,2005
2041,2045,2083,2061,1998,2032,2037,2012
2033,2030,2076,2061,2033,2038,2038,2011
2038,2029,2075,2053,2023,2038,2055,2021
2051,2040,2082,2055,2055,2038,2043,2026
2057,2046,2084,2063,2088,2045,2044,2028
2057,2055,2079,2060,2096,2047,2047,2025
2064,2053,2072,2066,2088,2045,2053,2030
2065,2052,2069,2057,2066,2046,2051,2031
2061,2046,2065,2066,2077,2055,2059,2046
2054,2047,2061,2070,2103,2070,2072,2052
2056,2043,2056,2071,2149,2079,2058,2049
2056,2036,2044,2066,2179,2086,2062,2050
2056,2027,2024,2049,2153,2084,2041,2055
2048,2026,2028,2055,2152,2088,2060,2063
2041,2032,2050,2068,2139,2084,2048,2067
2046,2033,2048,2063,2134,2079,2025,2067
2046,2038,2028,2038,2092,2049,2041,2072
2039,2024,2009,2016,2002,2004,2027,2061
2030,2021,2007,2006,1838,1994,2022,2060
2036,2022,2020,2026,1869,2014,2036,2062
2046,2029,2010,2025,1917,2010,2035,2061
2039,2023,1997,2002,1956,2001,2020,2050
2041,2030,2004,2002,1960,2008,2042,2047
2046,2032,2002,1989,1904,2009,2027,2050
2054,2035,1998,1995,1955,2028,2042,2046
2046,2032,1995,2013,2033,2062,2036,2037
2050,2038,2004,2027,2039,2062,2025,2034
2053,2038,2013,2025,2033,2018,2037,2028
2044,2029,2013,2019,2066,1993,2037,2035
2052,2035,2014,2029,2110,2018,2069,2046
2060,2046,2037,2041,2120,2048,2057,2036
2058,2052,2034,2038,2113,2057,2043,2043
2048,2039,2018,2021,2089,2061,2050,2034
2046,2029,2011,2004,2073,2063,2071,2021
2043,2023,2020,1997,2050,2044,2036,2017
2048,2032,2049,2003,2030,2022,2042,2023
2057,2061,2078,2034,2028,2040,2049,2028
2066,2073,2095,2056,2062,2071,2062,2034
2071,2074,2095,2053,2071,2087,2075,2042
2066,2072,2088,2054,2080,2107,2062,2044
2058,2072,2089,2060,2090,2115,2078,2057
2060,2068,2091,2076,2103,2093,2081,2066
2064,2066,2088,2077,2121,2085,2091,2066
2066,2064,2079,2068,2107,2071,2094,2058
2059,2059,2067,2045,2068,2042,2077,2064
2057,2054,2060,2023,1996,2010,2063,2061
2049,2047,2056,2006,1954,2020,2053,2067
2048,2038,2044,2013,2013,2034,2056,2064
2043,2042,2046,2027,2106,2050,2041,2074
2044,2059,2046,2043,2165,2071,2053,2086
2053,2061,2053,2054,2213,2083,2052,2078
2051,2048,2049,2068,2229,2097,2044,2070
2046,2036,2044,2074,2249,2101,2047,2070
2045,2041,2053,2070,2214,2087,2046,2071
2047,2039,2059,2051,2108,2063,2034,2065
2042,2044,2064,2033,1934,2038,2048,2061
2040,2045,2074,2029,1915,2034,2049,2057
2054,2049,2081,2010,1861,2024,2057,2054
2049,2050,2078,1997,1842,2011,2036,2049
2054,2044,2083,2014,1864,2016,2046,2044
2050,2050,2075,2036,1906,2020,2045,2039
2047,2047,2077,2037,1922,2026,2055,2034
2048,2056,2079,2042,1942,2029,2048,2029
2047,2051,2064,2036,1947,2034,2044,2034
2049,2044,2043,2024,1962,2035,2029,2034
2050,2044,2036,2022,1997,2040,2043,2028
2044,2042,2045,2037,2082,2053,2046,2025
2043,2042,2042,2035,2115,2048,2033,2024
2037,2040,2040,2029,2087,2056,2032,2017
2038,2042,2042,2020,2068,2059,2068,2026
2044,2043,2044,2022,2073,2022,2065,2029
2045,2044,2039,2014,2075,2013,2052,2035
2050,2041,2037,2018,2061,2021,2082,2032
2045,2043,2041,2015,2050,2035,2064,2037
2041,2042,2039,2026,2066,2047,2078,2037
2036,2034,2040,2044,2084,2050,2067,2027
2038,2028,2037,2053,2074,2060,2041,2023
2028,2026,2032,2061,2060,2046,2046,2016
2027,2024,2021,2064,2085,2065,2046,2034
2035,2027,2027,2067,2090,2078,2038,2048
2042,2027,2028,2064,2069,2063,2017,2063
2042,2028,2031,2038,2072,2052,2023,2064
2042,2027,2027,2026,2077,2047,2020,2064
2037,2023,2012,1994,2025,2019,2022,2067
2036,2014,2003,1992,2034,2014,2025,2058
2028,2010,1985,1967,1914,1994,2010,2048
2022,2006,1996,1970,1945,2011,2024,2051
2034,2012,1996,1991,2073,2040,2020,2054
2039,2012,2006,2021,2129,2043,2024,2051
2045,2029,2034,2056,2152,2038,2049,2050
2053,2044,2067,2074,2101,2052,2023,2049
2056,2065,2085,2085,2036,2063,2014,2042
2063,2065,2083,2073,2007,2069,2042,2034
2065,2060,2066,2060,2007,2076,2042,2028
2058,2050,2058,2062,2043,2084,2024,2023
2050,2052,2063,2064,2073,2086,2013,2024
2053,2049,2075,2068,2063,2079,2012,2024
2059,2058,2091,2069,2053,2070,2024,2025
2055,2067,2102,2081,2068,2072,2030,2024
2063,2072,2107,2099,2081,2072,2050,2029
2059,2063,2100,2089,2090,2065,2048,2017
2053,2040,2078,2071,2078,2050,2044,2013
2048,2032,2067,2061,2074,2035,2052,2019
2053,2036,2063,2076,2090,2039,2065,2025
2052,2035,2051,2076,2103,2035,2082,2023
2050,2036,2036,2088,2120,2054,2087,2025
2047,2036,2037,2101,2144,2074,2072,2012
2033,2026,2027,2096,2135,2082,2055,2022
2032,2015,2025,2073,2065,2076,2031,2028
2036,2020,2029,2060,1998,2060,2028,2030
2045,2024,2045,2056,2006,2046,2016,2039
2045,2030,2064,2062,2026,2033,2018,2042
2043,2037,2081,2065,2030,2020,2032,2040
2040,2036,2076,2062,2042,2025,2029,2050
2041,2037,2065,2064,2049,2034,2042,2059
2047,2042,2054,2055,2031,2040,2047,2066
2054,2039,2053,2056,2043,2045,2057,2070
2046,2029,2049,2052,2033,2022,2046,2073
2044,2025,2046,2046,2031,2018,2037,2074
2055,2045,2070,2063,2066,2024,2046,2080
2065,2073,2104,2072,2090,2032,2060,2062
2057,2069,2110,2071,2082,2048,2054,2056
2046,2056,2099,2056,2062,2053,2057,2050
2038,2048,2080,2043,2050,2047,2055,2043
2039,2038,2054,2030,2064,2052,2037,2042
