CH1,CH2,CH3,CH4,CH5,CH6,CH7,CH8
2059,2059,2005,2005,2061,2054,2052,2030
2072,2052,1988,2002,2067,2051,2055,2032
2059,2052,1989,2011,2062,2049,2049,2028
2053,2051,2002,2021,2054,2045,2042,2035
2047,2046,2015,2025,2038,2035,2043,2035
2046,2041,2026,2033,2033,2034,2055,2036
2044,2044,2031,2030,2045,2043,2060,2041
2048,2044,2033,2038,2058,2052,2049,2045
2043,2044,2046,2042,2062,2060,2053,2051
2048,2048,2070,2045,2062,2067,2047,2073
2049,2048,2094,2053,2076,2072,2054,2078
2047,2049,2102,2057,2064,2070,2069,2086
2053,2047,2100,2056,2050,2061,2061,2087
2050,2044,2089,2051,2035,2047,2051,2082
2038,2041,2089,2053,2029,2042,2053,2085
2052,2050,2095,2057,2028,2035,2039,2080
2043,2044,2087,2056,2032,2028,2043,2065
2045,2047,2082,2065,2036,2041,2016,2068
2045,2056,2094,2075,2039,2042,2049,2053
2056,2060,2081,2081,2025,2036,2047,2057
2057,2061,2070,2084,2002,2028,2034,2049
2057,2054,2071,2090,1998,2025,2024,2045
2056,2050,2063,2085,2026,2032,2022,2039
2057,2050,2066,2077,2055,2036,2029,2029
2063,2047,2062,2072,2057,2041,2033,2028
2067,2055,2060,2064,2055,2040,2029,2026
2067,2055,2058,2069,2066,2039,2042,2015
2056,2044,2042,2057,2056,2037,2050,2019
2054,2040,2033,2044,2066,2042,2058,2015
2053,2033,2032,2035,2061,2043,2030,2016
2045,2026,2028,2042,2054,2036,2061,2008
2041,2029,2035,2043,2050,2045,2055,2010
2049,2044,2056,2047,2095,2066,2063,2009
2052,2040,2059,2059,2142,2073,2048,2027
2052,2040,2060,2051,2146,2067,2068,2029
2051,2047,2064,2037,2130,2050,2061,2033
2056,2049,2069,2026,2121,2047,2049,2039
2062,2037,2057,2024,2108,2037,2052,2046
2060,2040,2063,2037,2103,2044,2057,2045
2060,2054,2075,2048,2095,2054,2054,2052
2066,2041,2064,2042,2071,2048,2061,2044
2050,2030,2053,2039,1998,2045,2053,2049
2045,2036,2058,2029,1917,2042,2057,2067
2054,2045,2056,2026,1902,2041,2038,2075
2048,2048,2056,2031,1950,2040,2054,2079
2052,2045,2060,2037,2003,2041,2025,2072
2040,2043,2047,2034,2016,2037,2026,2069
2031,2032,2040,2039,2018,2032,2039,2078
2031,2045,2047,2050,2027,2033,2032,2081
2040,2042,2042,2052,2035,2037,2051,2076
2055,2035,2039,2061,2037,2038,2051,2076
2053,2040,2039,2060,2027,2050,2062,2071
2051,2041,2048,2059,2010,2055,2049,2059
2045,2042,2057,2065,2031,2054,2062,2055
2054,2049,2059,2064,2031,2056,2052,2057
2068,2058,2061,2061,2023,2048,2057,2056
2064,2053,2060,2060,2018,2040,2056,2047
2056,2047,2059,2057,1992,2034,2046,2047
2060,2050,2057,2061,2013,2038,2041,2043
2061,2051,2061,2056,2030,2037,2046,2025
2059,2043,2049,2048,2016,2039,2054,2025
2051,2044,2051,2045,2026,2037,2039,2019
2054,2042,2044,2044,2058,2046,2025,2008
2044,2029,2038,2052,2055,2052,2046,1999
2047,2029,2040,2060,2052,2061,2045,2009
2048,2035,2054,2065,2067,2075,2051,2012
2045,2041,2053,2068,2090,2079,2074,2014
2046,2041,2047,2068,2096,2074,2040,2016
2050,2034,2053,2057,2091,2060,2038,2024
2052,2038,2049,2058,2076,2045,2038,2033
2047,2047,2044,2046,2072,2044,2048,2038
2054,2049,2041,2042,2062,2059,2051,2038
2054,2053,2045,2046,2059,2063,2058,2057
2050,2048,2044,2046,2059,2057,2061,2064
2055,2046,2043,2045,2060,2055,2061,2071
2057,2041,2040,2052,2052,2045,2064,2079
2054,2042,2035,2046,2043,2040,2057,2084
2058,2037,2031,2047,2040,2039,2060,2079
2054,2040,2025,2045,2038,2034,2051,2082
2053,2038,2025,2043,2036,2026,2040,2086
2038,2034,2013,2046,2043,2023,2056,2085
2044,2038,2016,2046,2043,2031,2037,2082
2046,2033,2020,2034,2030,2034,2038,2077
2046,2036,2025,2030,2020,2033,2038,2067
2045,2034,2029,2037,2036,2035,2037,2065
2045,2028,2025,2036,2043,2039,2025,2068
2052,2030,2034,2049,2046,2044,2037,2058
2049,2034,2043,2058,2071,2043,2026,2045
2043,2037,2055,2068,2091,2049,2035,2031
2045,2036,2060,2077,2094,2048,2047,2029
2050,2035,2057,2069,2074,2047,2037,2028
2044,2038,2059,2067,2067,2043,2060,2027
2040,2048,2063,2067,2061,2045,2057,2020
2044,2048,2054,2061,2056,2050,2062,2029
2052,2053,2057,2063,2057,2068,2048,2030
2049,2049,2051,2055,2058,2065,2036,2022
2048,2045,2042,2043,2050,2077,2057,2022
2058,2056,2047,2042,2053,2094,2064,2028
2067,2055,2055,2039,2058,2105,2073,2029
2058,2043,2044,2038,2052,2101,2060,2026
2047,2035,2033,2028,2052,2102,2057,2033
2041,2048,2043,2037,2055,2098,2053,2036
2047,2051,2049,2049,2064,2089,2053,2040
2053,2058,2056,2047,2065,2080,2060,2044
2046,2056,2057,2061,2063,2070,2069,2042
2043,2059,2057,2063,2068,2064,2045,2051
2051,2054,2056,2064,2061,2046,2039,2060
2045,2055,2054,2058,2065,2030,2051,2066
2038,2050,2043,2052,2057,2009,2053,2068
2037,2042,2036,2047,2058,2005,2038,2068
2035,2029,2035,2048,2055,2003,2019,2070
2031,2039,2056,2055,2052,2004,2019,2080
2032,2042,2059,2055,2055,2020,2031,2081
2035,2041,2058,2054,2058,2032,2044,2082
2039,2046,2056,2059,2042,2037,2046,2074
2035,2038,2042,2054,2025,2022,2026,2069
2035,2036,2040,2050,2028,2031,2050,2087
2050,2042,2044,2053,2030,2027,2043,2081
2043,2028,2031,2043,2029,2039,2047,2061
2039,2026,2029,2047,2041,2057,2032,2050
2047,2037,2031,2056,2062,2059,2054,2042
2050,2038,2031,2057,2058,2054,2061,2040
2036,2030,2032,2069,2060,2057,2069,2047
2036,2037,2036,2078,2058,2053,2057,2047
2037,2038,2050,2082,2053,2049,2057,2039
2035,2042,2055,2082,2047,2045,2045,2026
2029,2049,2058,2077,2038,2034,2027,2015
2027,2043,2052,2060,2033,2022,2040,2012
2033,2044,2057,2062,2028,2017,2023,2014
2039,2054,2071,2064,2040,2020,2031,2020
2047,2069,2093,2070,2053,2021,2045,2028
2054,2072,2095,2076,2048,2032,2047,2026
2048,2059,2076,2071,2050,2034,2048,2021
2044,2056,2075,2073,2052,2044,2064,2031
2050,2057,2071,2073,2045,2050,2078,2036
2059,2058,2062,2071,2055,2048,2064,2038
2056,2057,2062,2060,2057,2050,2059,2035
2061,2063,2070,2059,2046,2048,2042,2042
2053,2058,2068,2046,2037,2045,2045,2053
2053,2056,2067,2042,2052,2047,2054,2065
2042,2051,2073,2034,2053,2047,2049,2065
2045,2053,2070,2039,2043,2050,2055,2083
2045,2054,2062,2042,2046,2059,2052,2091
2053,2054,2051,2053,2053,2064,2061,2099
2054,2056,2040,2051,2046,2057,2071,2101
2047,2045,2036,2053,2034,2049,2062,2094
2046,2047,2028,2044,2029,2046,2061,2087
2039,2044,2030,2044,2024,2043,2053,2094
2048,2038,2018,2043,2010,2028,2045,2085
2043,2033,2025,2033,1990,2012,2015,2068
2049,2044,2012,2018,1981,2010,2014,2069
2054,2048,2012,2009,1982,2012,2034,2068
2048,2048,2007,2008,1988,2016,2025,2065
2060,2050,2002,2014,2034,2054,2042,2064
2066,2048,2003,2036,2071,2078,2061,2057
2073,2043,1986,2042,2089,2082,2056,2058
2068,2041,1994,2053,2120,2103,2061,2056
2069,2047,2005,2055,2124,2114,2065,2047
2055,2043,2011,2050,2098,2083,2051,2022
2056,2041,2021,2043,2074,2043,2048,2029
2050,2047,2031,2039,2058,2031,2062,2030
2043,2048,2048,2040,2036,2035,2046,2021
2039,2047,2056,2030,2008,2033,2044,2018
2040,2059,2062,2029,2006,2045,2047,2024
2051,2061,2069,2038,2015,2047,2051,2028
2049,2055,2059,2031,1988,2038,2073,2031
2053,2049,2047,2025,1972,2031,2059,2035
2053,2049,2058,2026,1982,2018,2049,2031
2045,2051,2059,2019,1982,2013,2041,2025
2039,2050,2057,2018,2020,2037,2045,2033
2040,2047,2059,2037,2099,2071,2063,2047
2047,2046,2055,2040,2138,2084,2064,2050
2049,2051,2052,2043,2137,2086,2072,2061
2043,2045,2050,2041,2124,2069,2056,2062
2037,2035,2042,2036,2110,2051,2042,2072
2035,2031,2038,2029,2096,2046,2040,2080
2039,2035,2046,2031,2075,2048,2056,2077
2046,2055,2058,2031,2061,2058,2051,2081
2050,2059,2067,2040,2052,2051,2042,2077
2034,2042,2059,2032,2032,2045,2053,2087
2034,2042,2064,2030,2032,2048,2059,2085
2050,2058,2070,2039,2028,2052,2071,2093
2050,2056,2066,2040,2027,2056,2064,2092
2047,2057,2063,2049,2023,2051,2069,2081
2057,2061,2057,2045,2020,2054,2066,2073
2054,2052,2044,2034,2007,2051,2041,2070
2048,2039,2020,2021,2016,2039,2040,2050
2039,2027,2011,2029,2067,2049,2051,2041
2050,2039,2017,2052,2115,2073,2066,2036
2045,2046,2021,2054,2109,2074,2041,2030
2039,2045,2015,2045,2076,2056,2028,2023
2039,2049,2009,2039,2046,2050,2047,2024
2040,2035,2003,2035,2027,2052,2056,2022
2057,2046,2017,2044,2039,2062,2042,2023
2052,2047,2017,2053,2075,2071,2054,2024
2048,2036,2019,2050,2092,2072,2056,2007
2038,2030,2029,2061,2093,2080,2044,2003
2032,2040,2043,2072,2092,2091,2058,2013
2052,2051,2056,2081,2088,2078,2063,2019
2057,2052,2062,2088,2093,2037,2058,2014
2054,2051,2057,2094,2107,2010,2050,2019
2049,2047,2049,2084,2101,2023,2066,2026
2049,2047,2044,2084,2091,2028,2076,2030
2056,2054,2051,2084,2080,2036,2039,2035
2048,2052,2046,2080,2071,2034,2039,2038
2049,2048,2036,2069,2056,2045,2047,2044
2042,2031,2023,2057,2032,2057,2031,2044
2037,2032,2031,2056,2031,2073,2056,2057
2032,2040,2044,2041,2034,2084,2042,2066
2035,2041,2042,2035,2029,2085,2054,2069
2050,2043,2046,2027,2030,2087,2070,2079
2047,2048,2050,2038,2048,2053,2065,2090
2044,2041,2049,2019,2051,2038,2050,2089
2037,2036,2041,2012,2056,2040,2042,2090
2049,2044,2053,2016,2066,2052,2065,2089
2054,2050,2068,2031,2048,2055,2069,2085
2056,2050,2070,2034,2080,2055,2059,2079
2056,2055,2074,2033,2118,2055,2053,2068
2059,2048,2074,2040,2131,2056,2047,2058
2058,2060,2084,2060,2147,2067,2052,2052
2059,2060,2083,2062,2150,2065,2051,2055
2055,2064,2073,2061,2125,2043,2044,2051
2061,2059,2070,2055,2129,2046,2053,2044
2070,2068,2061,2051,2090,2046,2052,2050
2072,2059,2039,2021,1977,2032,2030,2031
2062,2045,2021,2003,1926,2039,2044,2021
2058,2040,2008,2010,1916,2055,2042,2012
2049,2026,2008,2019,1950,2049,2035,2011
2043,2027,2000,2020,1974,2032,2037,2009
2032,2023,1998,2019,1995,2036,2034,2005
2035,2029,2002,2031,2029,2046,2052,2012
2039,2042,2015,2037,2041,2067,2058,2010
2044,2041,2021,2032,2020,2068,2059,2008
2037,2044,2022,2022,2007,2063,2048,2011
2042,2039,2016,2021,2004,2063,2052,2022
2041,2037,2017,2010,2001,2044,2046,2025
2043,2035,2024,2016,2022,2024,2048,2026
2043,2053,2050,2030,2038,2007,2050,2027
2052,2072,2083,2043,2036,2013,2072,2054
2063,2085,2119,2045,1998,2024,2063,2067
2062,2092,2133,2047,2017,2046,2060,2070
2055,2084,2127,2042,2045,2054,2064,2075
2058,2076,2113,2042,2051,2050,2070,2084
2062,2067,2090,2050,2057,2056,2063,2090
2056,2068,2077,2054,2062,2058,2062,2089
2052,2056,2061,2055,2060,2057,2053,2085
2045,2047,2049,2038,2052,2058,2039,2070
2037,2038,2055,2034,2052,2057,2042,2059
2031,2052,2065,2045,2061,2060,2035,2061
2037,2060,2069,2056,2072,2060,2046,2072
2044,2064,2072,2055,2066,2055,2058,2066
2050,2061,2064,2050,2051,2050,2043,2061
2049,2056,2060,2044,2041,2043,2059,2059
2044,2050,2050,2041,2048,2058,2067,2047
2043,2038,2041,2043,2044,2057,2052,2042
2043,2039,2040,2048,2032,2049,2058,2036
2038,2035,2044,2053,2033,2048,2050,2032
2041,2039,2046,2050,2038,2049,2037,2027
2044,2042,2056,2049,2044,2055,2056,2021
2046,2046,2064,2051,2046,2051,2035,2027
2042,2049,2064,2053,2053,2055,2028,2026
2051,2050,2063,2051,2046,2056,2041,2024
2049,2045,2052,2037,2043,2049,2030,2013
2040,2034,2042,2037,2036,2044,2050,2011
2039,2038,2044,2038,2048,2050,2063,2021
2052,2052,2045,2037,2040,2049,2065,2025
2052,2048,2052,2053,2047,2046,2061,2023
2051,2055,2073,2057,2051,2051,2049,2012
2042,2050,2065,2055,2051,2047,2050,2009
2032,2044,2062,2048,2049,2051,2058,2018
2036,2049,2060,2049,2048,2049,2059,2027
2037,2054,2056,2043,2050,2050,2047,2040
2038,2052,2057,2050,2048,2050,2033,2053
2050,2051,2046,2053,2064,2062,2052,2055
2046,2055,2057,2069,2059,2055,2049,2059
2046,2054,2068,2077,2063,2051,2058,2069
2043,2060,2076,2086,2056,2054,2036,2077
2044,2049,2079,2089,2060,2042,2063,2077
2040,2042,2076,2084,2058,2038,2061,2080
2043,2033,2066,2084,2050,2040,2047,2069
2034,2034,2065,2083,2049,2041,2063,2076
2040,2042,2067,2090,2055,2046,2058,2084
2048,2047,2064,2087,2056,2049,2053,2076
2052,2043,2043,2081,2045,2044,2057,2060
2048,2036,2027,2088,2040,2044,2064,2063
2036,2032,2032,2100,2048,2047,2064,2065
2039,2036,2038,2108,2037,2044,2063,2055
2032,2033,2031,2099,2030,2043,2062,2039
2035,2041,2026,2081,2023,2044,2065,2033
2037,2037,2002,2044,2015,2034,2060,2025
2027,2026,1986,2019,2022,2047,2053,2024
2036,2039,1998,2020,2053,2062,2070,2025
2056,2058,2018,2027,2071,2074,2088,2014
2048,2066,2018,2024,2073,2078,2070,2016
2056,2062,2005,2007,2059,2067,2073,2018
2052,2054,1994,1989,2047,2053,2053,2010
2045,2049,2016,1980,2045,2040,2049,2004
2044,2058,2053,1991,2049,2046,2048,2010
2052,2076,2076,1988,2053,2048,2064,2009
2047,2064,2049,1962,2044,2035,2033,2015
2046,2062,2047,1959,2039,2041,2045,2018
2046,2066,2059,1974,2052,2046,2043,2024
2047,2057,2054,1991,2057,2051,2060,2028
2047,2052,2045,2004,2060,2065,2061,2034
2042,2039,2033,2004,2058,2079,2054,2044
2045,2034,2028,2005,2055,2079,2068,2046
2049,2042,2048,2011,2058,2078,2067,2047
2056,2051,2058,2019,2061,2076,2060,2047
2051,2052,2063,2032,2067,2061,2055,2067
2040,2060,2072,2044,2080,2025,2074,2085
2043,2057,2072,2050,2083,2027,2045,2085
2035,2052,2062,2044,2086,2036,2060,2084
2029,2044,2055,2038,2076,2039,2042,2083
2030,2030,2040,2027,2062,2036,2049,2084
2025,2024,2030,2017,2038,2036,2047,2082
2027,2029,2022,2013,2021,2031,2047,2072
2032,2030,2023,2010,2006,2028,2042,2070
2031,2033,2038,2016,2028,2039,2030,2054
2039,2036,2037,2021,2026,2037,2059,2057
2044,2038,2030,2022,2026,2041,2054,2049
2045,2042,2027,2021,2027,2043,2051,2045
2048,2037,2023,2020,2033,2043,2056,2030
2049,2032,2023,2021,2037,2039,2060,2032
2037,2029,2024,2024,2036,2047,2069,2035
2032,2032,2015,2024,2041,2050,2068,2038
2037,2036,2029,2025,2048,2048,2060,2032
2043,2050,2039,2029,2058,2056,2073,2022
2040,2054,2045,2036,2071,2074,2080,2020
2044,2049,2034,2043,2073,2080,2070,2016
2037,2038,2017,2046,2063,2074,2061,2014
2043,2031,2011,2046,2049,2075,2068,2019
2038,2034,2010,2042,2048,2070,2071,2022
2041,2041,2001,2033,2032,2063,2062,2021
2047,2043,2011,2032,2047,2068,2069,2027
2051,2049,2024,2040,2053,2066,2066,2021
2053,2051,2031,2046,2059,2060,2069,2027
2044,2040,2027,2032,2052,2058,2048,2033
2043,2044,2025,2030,2051,2062,2067,2044
2049,2048,2032,2030,2057,2053,2069,2057
2046,2051,2038,2036,2059,2038,2061,2051
2043,2052,2036,2042,2059,2027,2074,2053
2052,2049,2050,2050,2058,2034,2072,2054
2035,2047,2045,2050,2058,2036,2067,2056
2028,2042,2043,2052,2072,2050,2062,2067
2027,2029,2047,2049,2070,2052,2042,2072
2036,2030,2055,2058,2060,2043,2018,2073
2034,2033,2060,2069,2060,2041,2018,2077
2041,2042,2076,2077,2069,2042,2025,2086
2051,2066,2102,2077,2076,2049,2034,2088
2061,2062,2107,2069,2068,2052,2054,2085
2055,2060,2104,2069,2063,2051,2034,2080
2058,2058,2099,2071,2060,2049,2051,2075
2059,2057,2089,2071,2051,2046,2042,2060
2053,2054,2074,2061,2035,2049,2048,2052
2044,2043,2058,2046,2047,2041,2019,2045
2040,2039,2047,2032,2048,2025,2031,2032
2037,2036,2039,2023,2049,2028,2050,2034
2039,2047,2046,2028,2051,2048,2052,2032
2049,2060,2059,2031,2041,2062,2053,2030
2051,2064,2067,2037,2038,2068,2053,2031
2057,2069,2065,2036,2046,2077,2066,2026
2061,2057,2064,2039,2038,2073,2061,2019
2057,2053,2062,2031,2041,2060,2067,2017
2044,2044,2058,2033,2041,2048,2039,2016
2044,2050,2059,2036,2048,2027,2043,2021
2053,2056,2061,2034,2042,2014,2043,2023
2049,2050,2059,2034,2037,2022,2052,2025
2050,2050,2060,2040,2044,2035,2059,2024
2049,2059,2063,2045,2053,2044,2064,2023
2052,2064,2057,2046,2043,2042,2050,2021
2046,2062,2051,2046,2045,2033,2048,2024
2049,2058,2045,2045,2029,2029,2045,2033
2053,2047,2047,2048,2030,2027,2059,2049
2052,2042,2043,2041,2039,2036,2041,2052
2050,2039,2038,2043,2041,2040,2036,2051
2044,2038,2030,2042,2044,2038,2028,2066
2036,2039,2030,2043,2028,2042,2036,2067
2031,2036,2034,2042,2036,2060,2042,2067
2030,2039,2053,2043,2035,2076,2050,2072
2029,2036,2054,2045,2039,2080,2054,2070
2027,2037,2045,2040,2045,2067,2071,2083
2039,2045,2049,2042,2042,2049,2053,2088
2043,2052,2057,2054,2053,2023,2046,2089
2037,2058,2063,2066,2055,2027,2011,2080
2048,2058,2062,2066,2047,2032,2029,2071
2042,2051,2060,2064,2039,2034,2046,2054
2046,2047,2054,2053,2029,2027,2044,2045
2042,2046,2046,2045,2043,2025,2028,2037
2034,2036,2049,2048,2059,2025,2031,2025
2027,2038,2055,2046,2056,2024,2027,2020
2022,2034,2056,2045,2051,2014,2023,2021
2024,2039,2062,2044,2042,2013,2031,2020
2035,2045,2064,2045,2034,2010,2041,2022
2028,2053,2062,2043,2034,2028,2031,2018
2039,2061,2068,2049,2044,2045,2027,2021
2052,2057,2065,2046,2051,2057,2030,2012
2041,2054,2060,2049,2056,2057,2041,2014
2050,2059,2053,2055,2053,2049,2025,2020
2058,2060,2052,2056,2052,2050,2010,2023
2060,2058,2059,2055,2050,2051,2058,2033
2062,2064,2068,2060,2043,2057,2033,2034
2065,2068,2073,2064,2050,2062,2049,2041
2059,2062,2073,2062,2054,2070,2041,2035
2050,2052,2077,2062,2051,2069,2041,2032
2047,2049,2073,2060,2051,2067,2059,2038
2047,2042,2066,2054,2048,2054,2052,2045
2040,2038,2058,2045,2013,2046,2047,2050
2041,2045,2059,2049,2017,2054,2044,2065
2039,2053,2064,2056,2041,2057,2052,2072
2044,2055,2064,2046,2027,2047,2054,2094
2051,2056,2070,2051,2025,2045,2035,2104
2049,2051,2058,2046,2029,2044,2020,2086
2043,2032,2051,2042,2011,2031,2041,2081
2028,2042,2064,2038,1997,2030,2035,2084
2044,2062,2078,2037,1999,2036,2036,2090
2046,2062,2071,2031,1976,2018,2051,2089
2044,2051,2058,2006,1951,1999,2021,2073
2048,2049,2055,2009,1977,2018,2021,2069
2047,2055,2052,2021,1988,2017,2021,2063
2054,2054,2051,2021,2016,2016,2021,2051
2045,2041,2041,2014,2030,2025,1996,2039
2033,2041,2040,2020,2053,2041,2017,2029
2036,2041,2050,2044,2077,2056,2015,2026
2042,2040,2055,2058,2134,2075,2024,2029
2045,2046,2062,2069,2181,2079,2043,2027
2055,2046,2063,2070,2183,2069,2026,2022
2045,2053,2064,2060,2153,2060,2031,2018
2043,2056,2066,2065,2162,2061,2030,2012
2047,2050,2060,2062,2156,2056,2013,2022
2046,2045,2056,2057,2138,2061,2010,2028
2055,2049,2062,2058,2127,2065,2030,2038
2050,2052,2056,2055,2101,2068,2033,2024
2047,2042,2056,2052,2043,2065,2034,2034
2050,2049,2049,2040,1970,2058,2054,2045
2046,2050,2050,2039,1984,2060,2045,2039
2046,2047,2050,2037,2008,2064,2037,2044
2047,2044,2050,2028,2004,2061,2033,2044
2048,2042,2043,2035,2022,2062,2040,2060
2046,2043,2046,2043,2034,2059,2044,2059
2048,2044,2069,2061,2038,2058,2074,2070
2053,2052,2087,2074,2034,2052,2078,2074
2047,2054,2092,2080,2014,2043,2049,2086
2044,2044,2085,2069,1993,2042,2030,2082
2036,2037,2075,2074,1985,2040,2019,2077
2037,2024,2065,2058,1983,2034,2005,2078
2028,2018,2046,2048,1979,2026,1991,2075
2028,2021,2038,2040,1981,2014,2004,2081
2029,2031,2046,2059,2021,2033,2019,2086
2037,2045,2064,2081,2080,2040,2027,2083
2034,2040,2056,2077,2113,2043,2034,2078
2037,2042,2044,2065,2123,2048,2019,2068
2037,2043,2034,2056,2113,2056,2018,2053
2038,2040,2027,2039,2101,2079,2009,2050
2037,2039,2037,2038,2084,2095,2043,2038
2038,2047,2059,2031,2071,2093,2053,2033
2043,2050,2064,2020,2062,2103,2046,2031
2048,2051,2057,2021,2076,2085,2052,2033
2047,2048,2049,2023,2110,2059,2046,2038
2050,2053,2048,2031,2124,2017,2045,2045
2058,2054,2050,2042,2118,2024,2059,2037
2057,2055,2052,2045,2101,2040,2042,2033
2054,2043,2051,2046,2086,2046,2049,2031
2052,2043,2046,2053,2095,2050,2045,2029
2044,2052,2052,2052,2105,2056,2046,2028
2049,2055,2055,2046,2104,2072,2046,2022
2046,2048,2054,2043,2107,2067,2058,2033
2051,2048,2041,2022,2055,2055,2048,2035
2049,2045,2035,1999,1952,2045,2043,2033
2045,2046,2016,1981,1934,2030,2024,2038
2052,2046,2030,1996,1983,2023,2029,2056
2059,2047,2046,2011,2034,2036,2059,2065
2065,2047,2048,2012,2069,2054,2062,2075
2067,2048,2045,2002,2058,2078,2060,2083
2058,2037,2030,1981,2019,2103,2060,2079
2052,2026,2030,1985,2001,2110,2070,2082
2048,2032,2040,1997,1985,2081,2068,2079
2035,2028,2044,2010,1989,2025,2048,2075
2035,2025,2052,2012,1996,2001,2016,2070
2033,2028,2048,2024,2012,1987,2028,2076
2038,2043,2056,2056,2055,1994,2048,2084
2048,2048,2052,2081,2084,2025,2059,2091
2047,2049,2049,2081,2085,2049,2061,2081
2046,2044,2037,2066,2094,2076,2071,2072
2049,2050,2039,2057,2074,2080,2056,2062
2052,2049,2033,2026,2034,2067,2029,2048
2049,2041,2030,2006,2015,2071,2046,2040
2043,2038,2028,1991,1998,2066,2040,2032
2046,2041,2021,1985,1954,2046,2032,2024
2045,2040,2025,1980,1928,2026,2032,2023
2044,2033,2027,1978,1918,1990,2006,2019
2044,2026,2037,1978,1919,1918,1984,2024
2035,2029,2040,1985,1926,1919,2033,2017
2046,2033,2047,1997,1974,1937,1997,2028
2055,2042,2056,2014,2023,1975,2018,2015
2042,2041,2049,2039,2091,2024,2010,2005
2049,2042,2066,2060,2144,2066,2024,2017
2061,2057,2080,2075,2180,2093,2071,2017
2061,2051,2070,2072,2147,2088,2082,2020
2055,2044,2052,2067,2159,2076,2068,2024
2057,2030,2035,2061,2157,2071,2044,2032
2050,2028,2032,2048,2121,2071,2068,2032
2060,2031,2027,2048,2109,2067,2066,2023
2054,2022,2018,2040,2075,2061,2041,2027
2042,2023,2005,2025,2008,2045,2035,2034
2033,2012,2007,2017,2021,2051,2032,2043
2030,2024,2026,2052,2087,2071,2052,2057
2037,2028,2037,2068,2110,2077,2057,2071
2044,2039,2032,2067,2093,2086,2056,2074
2045,2037,2031,2054,1995,2071,2047,2069
2043,2038,2020,2052,1977,2066,2055,2073
2037,2026,2030,2062,2042,2069,2029,2077
2037,2040,2041,2077,2090,2073,2015,2081
2051,2060,2050,2094,2103,2056,2033,2091
2065,2070,2066,2110,2121,2022,2032,2101
2073,2069,2062,2107,2132,2029,2038,2096
2070,2063,2052,2092,2122,2048,2030,2084
2068,2054,2040,2071,2102,2064,2038,2069
2060,2044,2026,2040,2048,2052,2050,2047
2050,2029,2018,2021,2007,2033,2019,2043
2050,2032,2028,2020,1975,2027,2032,2045
2054,2046,2051,2058,2036,2048,2030,2048
2061,2061,2062,2068,2038,2068,2038,2045
2059,2056,2060,2048,2021,2084,2075,2038
2061,2057,2075,2031,2016,2088,2072,2033
2044,2051,2080,2001,1973,2085,2069,2025
2042,2051,2088,1969,1923,2070,2070,2019
2043,2051,2092,1940,1893,2040,2045,1996
2030,2046,2081,1949,1903,2033,2052,1998
2038,2042,2070,1990,2006,2040,2053,2009
2045,2043,2055,2024,2051,2001,2055,2015
2040,2033,2050,2039,1990,1969,2054,2021
2048,2043,2070,2053,1982,2018,2067,2026
2065,2062,2077,2070,2032,2078,2070,2029
2073,2065,2070,2063,2094,2093,2076,2029
2069,2061,2065,2039,2113,2086,2070,2028
2060,2044,2054,2037,2123,2063,2064,2024
2047,2042,2061,2062,2163,2042,2029,2049
2049,2060,2073,2090,2244,2044,2064,2064
2058,2065,2074,2092,2222,2056,2076,2083
2063,2074,2083,2081,2132,2059,2074,2089
2062,2072,2078,2059,2083,2080,2084,2089
2060,2080,2088,2042,2063,2098,2075,2082
2054,2080,2102,2038,2031,2081,2063,2083
2053,2071,2104,2015,1962,2051,2040,2076
2058,2063,2103,1993,1879,2001,2046,2077
2056,2065,2099,1993,1792,1943,2017,2081
2056,2064,2097,2019,1819,1950,2023,2086
2046,2055,2090,2037,1899,2006,2037,2084
2047,2060,2084,2060,2039,2049,2057,2082
2057,2053,2085,2088,2153,2083,2060,2072
2054,2050,2066,2081,2102,2073,2049,2053
2047,2049,2064,2064,1977,2055,2058,2037
2045,2051,2044,2040,2002,2036,2048,2035
2034,2042,2034,2039,2092,2058,2043,2037
2054,2042,2023,2044,2137,2074,2056,2035
2047,2033,2014,2046,2185,2102,2050,2029
2045,2037,2011,2035,2154,2116,2041,2016
2042,2035,2014,2006,2062,2065,2031,2016
2047,2043,2018,1986,2044,2011,2033,2015
2049,2041,2015,1992,2010,1996,2036,2013
2060,2044,2004,1996,2034,1997,2037,2018
2068,2056,2024,2034,2110,2008,2052,2035
2068,2051,2032,2050,2174,1999,2056,2029
2069,2045,2035,2056,2169,2012,2056,2029
2060,2047,2048,2067,2104,2039,2054,2027
2052,2042,2039,2045,2004,2049,2052,2021
2042,2034,2044,2046,2008,2042,2048,2017
2036,2043,2049,2060,2028,2039,2048,2039
2049,2039,2053,2070,2055,2045,2045,2043
2044,2043,2070,2063,2085,2049,2051,2052
2048,2058,2078,2059,2067,2051,2070,2066
2046,2050,2067,2053,2003,2050,2061,2072
2039,2049,2061,2054,2047,2051,2059,2082
2038,2049,2067,2066,2074,2055,2065,2083
2045,2051,2078,2084,2088,2064,2070,2094
2058,2058,2084,2095,2072,2070,2067,2090
2054,2051,2081,2093,2068,2079,2060,2093
2056,2056,2079,2088,2053,2082,2066,2086
2059,2051,2079,2102,2078,2069,2054,2088
2058,2054,2071,2104,2044,2067,2074,2088
2060,2058,2064,2099,2043,2067,2057,2082
2062,2063,2061,2099,2085,2063,2049,2072
2067,2068,2061,2091,2089,2070,2051,2057
2058,2060,2056,2068,2016,2060,2049,2046
2056,2056,2045,2046,1968,2030,2041,2037
2055,2057,2035,2007,1904,2004,2038,2028
2049,2047,2014,1959,1865,1977,2031,2024
2045,2046,2014,1932,1870,1963,2038,2030
2051,2046,2012,1930,1963,1968,2024,2020
2057,2045,2018,1978,2069,2007,2020,2028
2054,2056,2039,2007,2025,2047,2044,2026
2055,2060,2052,2058,2141,2078,2041,2014
2052,2044,2037,2042,2169,2088,2056,2009
2044,2036,2017,2037,2169,2110,2055,2014
2053,2046,2021,2051,2166,2125,2059,2022
2058,2045,2026,2054,2098,2119,2072,2031
2064,2055,2037,2039,2043,2098,2062,2041
2060,2059,2045,2026,1978,2093,2065,2036
2064,2060,2047,2032,1955,2089,2068,2039
2064,2061,2050,2030,1974,2080,2057,2040
2051,2054,2048,2032,2012,2087,2072,2047
2046,2048,2043,2046,2061,2090,2066,2058
2046,2050,2050,2062,2079,2070,2064,2079
2052,2054,2051,2073,2116,2069,2094,2089
2053,2043,2047,2074,2140,2069,2082,2090
2041,2037,2033,2040,2110,2059,2065,2084
2044,2038,2037,2035,2177,2082,2050,2080
2043,2044,2043,2059,2133,2091,2043,2084
2034,2043,2038,2064,2026,2072,2041,2076
2042,2050,2050,2052,1952,2052,2065,2089
2052,2067,2067,2061,1989,2053,2075,2081
2063,2071,2073,2083,2036,2056,2066,2077
2058,2066,2073,2103,2140,2065,2077,2071
2055,2054,2059,2120,2202,2064,2067,2064
2043,2049,2049,2136,2292,2072,2059,2056
2043,2048,2052,2157,2347,2085,2071,2051
2045,2048,2047,2163,2351,2088,2083,2046
2048,2056,2054,2170,2325,2085,2075,2041
2055,2053,2058,2126,2271,2048,2043,2035
2057,2059,2054,2080,2182,2013,2050,2031
2052,2049,2046,2029,1970,1996,2040,2018
2045,2042,2031,1960,1721,2000,2037,2014
2052,2039,2028,1957,1649,2000,2015,2001
2043,2040,2034,1984,1702,2000,2042,2010
2050,2035,2039,2010,1912,2012,2029,1998
2047,2027,2036,2017,2009,2009,2017,1997
2042,2023,2030,2006,1962,1998,2029,2003
2053,2040,2045,1998,1931,2011,2048,2005
2055,2053,2048,2001,1957,2030,2056,2014
2060,2054,2045,2015,2024,2054,2073,2028
2054,2044,2037,2032,2060,2064,2061,2029
2055,2040,2032,2038,2064,2062,2075,2041
2056,2037,2037,2036,2040,2049,2058,2044
2050,2038,2041,2042,2012,2027,2044,2038
2049,2042,2045,2040,2022,2019,2051,2042
2039,2033,2033,2050,2057,2026,2057,2048
2049,2031,2040,2059,2110,2030,2056,2055
2045,2032,2035,2065,2128,2043,2056,2065
2044,2034,2039,2076,2127,2049,2060,2091
2060,2043,2057,2097,2078,2057,2055,2095
2060,2055,2071,2094,2020,2058,2047,2088
2055,2051,2073,2074,1954,2042,2030,2074
2035,2043,2068,2043,1895,2014,2012,2070
2032,2044,2078,2014,1841,1999,2024,2076
2046,2049,2072,2006,1801,1993,2032,2074
2046,2052,2075,2009,1798,1987,2021,2068
2044,2051,2073,2010,1791,2000,2021,2063
2049,2066,2081,2018,1804,2012,2041,2072
2064,2073,2085,2025,1895,2024,2046,2073
2080,2075,2073,2033,1998,2048,2036,2075
2071,2069,2059,2026,2021,2047,2018,2062
2058,2054,2030,2011,1958,2025,2052,2052
2054,2049,2014,2016,2006,2018,2055,2044
2057,2038,2016,2058,2162,2034,2018,2038
2061,2031,2015,2100,2246,2049,2030,2032
2059,2025,2012,2081,2216,2027,2022,2022
2065,2029,2023,2052,2137,2024,2031,2025
2074,2067,2048,2043,2010,2034,2062,2026
2085,2061,2047,2032,2009,2036,2051,2009
2065,2047,2047,2021,1992,2034,2030,2010
2054,2039,2036,2007,1931,2025,2032,2020
2039,2030,2027,1980,1871,2011,2040,2020
2034,2048,2041,2010,2000,2040,2028,2022
2046,2063,2044,2042,2178,2067,2036,2025
2058,2063,2046,2074,2293,2087,2070,2023
2054,2056,2043,2095,2302,2090,2030,2027
2052,2043,2030,2064,2092,2050,2010,2030
2046,2041,2045,2058,2023,2050,2021,2037
2041,2036,2049,2078,2074,2074,2039,2046
2044,2040,2052,2074,2074,2062,2047,2051
2055,2044,2052,2072,2059,2050,2040,2060
2054,2046,2046,2061,2042,2045,2043,2058
2048,2033,2039,2058,2062,2051,2032,2057
2030,2030,2035,2048,2052,2047,2054,2065
2032,2026,2042,2043,2044,2037,2041,2067
2028,2021,2032,2033,2048,2033,2044,2068
2026,2027,2030,2039,2051,2044,2039,2074
2049,2047,2043,2041,2036,2043,2048,2073
2050,2043,2038,2045,2017,2049,2044,2067
2049,2036,2037,2051,2005,2055,2050,2066
2042,2031,2041,2059,2013,2052,2029,2061
2040,2041,2046,2065,2025,2053,2044,2056
2046,2045,2060,2074,2025,2036,2043,2051
2050,2055,2066,2081,2046,2028,2040,2055
2056,2066,2076,2082,2060,2032,2047,2050
2060,2068,2066,2077,2062,2038,2051,2045
2058,2063,2062,2064,2064,2044,2066,2036
2052,2046,2052,2049,2060,2054,2065,2030
2053,2041,2051,2043,2060,2052,2058,2024
2056,2043,2049,2041,2058,2056,2037,2023
2062,2055,2063,2050,2060,2057,2052,2023
2057,2051,2059,2052,2048,2055,2042,2018
2054,2044,2055,2039,2044,2086,2030,2016
2058,2052,2053,2032,2022,2102,2025,2025
2063,2054,2058,2029,1973,2114,2047,2034
2054,2049,2055,2023,1950,2113,2044,2022
2043,2046,2047,2005,1893,2078,2055,2023
2048,2046,2051,2017,1921,2049,2071,2037
2053,2058,2060,2061,2017,2077,2085,2053
2061,2069,2075,2079,2028,2079,2089,2056
2062,2065,2067,2052,1977,2044,2064,2056
2044,2054,2053,2041,2021,2016,2053,2058
2043,2050,2061,2076,2075,2012,2051,2058
2046,2046,2061,2080,2043,1996,2054,2059
2042,2041,2057,2059,1995,1991,2058,2072
2041,2032,2058,2069,2053,2014,2047,2080
2039,2025,2061,2080,2086,2019,2049,2079
2034,2026,2067,2107,2142,2027,2037,2072
2032,2028,2061,2116,2171,2048,2037,2087
2050,2046,2070,2112,2160,2077,2059,2100
2066,2068,2070,2103,2116,2083,2046,2097
2076,2061,2064,2092,2064,2083,2052,2079
2061,2057,2061,2083,2055,2072,2041,2069
2048,2052,2052,2073,2030,2049,2022,2053
2042,2045,2041,2061,2030,2036,2043,2056
2048,2050,2041,2065,2060,2045,2043,2047
2051,2046,2043,2069,2100,2036,2049,2031
2042,2039,2029,2046,2078,2022,2046,2034
2048,2041,2025,2040,2052,2022,2046,2046
2046,2038,2019,2040,2026,2019,2035,2042
2045,2038,2020,2025,2029,2017,2042,2028
2046,2040,2016,2021,2064,2024,2040,2027
2040,2037,2019,2015,2117,2034,2047,2023
2047,2037,2022,2024,2179,2045,2064,2019
2042,2037,2027,2031,2168,2035,2052,2011
2032,2035,2034,2038,2179,2040,2059,2022
2032,2044,2051,2067,2174,2061,2071,2035
2044,2056,2058,2047,2023,2058,2076,2044
2054,2059,2048,2045,1972,2062,2081,2042
2050,2047,2043,2053,1991,2062,2071,2045
2051,2045,2031,2044,1989,2057,2072,2037
2046,2029,2024,2040,1971,2050,2055,2030
2030,2028,2029,2051,2021,2052,2056,2027
2037,2039,2035,2064,2059,2071,2044,2036
2046,2037,2042,2064,2046,2082,2056,2042
2038,2038,2033,2066,2029,2089,2048,2060
2033,2034,2033,2079,2035,2081,2041,2072
2037,2031,2031,2087,2052,2058,2052,2085
2039,2036,2031,2102,2078,2058,2047,2086
2046,2038,2030,2108,2093,2089,2082,2089
2054,2034,2024,2092,2056,2087,2067,2084
2048,2021,2018,2070,2032,2045,2059,2085
2039,2031,2024,2045,2020,2047,2064,2076
2032,2033,2024,1997,1911,2055,2063,2062
2033,2038,2025,1973,1894,2017,2049,2064
2032,2043,2040,2010,2051,1968,2042,2070
2028,2052,2069,2053,2114,1982,2057,2068
2047,2063,2078,2068,2082,2011,2048,2063
2048,2064,2068,2076,2085,2020,2047,2057
2058,2065,2060,2066,2104,2022,2044,2057
2070,2067,2050,2052,2072,2019,2047,2048
2054,2051,2040,2037,2019,2017,2047,2039
2051,2056,2044,2049,2001,1995,2054,2048
2055,2067,2052,2042,1911,1971,2037,2036
2054,2060,2053,2032,1816,1963,2042,2021
2052,2062,2072,2056,1938,1989,2044,2014
2049,2060,2070,2072,2062,2012,2041,2004
2040,2039,2060,2073,2112,2021,2038,2005
2030,2036,2037,2082,2121,2042,2056,2010
2028,2026,2027,2075,2086,2058,2061,2016
2018,2020,2019,2069,2050,2051,2067,2008
2024,2026,2025,2078,2045,2054,2061,2014
2037,2044,2042,2081,2066,2079,2069,2028
2043,2050,2038,2090,2089,2099,2089,2031
2039,2045,2030,2088,2097,2104,2078,2035
2039,2033,2031,2088,2102,2093,2071,2036
2031,2035,2042,2088,2082,2076,2066,2047
2050,2049,2068,2088,2049,2057,2066,2053
2060,2050,2076,2073,2031,2062,2068,2071
2069,2056,2076,2066,2026,2057,2055,2075
2064,2052,2073,2055,2005,2052,2052,2066
2046,2050,2058,2043,1988,2057,2050,2064
2041,2049,2067,2044,1986,2057,2064,2074
2049,2053,2079,2047,1986,2045,2054,2074
2040,2062,2097,2051,2036,2045,2064,2085
2040,2075,2110,2088,2137,2055,2046,2078
2043,2073,2095,2103,2173,2042,2049,2077
2048,2062,2078,2086,2155,2041,2058,2079
2045,2051,2055,2052,2125,2056,2048,2076
2046,2045,2045,2030,2077,2068,2066,2063
2049,2048,2044,2018,2061,2063,2045,2052
2047,2046,2042,2008,2050,2065,2056,2050
2054,2050,2046,2008,2043,2057,2064,2046
2060,2059,2046,2018,2047,2030,2068,2053
2065,2065,2047,2020,2041,2029,2081,2048
2055,2059,2033,2026,2037,2029,2089,2038
2038,2049,2021,2029,2055,2040,2068,2030
2037,2042,2018,2033,2051,2044,2072,2031
2041,2039,2011,2031,2038,2061,2077,2033
2041,2036,1987,2023,2023,2052,2070,2018
2031,2013,1988,2027,2017,2040,2052,2003
2029,2022,2000,2036,2048,2046,2026,2005
2042,2033,2005,2033,2060,2048,2064,2014
2037,2034,2010,2042,2062,2049,2057,2019
2043,2046,2036,2065,2065,2048,2064,2030
2041,2049,2058,2074,2077,2035,2033,2022
2035,2044,2066,2076,2072,2028,2039,2023
2036,2038,2068,2076,2085,2043,2047,2029
2047,2044,2081,2083,2090,2056,2045,2030
2061,2063,2105,2085,2107,2064,2055,2045
2061,2075,2120,2093,2128,2068,2044,2054
2057,2076,2111,2096,2114,2056,2038,2058
2050,2061,2082,2086,2108,2036,2019,2064
2037,2028,2058,2072,2114,2034,2013,2054
2031,2028,2047,2070,2115,2034,2027,2052
2035,2050,2068,2088,2117,2040,2040,2069
2048,2074,2103,2097,2110,2050,2045,2075
2052,2090,2114,2088,2096,2045,2057,2078
2049,2084,2106,2062,1996,2022,2043,2069
2043,2070,2077,2031,1952,1995,2022,2067
2050,2054,2067,2029,1998,2015,2029,2059
2059,2053,2053,2037,2031,2038,2036,2061
2070,2057,2052,2035,2049,2061,2032,2070
2073,2048,2040,2031,2064,2057,2031,2053
2055,2054,2052,2044,2067,2061,2017,2043
2055,2060,2068,2064,2086,2077,2026,2040
2050,2066,2072,2078,2074,2088,2036,2048
2052,2069,2084,2086,2065,2095,2042,2051
2053,2071,2085,2087,2062,2066,2049,2043
2042,2071,2074,2079,2086,2041,2064,2018
2039,2059,2065,2080,2084,2054,2064,2014
2048,2062,2059,2088,2069,2074,2044,2008
2039,2053,2050,2067,2034,2085,2030,1993
2036,2047,2042,2035,1982,2065,2037,1989
2037,2048,2045,2029,1960,2035,2013,2008
2057,2057,2056,2049,1982,2023,2017,2010
2058,2050,2051,2054,1978,2021,2044,2012
2052,2043,2045,2078,2058,2048,2047,2019
2051,2037,2046,2093,2113,2074,2074,2030
2048,2033,2039,2078,2079,2060,2049,2024
2038,2033,2033,2066,2079,2058,2060,2033
2034,2022,2023,2054,2065,2047,2054,2037
2032,2018,2020,2046,2071,2030,2047,2042
2036,2029,2035,2054,2085,2022,2052,2052
2034,2034,2043,2061,2105,2016,2059,2062
2039,2034,2052,2058,2117,2015,2051,2070
2042,2035,2055,2055,2106,2013,2052,2075
2038,2039,2059,2052,2081,2008,2043,2079
2036,2031,2049,2035,2007,1985,1999,2069
2023,2027,2034,2013,1931,1990,2031,2069
2028,2028,2039,2024,1920,2007,2035,2068
2035,2048,2053,2034,1948,2020,2030,2072
2041,2061,2061,2032,1971,2035,2038,2077
2048,2085,2061,2052,2007,2052,2035,2081
2053,2080,2057,2054,2016,2056,2044,2068
2057,2067,2042,2048,2025,2056,2045,2054
2051,2058,2041,2047,2059,2068,2046,2049
2056,2065,2043,2064,2100,2085,2075,2046
2060,2066,2046,2052,2066,2080,2068,2040
2053,2065,2049,2047,2032,2074,2055,2033
2053,2072,2063,2053,2044,2067,2060,2030
2050,2068,2066,2057,2052,2058,2058,2033
2053,2065,2062,2059,2046,2045,2057,2025
2049,2059,2062,2060,2047,2043,2060,2019
2048,2057,2059,2058,2056,2049,2063,2014
2043,2041,2047,2050,2088,2051,2049,2017
2043,2043,2054,2062,2103,2064,2057,2004
2049,2053,2070,2078,2112,2068,2065,2011
2046,2053,2072,2081,2081,2057,2040,2010
2050,2056,2074,2080,2058,2044,2054,2012
2040,2059,2067,2069,2038,2044,2052,2012
2049,2058,2065,2064,2036,2047,2046,2018
2048,2057,2060,2057,2019,2049,2064,2030
2046,2055,2052,2048,2005,2040,2050,2033
2043,2044,2042,2024,1965,2021,2047,2032
2040,2043,2041,2016,1948,2021,2058,2036
2041,2050,2038,2018,1966,2027,2042,2037
2038,2040,2034,2025,2036,2040,2051,2047
2029,2040,2038,2053,2105,2073,2049,2060
2040,2057,2055,2080,2145,2086,2064,2073
2039,2053,2064,2089,2146,2083,2048,2076
2039,2047,2055,2076,2144,2080,2048,2076
2031,2043,2047,2064,2110,2057,2047,2073
2032,2043,2045,2052,2066,2036,2048,2076
2031,2044,2046,2061,2047,2035,2040,2075
2041,2054,2056,2062,2033,2046,2045,2062
2041,2063,2063,2062,2029,2052,2045,2064
2048,2060,2064,2071,2047,2057,2055,2058
2049,2061,2069,2071,2052,2052,2048,2050
2048,2063,2067,2067,2058,2044,2042,2042
2048,2053,2060,2068,2060,2045,2053,2040
2046,2051,2044,2060,2058,2049,2055,2040
2045,2051,2030,2062,2074,2055,2057,2030
2052,2045,2030,2068,2075,2054,2064,2016
2054,2046,2034,2069,2079,2063,2055,2014
2049,2047,2038,2065,2082,2069,2066,2013
2043,2037,2021,2064,2086,2064,2069,2015
2045,2038,2003,2057,2068,2061,2059,2018
2043,2032,1995,2050,2056,2063,2045,2020
2048,2032,1993,2051,2045,2070,2054,2016
2047,2036,1996,2062,2044,2069,2071,2009
2041,2036,1996,2060,2031,2059,2070,2016
2041,2030,1994,2048,2018,2055,2047,2014
2039,2029,1984,2035,2050,2041,2040,2008
2041,2026,1978,2018,2063,2029,2055,2024
2037,2026,1986,2016,2088,2045,2064,2028
2040,2033,2004,2025,2129,2065,2053,2039
2041,2042,2012,2008,2130,2072,2046,2044
2036,2048,2042,2011,2130,2081,2052,2049
2039,2050,2049,2003,2125,2084,2046,2055
2040,2056,2063,2010,2058,2073,2037,2061
2043,2070,2098,2026,1999,2056,2048,2066
2050,2080,2111,2055,2026,2071,2057,2086
2045,2070,2093,2075,2029,2084,2036,2084
2041,2055,2076,2068,2013,2067,2042,2080
2039,2052,2062,2062,1967,2003,2036,2080
2041,2060,2069,2069,1961,1962,2048,2082
2051,2065,2084,2058,1923,1975,2042,2090
2053,2067,2089,2033,1876,2010,2032,2078
2057,2075,2084,2036,1907,2040,2032,2068
2059,2073,2090,2040,1970,2047,2038,2060
2062,2075,2101,2049,1982,2046,2037,2049
2061,2068,2087,2053,2012,2034,2045,2043
2049,2060,2086,2056,2083,2026,2016,2031
2047,2058,2081,2066,2113,2028,2025,2034
2051,2061,2084,2067,2033,2039,2029,2030
2045,2057,2076,2044,1961,2034,2037,2022
2052,2067,2082,2039,2015,2039,2041,2025
2056,2064,2079,2037,2051,2051,2038,2025
2049,2054,2068,2040,2056,2046,2034,2009
2043,2042,2063,2044,2044,2024,2026,2015
2040,2048,2068,2062,2051,2025,2039,2018
2041,2055,2077,2074,2041,2024,2032,2017
2046,2047,2069,2066,2016,2021,2039,2006
2041,2040,2048,2058,2033,2049,2045,1997
2034,2028,2036,2058,2107,2089,2057,2002
2033,2031,2038,2079,2127,2095,2043,2012
2037,2046,2030,2069,2079,2075,2035,2007
2041,2055,2031,2062,2032,2015,2010,2021
2049,2064,2040,2084,2062,1933,1990,2055
2055,2070,2046,2087,2065,1933,2023,2072
2049,2066,2032,2065,2044,1968,2017,2059
2045,2052,2028,2054,2066,2024,2035,2066
2055,2060,2030,2070,2099,2060,2028,2076
2055,2050,2029,2065,2105,2069,2043,2081
2050,2046,2018,2055,2102,2096,2023,2077
2038,2030,2021,2041,2064,2101,2033,2072
2036,2025,2022,2031,2023,2095,2018,2065
2050,2037,2046,2034,2004,2087,2018,2065
2050,2044,2056,2036,1992,2051,2015,2059
2053,2050,2074,2049,2013,2007,2035,2080
2055,2051,2070,2068,2076,2011,2043,2080
2050,2052,2062,2069,2090,2044,2057,2074
2050,2048,2054,2076,2122,2093,2040,2045
2038,2044,2037,2064,2079,2106,2043,2027
2027,2044,2027,2050,2039,2085,2029,2019
2032,2045,2021,2048,2029,2062,2036,2023
2037,2046,2025,2033,2006,2043,2027,2021
2041,2049,2025,2029,2015,2013,2010,2027
2049,2060,2041,2035,2061,2008,2049,2033
2053,2055,2036,2052,2075,2018,2061,2030
2051,2052,2048,2053,2072,2047,2032,2025
2045,2043,2052,2043,2074,2055,2020,2018
2041,2046,2047,2035,2064,2059,2021,2007
2044,2044,2052,2034,2052,2062,2029,2009
2038,2044,2043,2030,2040,2084,2018,2012
2050,2043,2042,2040,2037,2109,2050,2020
2048,2053,2041,2040,2044,2110,2037,2027
2035,2052,2034,2032,2043,2097,2049,2029
2034,2050,2043,2042,2095,2081,2039,2044
2045,2065,2054,2063,2113,2068,2040,2054
2055,2072,2064,2070,2119,2040,2059,2060
2059,2065,2057,2067,2135,2013,2038,2060
2051,2059,2054,2072,2154,2028,2040,2064
2054,2055,2053,2075,2155,2056,2042,2074
2050,2050,2046,2070,2121,2059,2041,2072
2048,2046,2054,2069,2098,2067,2029,2073
2050,2054,2062,2070,2105,2063,2028,2082
2049,2056,2065,2062,2055,2040,2027,2077
2033,2041,2057,2030,1934,2012,2029,2086
2042,2043,2057,2037,1916,1997,2023,2083
2042,2062,2062,2048,1941,1993,2023,2073
2049,2055,2056,2058,2008,2011,2019,2075
2047,2048,2049,2061,2068,2012,2022,2075
2044,2034,2048,2062,2137,2024,2040,2075
2046,2038,2044,2062,2190,2033,2047,2076
2045,2036,2038,2057,2147,2020,2056,2066
2052,2046,2042,2055,2051,2022,2060,2058
2046,2054,2049,2058,2023,2030,2046,2057
2055,2052,2052,2059,2017,2026,2036,2045
2054,2051,2047,2039,2001,2027,2033,2044
2049,2043,2039,2012,1957,2029,2019,2033
2044,2040,2034,2005,1915,2027,2021,2030
2045,2045,2035,2010,1876,2011,2011,2021
2029,2044,2042,2010,1843,1999,2006,2000
2027,2041,2046,2015,1857,1984,2013,2004
2036,2049,2064,2041,1932,1988,2038,2025
2052,2060,2077,2066,1999,2025,2066,2031
2057,2070,2077,2093,2088,2059,2076,2035
2053,2074,2083,2114,2146,2079,2083,2049
2071,2083,2084,2106,2136,2069,2039,2053
2072,2072,2070,2080,2096,2050,2030,2046
2061,2060,2054,2068,2088,2067,2043,2042
2054,2056,2054,2075,2089,2071,2054,2047
2050,2054,2044,2078,2116,2080,2054,2055
2052,2054,2030,2091,2131,2083,2066,2063
2048,2043,2009,2084,2094,2073,2036,2054
2037,2030,1998,2067,2090,2067,2032,2058
2026,2034,2009,2082,2113,2069,2037,2061
2026,2040,2010,2080,2104,2059,2041,2067
2035,2038,2000,2068,2071,2046,2035,2067
2041,2040,1997,2063,2048,2027,2031,2070
2044,2036,2002,2063,2035,2034,2052,2081
2043,2042,2010,2068,2063,2062,2050,2097
2054,2052,2012,2060,2097,2074,2064,2097
2053,2056,2015,2056,2136,2082,2060,2086
2042,2045,2008,2052,2152,2087,2056,2076
2041,2043,2018,2050,2148,2085,2061,2070
2047,2048,2041,2053,2154,2088,2062,2063
2043,2051,2057,2062,2146,2085,2059,2056
2040,2048,2071,2053,2092,2069,2040,2056
2044,2047,2072,2043,2010,2044,2053,2046
2047,2051,2084,2033,1902,2032,2031,2042
2045,2059,2092,2048,1938,2043,2042,2039
2056,2070,2105,2065,1969,2046,2043,2028
2060,2068,2113,2065,1917,2041,2032,2030
2054,2073,2107,2042,1899,2033,2028,2022
2047,2060,2089,2020,1889,2011,2024,2006
2033,2038,2065,2017,1951,1987,2006,2003
2030,2036,2062,2031,1987,1992,2005,2016
2031,2042,2066,2064,2050,2018,2013,2012
2034,2047,2067,2066,2078,2039,2027,2006
2030,2044,2060,2053,2073,2021,2018,2008
2029,2044,2052,2039,2079,2018,2040,2016
2040,2043,2056,2043,2068,2023,2032,2026
2042,2052,2047,2047,2046,2031,2022,2036
2048,2051,2042,2047,2047,2039,2033,2054
2064,2058,2044,2054,2049,2028,2036,2063
2055,2057,2044,2063,2050,2028,2039,2056
2050,2052,2050,2054,2055,2038,2046,2055
2044,2042,2045,2064,2054,2050,2054,2058
2032,2036,2046,2057,2068,2052,2041,2060
2039,2038,2042,2053,2055,2046,2047,2067
2039,2036,2045,2055,2044,2042,2057,2071
2031,2034,2042,2057,2073,2041,2058,2079
2029,2031,2041,2073,2080,2054,2034,2081
2037,2038,2044,2064,2048,2080,2063,2083
2045,2045,2037,2060,2025,2093,2064,2080
2047,2038,2031,2054,2008,2081,2038,2072
2041,2041,2032,2055,1991,2068,2028,2076
2050,2046,2037,2052,1996,2044,2041,2078
2055,2046,2038,2043,1985,2016,2028,2060
2052,2044,2043,2015,1901,2017,2016,2053
2045,2043,2042,2003,1953,2028,2024,2050
2044,2043,2033,2021,2120,2056,2011,2048
2044,2041,2057,2066,2200,2087,2041,2036
2043,2037,2058,2077,2149,2098,2057,2018
2046,2040,2057,2068,2109,2090,2047,2024
2049,2045,2041,2047,2046,2077,2051,2020
2049,2037,2032,2032,2019,2054,2058,2022
2043,2035,2022,2020,2005,2015,2048,2016
2028,2010,2006,1999,1977,1986,2032,2003
2018,2014,2020,2005,1981,2031,2050,2008
2024,2040,2048,2015,2000,2105,2050,2002
2030,2047,2050,2005,1997,2140,2046,1994
2024,2037,2041,1998,1969,2132,2035,1997
2034,2038,2038,2001,1944,2086,2039,2003
2032,2040,2044,2016,1997,1994,2033,2026
2056,2053,2057,2034,1993,1920,2052,2057
2061,2054,2061,2046,1994,1965,2073,2069
2061,2063,2069,2090,2142,2032,2071,2078
2053,2061,2062,2107,2207,2070,2068,2076
2051,2059,2059,2096,2209,2080,2071,2077
2042,2055,2048,2086,2168,2073,2086,2078
2046,2052,2036,2068,2120,2070,2069,2083
2047,2051,2038,2062,2106,2068,2073,2091
2041,2050,2040,2059,2105,2080,2065,2099
2043,2041,2032,2060,2094,2071,2049,2088
2038,2036,2031,2059,2082,2064,2066,2077
2038,2041,2043,2050,2064,2063,2069,2085
2045,2040,2043,2056,2075,2066,2066,2085
2044,2043,2048,2062,2108,2069,2069,2081
2048,2050,2049,2054,2127,2071,2047,2067
2042,2042,2045,2040,2091,2051,2037,2055
2046,2044,2037,2028,2001,2026,2027,2053
2041,2044,2041,2032,1963,2025,2029,2050
2045,2055,2049,2045,1964,2027,2033,2044
2045,2057,2048,2049,1994,2034,2062,2045
2039,2048,2053,2059,2028,2048,2049,2034
2038,2035,2039,2060,2048,2071,2045,2018
2035,2028,2026,2055,2050,2084,2052,2020
2032,2026,2026,2054,2031,2107,2052,2006
2040,2039,2035,2046,2000,2115,2037,2003
2049,2044,2037,2048,1966,2072,2025,2011
2043,2033,2022,2029,1939,2044,2039,2017
2041,2030,2011,2019,1908,2019,2042,2026
2060,2037,2013,2034,1943,1996,2050,2039
2066,2049,2014,2053,2018,2024,2053,2039
2066,2055,2017,2058,2034,2048,2074,2035
2063,2051,2002,2060,2059,2059,2053,2038
2054,2045,1987,2059,2113,2061,2052,2034
2048,2040,1994,2068,2114,2053,2053,2042
2046,2034,1986,2066,2089,2044,2040,2043
2048,2027,1987,2060,2105,2040,2042,2045
2040,2021,1990,2050,2111,2021,2010,2051
2037,2017,1994,2030,2125,2010,2019,2068
2049,2035,2019,2047,2120,2015,2041,2076
2061,2052,2048,2051,1971,2016,2046,2088
2060,2059,2071,2039,1965,2018,2026,2091
2064,2063,2080,2029,1978,2012,2024,2079
2045,2055,2074,2017,1951,2002,2008,2058
2034,2057,2087,2035,2016,2039,2017,2068
2037,2069,2098,2072,2094,2076,2046,2076
2057,2071,2093,2076,2125,2072,2062,2088
2053,2058,2067,2022,2036,2018,2044,2084
2050,2039,2048,1969,1910,1977,2016,2060
2043,2040,2034,1936,1741,1947,2000,2045
2033,2039,2036,1958,1810,1985,2003,2025
2034,2032,2040,2022,2022,2037,2024,2018
2038,2037,2051,2064,2119,2064,2052,2024
2046,2045,2058,2072,2144,2089,2061,2029
2045,2054,2074,2080,2173,2103,2058,2028
2057,2055,2083,2082,2142,2108,2050,2018
2051,2054,2077,2075,2076,2086,2052,2017
2053,2040,2076,2066,2022,2048,2052,2016
2055,2042,2072,2065,2024,2027,2037,2015
2054,2046,2070,2068,2059,2033,2037,2018
2051,2047,2073,2072,2087,2057,2068,2019
2052,2051,2075,2075,2100,2098,2085,2025
2059,2055,2077,2078,2099,2118,2085,2030
2058,2061,2062,2069,2103,2114,2069,2026
2055,2058,2058,2063,2078,2096,2059,2031
2049,2056,2050,2050,2077,2086,2073,2026
2047,2056,2050,2043,2077,2069,2059,2022
2045,2055,2041,2031,2058,2042,2063,2030
2047,2053,2034,2016,2025,2025,2064,2042
2042,2052,2041,2032,2032,2038,2057,2052
2041,2056,2045,2057,2065,2054,2061,2045
2031,2049,2029,2050,2059,2061,2071,2050
2026,2042,2026,2039,2050,2058,2056,2067
2038,2042,2023,2028,2027,2042,2042,2056
2037,2038,2024,2026,2018,2037,2034,2076
2037,2035,2022,2038,2041,2032,2024,2075
2031,2032,2025,2046,2076,2038,2040,2078
2037,2028,2018,2055,2114,2043,2017,2075
2036,2031,2020,2061,2112,2057,2037,2072
2040,2037,2017,2060,2104,2063,2045,2078
2045,2038,2013,2056,2104,2068,2048,2072
2052,2037,2023,2060,2102,2071,2045,2056
2047,2041,2025,2062,2110,2072,2045,2053
2052,2038,2028,2054,2072,2069,2046,2051
2049,2043,2028,2030,1963,2053,2053,2046
2050,2037,2026,2015,1947,2047,2044,2036
2052,2036,2027,2016,2032,2051,2043,2024
2042,2032,2020,2026,2057,2062,2036,2025
2041,2038,2030,2035,2051,2062,2039,2026
2049,2049,2047,2044,2039,2064,2043,2028
2057,2060,2064,2051,2028,2061,2049,2026
2065,2059,2069,2042,2010,2053,2056,2020
2052,2046,2056,2034,1999,2049,2046,2019
2042,2039,2048,2035,2004,2043,2033,2027
2041,2036,2039,2032,1994,2021,2044,2027
2041,2035,2040,2027,1982,2014,2051,2020
2041,2046,2052,2023,1987,2022,2046,2028
2042,2046,2049,2024,1976,2022,2040,2004
2026,2047,2064,2043,2004,2046,2049,2004
2040,2055,2073,2060,2035,2071,2052,2028
2054,2062,2076,2054,2038,2078,2047,2046
2059,2049,2065,2056,2025,2086,2047,2047
2054,2047,2059,2068,2023,2086,2031,2047
2056,2036,2039,2065,2029,2074,2059,2045
2055,2041,2042,2080,2054,2031,2064,2058
2055,2045,2048,2081,2089,2015,2042,2069
2052,2047,2048,2078,2081,2011,2042,2068
2046,2050,2040,2068,2042,2005,2042,2069
2050,2038,2029,2048,1969,1996,2048,2062
2041,2030,2017,2061,2023,2009,2030,2074
2041,2038,2023,2080,2100,2030,2038,2074
2039,2038,2019,2083,2113,2035,2034,2073
2046,2049,2022,2080,2130,2037,2031,2072
2051,2044,2021,2074,2128,2038,2023,2065
2042,2039,2018,2055,2088,2040,2021,2050
2049,2036,2011,2033,2045,2027,2021,2045
2046,2038,2007,2026,2027,2022,2005,2045
2046,2042,2016,2006,2019,2015,2009,2039
2043,2046,2034,2003,2003,2017,2019,2027
2043,2043,2050,2006,2014,2033,2020,2028
2045,2051,2070,2005,2038,2045,2036,2025
2043,2054,2088,2012,2076,2060,2048,2019
2051,2062,2090,2016,2084,2072,2056,2023
2053,2062,2088,2033,2080,2082,2057,2027
2052,2057,2076,2038,2065,2067,2043,2019
2049,2046,2066,2044,2073,2072,2062,2012
2048,2048,2066,2048,2104,2078,2065,2021
2053,2050,2067,2054,2123,2084,2071,2027
2046,2046,2056,2055,2144,2078,2070,2022
2037,2045,2051,2038,2091,2058,2048,2011
2027,2045,2054,2032,2017,2051,2050,2023
2041,2056,2068,2054,2029,2058,2059,2036
2052,2058,2069,2067,2065,2076,2043,2035
2042,2058,2062,2059,2090,2096,2051,2037
2044,2051,2054,2057,2101,2118,2059,2056
2051,2053,2049,2060,2122,2109,2072,2059
2054,2055,2047,2068,2090,2052,2045,2062
2051,2047,2048,2047,2029,2011,2034,2068
2045,2047,2047,2042,2037,2018,2038,2082
2044,2050,2057,2053,2050,2021,2042,2081
2050,2048,2057,2037,1983,2003,2037,2078
2038,2036,2049,2033,1962,2013,2050,2082
2036,2042,2051,2031,1879,2017,2064,2093
2047,2049,2046,2020,1838,2014,2060,2083
2044,2040,2039,2024,1952,2015,2053,2069
2040,2046,2042,2038,2030,2016,2038,2058
2042,2046,2046,2051,2055,2041,2057,2058
2047,2038,2043,2042,2060,2051,2056,2056
2044,2040,2039,2036,2066,2044,2058,2040
2040,2037,2033,2031,2041,2040,2061,2030
2043,2029,2037,2034,2036,2046,2062,2026
2047,2039,2035,2042,2047,2059,2057,2021
2046,2044,2041,2044,2060,2070,2066,2021
2053,2039,2034,2045,2072,2091,2060,2019
2053,2041,2035,2049,2078,2104,2069,2012
2049,2040,2046,2059,2092,2096,2058,2007
2044,2045,2051,2054,2094,2052,2039,2007
2040,2043,2044,2056,2114,2029,2034,2014
2046,2039,2053,2073,2121,2026,2054,2023
2054,2045,2048,2059,2066,2018,2056,2023
2050,2045,2047,2050,2006,1994,2050,2011
2040,2051,2046,2041,1992,2002,2055,2020
2043,2053,2049,2044,1999,2012,2057,2031
2051,2066,2057,2055,2004,2023,2045,2032
2047,2063,2056,2051,2012,2030,2047,2044
2057,2062,2063,2055,2034,2052,2070,2059
2060,2063,2068,2065,2060,2066,2070,2053
2062,2064,2069,2064,2053,2063,2074,2055
2057,2061,2068,2068,2083,2061,2069,2058
2043,2051,2057,2057,2118,2055,2063,2059
2045,2044,2049,2053,2116,2057,2025,2061
2040,2039,2044,2043,2078,2055,2027,2065
2036,2038,2040,2036,2022,2040,2023,2054
2028,2030,2038,2024,1990,2030,2014,2057
2025,2037,2040,2026,1956,2016,2031,2062
2035,2050,2045,2032,1932,1988,2027,2072
2049,2058,2056,2050,1927,1998,2051,2080
2057,2064,2066,2059,1965,2057,2058,2071
2051,2065,2064,2058,1976,2086,2057,2061
2050,2065,2057,2062,2001,2099,2049,2046
2051,2064,2046,2049,2023,2082,2039,2034
2043,2054,2050,2050,2066,2041,2040,2039
2047,2049,2056,2065,2110,2037,2035,2038
2054,2062,2058,2080,2136,2070,2056,2029
2058,2058,2057,2066,2141,2084,2058,2022
2054,2057,2052,2054,2116,2095,2031,2018
2043,2051,2055,2060,2107,2080,2043,2013
2042,2052,2046,2052,2025,2035,2045,2017
2047,2053,2053,2054,1964,1992,2064,2020
2047,2051,2047,2046,1939,2013,2054,2017
2046,2042,2044,2050,1962,2036,2073,2022
2053,2054,2054,2058,2037,2056,2063,2014
2053,2054,2053,2057,2048,2048,2057,2018
2051,2047,2046,2046,2034,2037,2064,2017
2045,2040,2042,2041,2040,2040,2066,2018
2038,2036,2035,2040,2042,2046,2071,2023
2049,2038,2035,2037,2032,2048,2077,2034
2055,2048,2043,2040,2039,2056,2074,2039
2059,2053,2057,2055,2056,2066,2076,2050
2059,2062,2061,2058,2056,2072,2080,2058
2056,2058,2051,2056,2049,2073,2084,2069
2054,2053,2043,2056,2044,2079,2079,2069
2042,2049,2041,2055,2044,2074,2069,2074
2043,2046,2037,2053,2048,2046,2057,2084
2049,2050,2035,2053,2047,2023,2042,2085
2046,2043,2028,2051,2036,2023,2025,2091
2049,2039,2021,2047,2028,2040,2031,2084
2053,2035,2019,2042,2005,2072,2018,2071
2042,2030,2014,2030,1969,2086,2039,2056
2037,2031,2017,2027,1958,2049,2045,2040
2042,2032,2017,2034,1950,2021,2041,2042
2038,2033,2025,2028,1954,1980,2041,2048
2041,2035,2035,2049,2010,1957,2054,2051
2048,2043,2035,2062,2061,1996,2064,2040
2050,2044,2038,2053,2043,2018,2052,2037
2053,2037,2049,2057,2045,2046,2039,2035
2059,2051,2062,2051,2022,2064,2040,2023
2052,2049,2057,2028,1980,2073,2044,2021
2055,2049,2050,2029,1983,2090,2066,2030
2057,2049,2044,2037,1992,2092,2053,2021
2050,2031,2025,2027,1983,2057,2058,2014
2038,2023,2026,2028,2022,2044,2051,2020
2052,2051,2052,2039,2050,2043,2069,2029
2074,2080,2080,2053,2054,2065,2094,2039
2084,2080,2079,2063,2072,2073,2082,2038
2074,2073,2082,2054,2063,2052,2071,2029
2072,2067,2074,2076,2116,2057,2081,2033
2075,2062,2072,2089,2151,2061,2062,2048
2077,2062,2066,2087,2120,2071,2061,2043
2074,2063,2062,2079,2062,2046,2041,2040
2064,2057,2062,2074,2016,2033,2035,2036
2059,2052,2063,2070,2006,2029,2017,2042
2048,2040,2060,2056,2005,2020,2043,2055
2045,2035,2057,2045,2009,2031,2040,2069
2050,2042,2054,2051,2047,2057,2054,2078
2048,2046,2070,2066,2096,2066,2062,2092
2054,2049,2070,2071,2089,2055,2049,2084
2041,2041,2061,2061,2067,2040,2040,2085
2049,2041,2053,2045,2064,2038,2039,2084
2042,2046,2058,2052,2070,2048,2047,2080
2036,2040,2042,2043,2057,2055,2059,2083
2041,2050,2046,2044,2049,2058,2070,2086
2045,2045,2043,2040,2052,2062,2067,2081
2055,2048,2033,2031,2047,2058,2058,2067
2045,2041,2032,2035,2056,2049,2053,2055
2060,2049,2030,2032,2061,2050,2071,2055
2054,2045,2037,2042,2076,2046,2060,2054
2056,2053,2040,2046,2075,2041,2045,2054
2060,2053,2044,2050,2067,2042,2028,2046
2056,2054,2046,2051,2055,2049,2056,2038
2054,2051,2041,2042,2039,2045,2039,2031
2054,2052,2042,2039,2026,2034,2043,2026
2051,2049,2045,2037,2020,2037,2033,2020
2042,2038,2042,2035,2022,2034,2041,2010
2042,2040,2036,2035,2033,2035,2045,2020
2045,2043,2045,2040,2035,2030,2051,2018
2047,2046,2045,2043,2040,2025,2064,2028
2051,2042,2055,2033,2046,2037,2066,2030
2051,2049,2058,2045,2053,2052,2071,2037
2054,2058,2065,2051,2061,2057,2087,2032
2056,2062,2062,2056,2066,2064,2078,2038
2058,2064,2062,2055,2060,2064,2080,2049
2054,2058,2060,2051,2044,2062,2060,2051
2057,2052,2058,2047,2039,2065,2055,2052
2043,2044,2047,2048,2056,2072,2051,2056
2036,2032,2040,2047,2057,2087,2055,2061
2038,2033,2051,2053,2080,2122,2065,2065
2046,2048,2057,2071,2091,2151,2072,2073
2052,2058,2057,2072,2100,2145,2076,2082
2052,2050,2055,2066,2095,2118,2057,2071
2038,2039,2045,2058,2091,2076,2041,2080
2041,2039,2043,2042,2055,2027,2046,2079
2039,2050,2052,2032,1959,1968,2053,2087
2046,2049,2052,2027,1916,1957,2048,2088
2049,2049,2052,2032,2006,1980,2027,2062
2047,2048,2053,2046,2042,2012,2037,2063
2052,2040,2051,2061,2025,2045,2056,2063
2049,2044,2053,2049,1978,2053,2048,2054
2056,2051,2050,2040,1949,2046,2045,2045
2053,2055,2045,2036,1963,2039,2047,2043
2051,2045,2042,2030,1986,2027,2052,2036
2048,2044,2042,2026,2027,2030,2049,2035
2054,2050,2043,2044,2066,2051,2047,2034
2051,2051,2044,2049,2069,2053,2065,2035
2043,2049,2038,2052,2055,2057,2039,2030
2047,2053,2041,2044,2047,2052,2056,2015
2052,2041,2035,2039,2048,2050,2046,2009
2038,2034,2034,2044,2044,2045,2036,2009
2041,2041,2043,2050,2064,2059,2042,2025
2051,2047,2049,2057,2069,2067,2054,2032
2050,2052,2051,2058,2070,2069,2061,2034
2043,2052,2048,2057,2055,2061,2056,2040
2045,2049,2051,2054,2057,2043,2065,2047
2048,2054,2054,2054,2047,2036,2060,2049
2049,2049,2054,2050,2050,2033,2072,2056
2044,2049,2055,2054,2064,2029,2074,2050
2043,2049,2054,2056,2076,2023,2052,2055
2043,2052,2055,2052,2072,2029,2046,2069
2045,2048,2054,2056,2064,2036,2039,2081
2042,2051,2056,2057,2066,2008,2047,2086
2043,2052,2057,2057,2061,1987,2038,2082
2045,2052,2051,2053,2051,1989,2042,2083
2040,2046,2044,2049,2044,1996,2038,2085
2041,2036,2039,2048,2037,2006,2031,2088
2047,2046,2041,2058,2049,2011,2020,2095
2059,2055,2053,2058,2043,2026,2026,2087
2056,2048,2048,2058,2042,2048,2028,2082
2048,2043,2049,2055,2040,2060,2032,2065
2041,2037,2045,2047,2036,2045,2028,2054
2037,2035,2047,2038,2019,2031,2039,2040
2040,2041,2048,2038,2010,2027,2021,2043
2044,2040,2045,2035,1984,2018,2014,2042
2037,2036,2035,2024,1956,2016,2008,2026
2033,2032,2034,2021,1967,2022,2015,2025
2037,2038,2039,2035,1983,2032,2022,2019
2036,2041,2044,2043,2014,2050,2027,2021
2045,2051,2056,2072,2067,2062,2014,2023
2051,2052,2062,2080,2112,2090,2028,2022
2057,2052,2058,2075,2122,2126,2029,2025
2047,2034,2046,2060,2110,2142,2024,2019
2039,2030,2039,2060,2095,2150,2062,2028
2051,2041,2043,2051,2079,2157,2064,2036
2052,2042,2048,2047,2074,2149,2052,2037
2051,2042,2045,2046,2067,2121,2050,2037
2053,2042,2043,2052,2059,2059,2057,2032
2053,2044,2042,2049,2061,2035,2044,2033
2053,2048,2047,2050,2066,2045,2045,2042
2051,2046,2043,2043,2057,2059,2065,2055
2050,2039,2043,2048,2060,2067,2070,2061
2057,2038,2051,2049,2047,2067,2081,2070
2047,2042,2044,2047,2049,2070,2061,2064
2049,2047,2049,2041,2054,2066,2031,2075
2053,2050,2051,2045,2058,2066,2031,2073
2048,2048,2046,2043,2052,2033,2036,2083
2050,2047,2039,2046,2044,2001,2016,2070
2047,2040,2041,2035,2043,1992,1985,2070
2046,2044,2042,2042,2038,1999,1982,2077
2049,2049,2046,2039,2043,2022,2003,2080
2052,2042,2047,2040,2048,2053,2030,2077
2046,2043,2044,2040,2048,2057,2054,2077
2044,2038,2039,2038,2042,2052,2036,2071
2036,2036,2038,2035,2036,2041,2047,2062
2036,2038,2039,2040,2031,2037,2035,2059
2038,2035,2039,2032,2030,2037,2019,2043
2037,2035,2037,2029,2033,2038,2050,2036
2033,2034,2039,2041,2037,2044,2041,2025
2031,2040,2044,2042,2040,2042,2024,2021
2037,2041,2045,2047,2047,2042,2012,2023
2034,2042,2044,2046,2038,2037,2017,2018
2040,2043,2050,2045,2042,2023,2022,2013
2038,2048,2045,2047,2040,2014,2012,2011
2038,2038,2039,2040,2034,2015,2022,2012
2050,2034,2035,2042,2043,2018,2037,2021
2047,2050,2049,2047,2042,2016,2023,2029
2048,2047,2047,2049,2053,2020,2041,2030
2054,2050,2052,2046,2049,2025,2039,2038
2054,2054,2054,2049,2063,2046,2050,2041
2060,2063,2058,2053,2056,2053,2058,2049
2066,2051,2059,2048,2068,2059,2077,2064
2059,2051,2060,2057,2065,2063,2073,2069
2064,2060,2058,2050,2062,2055,2048,2064
2068,2055,2055,2046,2060,2053,2059,2064
2055,2054,2062,2042,2049,2044,2048,2071
2059,2046,2060,2044,2052,2054,2049,2077
2050,2048,2061,2043,2049,2061,2038,2083
2049,2049,2057,2044,2054,2067,2035,2098
2049,2057,2058,2040,2051,2074,2020,2094
2048,2051,2052,2040,2049,2065,2022,2091
2049,2048,2050,2039,2047,2056,1992,2092
2053,2057,2049,2038,2030,2085,2007,2091
2052,2049,2037,2016,1983,2116,2017,2060
2042,2041,2031,1997,1937,2116,2006,2040
2030,2037,2027,1992,1904,2090,2000,2030
2027,2031,2033,1992,1899,2036,2004,2036
2032,2044,2044,2010,1944,1956,2021,2057
2050,2058,2064,2043,2021,1920,2040,2058
2053,2063,2066,2062,2096,1986,2048,2046
2054,2059,2062,2060,2100,2047,2062,2046
2050,2056,2059,2057,2095,2062,2050,2040
2049,2054,2056,2051,2070,2021,2041,2043
2061,2058,2055,2053,2057,2006,2056,2056
2062,2060,2063,2055,2066,2016,2061,2045
2068,2064,2062,2058,2073,2020,2052,2038
2064,2064,2068,2061,2059,2023,2041,2034
2053,2055,2051,2050,2049,2024,2045,2025
2043,2046,2046,2040,2039,2031,2042,2014
2045,2053,2048,2052,2050,2036,2050,2019
2046,2051,2051,2046,2057,2048,2055,2020
2051,2046,2050,2044,2033,2074,2056,2017
2047,2046,2044,2039,2021,2101,2062,2021
2046,2040,2040,2031,2021,2109,2057,2024
2043,2037,2029,2027,2019,2098,2061,2026
2036,2034,2037,2029,2032,2061,2059,2040
2042,2035,2053,2049,2078,1992,2056,2064
2046,2044,2052,2065,2094,1992,2066,2072
2047,2037,2053,2050,2077,2023,2068,2076
2045,2041,2049,2050,2082,2039,2067,2081
2039,2038,2037,2038,2074,2055,2065,2089
2036,2039,2033,2035,2080,2062,2055,2085
2039,2034,2035,2033,2088,2071,2065,2086
2038,2028,2026,2028,2085,2086,2056,2091
2039,2036,2032,2033,2077,2122,2067,2093
2035,2046,2039,2034,2074,2179,2077,2087
2042,2047,2036,2029,2061,2176,2072,2087
2046,2044,2040,2035,2040,2125,2056,2079
2046,2043,2036,2034,2032,2019,2048,2069
2046,2043,2041,2029,2032,1971,2055,2066
2055,2048,2040,2030,2031,1989,2054,2068
2063,2045,2036,2030,2031,2030,2063,2053
2061,2046,2031,2028,2035,2040,2076,2046
2052,2041,2036,2033,2039,2041,2076,2042
2050,2036,2036,2034,2032,2041,2065,2042
2054,2032,2036,2035,2066,2031,2064,2041
2062,2040,2048,2042,2111,2020,2041,2036
2060,2052,2052,2037,2131,2006,2022,2039
2060,2051,2053,2037,2129,2025,2040,2034
2063,2044,2041,2030,2108,2054,2060,2030
2057,2038,2043,2031,2092,2063,2065,2022
2052,2044,2052,2034,2048,2057,2078,2027
2057,2051,2059,2030,1998,2062,2068,2015
2055,2054,2057,2027,1899,2062,2067,2024
2056,2056,2064,2032,1910,2044,2043,2037
2062,2067,2072,2043,1935,2037,2015,2031
2060,2072,2077,2044,1941,2022,2024,2034
2064,2066,2071,2052,1996,2027,2016,2032
2058,2067,2064,2069,2044,2061,2032,2042
2056,2061,2058,2070,2067,2120,2051,2056
2052,2057,2049,2047,2049,2145,2065,2068
2050,2061,2059,2045,2095,2136,2070,2076
2054,2066,2069,2066,2145,2109,2057,2083
2059,2063,2064,2065,2127,2044,2039,2086
2061,2059,2064,2059,2113,2019,2028,2090
2057,2055,2060,2032,2042,1982,2018,2081
2049,2045,2045,1998,1949,1952,2011,2083
2049,2046,2042,2012,2009,1959,2026,2085
2067,2050,2052,2033,2082,1981,2029,2078
2056,2045,2040,2032,2096,1973,2052,2066
2051,2046,2043,2033,2080,1974,2061,2065
2056,2049,2045,2029,2056,1982,2051,2071
2061,2051,2045,2037,2059,1992,2058,2063
2063,2056,2039,2042,2086,2051,2083,2063
2058,2054,2043,2046,2099,2101,2081,2056
2060,2051,2045,2043,2085,2139,2101,2043
2057,2044,2042,2042,2061,2135,2092,2037
2052,2044,2038,2036,2013,2075,2061,2025
2043,2041,2037,2036,2026,2030,2021,2018
2032,2034,2043,2032,2015,2048,2036,2014
2038,2037,2041,2032,2009,2051,2044,2007
2045,2045,2038,2029,2002,2059,2052,2016
2042,2043,2039,2032,2010,2063,2061,2009
2040,2050,2043,2034,2019,2071,2067,2008
2039,2051,2041,2032,2032,2079,2067,2012
2043,2054,2045,2023,2061,2082,2055,1998
2045,2052,2047,2028,2083,2082,2043,2005
2042,2050,2046,2029,2070,2081,2038,2004
2043,2054,2043,2032,2065,2066,2044,2013
2039,2052,2039,2040,2070,2033,2045,2021
2049,2052,2046,2045,2087,2000,2047,2033
2056,2056,2048,2055,2093,2000,2035,2027
2057,2054,2053,2051,2088,2009,2042,2037
2049,2045,2050,2054,2076,2027,2048,2047
2048,2048,2046,2049,2067,2034,2050,2055
2055,2042,2047,2038,2053,2037,2040,2061
2049,2049,2051,2037,2047,2067,2051,2084
2052,2047,2048,2038,2053,2078,2060,2098
2055,2059,2048,2038,2046,2076,2053,2106
2058,2044,2035,2032,2042,2071,2064,2102
2052,2042,2041,2029,2045,2064,2065,2099
2058,2047,2042,2028,2034,2050,2071,2092
2050,2046,2045,2025,2020,2038,2050,2087
2056,2053,2045,2027,2007,2030,2043,2079
2052,2056,2044,2024,2003,2044,2056,2070
2052,2054,2042,2022,2000,2047,2052,2048
2048,2051,2039,2011,1993,2063,2045,2042
2044,2053,2043,2029,2004,2078,2049,2046
2054,2054,2050,2034,2006,2068,2053,2033
2052,2056,2050,2030,2006,2057,2026,2028
2054,2053,2052,2034,2025,2059,2043,2033
2059,2059,2057,2049,2058,2060,2038,2036
2062,2062,2059,2044,2084,2072,2043,2034
2060,2061,2062,2051,2096,2103,2067,2028
2054,2058,2054,2047,2096,2107,2086,2031
2053,2056,2053,2037,2073,2080,2052,2020
2054,2057,2052,2032,2060,2031,2041,2016
2056,2061,2058,2039,2044,2013,2019,2017
2060,2063,2052,2037,2029,2012,2004,2010
2051,2062,2057,2041,2033,1986,2011,2006
2048,2062,2057,2045,2071,2008,2009,2010
2050,2061,2060,2056,2112,2054,2037,2009
2045,2050,2051,2046,2129,2092,2035,2009
2035,2042,2044,2033,2096,2076,2035,2009
2033,2039,2041,2031,2053,2060,2038,2024
2038,2035,2044,2038,2049,2060,2044,2037
2042,2040,2047,2045,2066,2062,2049,2050
2042,2047,2046,2046,2070,2056,2040,2062
2044,2042,2047,2043,2062,2047,2050,2066
2041,2043,2046,2038,2054,2046,2044,2076
2043,2042,2045,2039,2051,2048,2045,2080
2050,2047,2050,2037,2055,2065,2043,2081
2047,2036,2042,2033,2054,2060,2061,2083
2043,2032,2040,2034,2048,2024,2061,2083
2044,2046,2039,2037,2041,2007,2064,2079
2045,2047,2036,2033,2039,1997,2052,2078
2049,2051,2037,2032,2035,1997,2035,2080
2059,2053,2042,2031,2040,1997,2040,2074
2050,2052,2042,2034,2041,2000,2046,2064
2052,2053,2044,2041,2040,2013,2052,2061
2054,2053,2039,2037,2045,2021,2064,2053
2053,2042,2035,2034,2043,2018,2050,2051
2054,2044,2036,2032,2033,2012,2046,2043
2050,2045,2037,2028,2019,2019,2054,2040
2050,2042,2035,2025,2009,2023,2043,2032
2054,2039,2033,2020,2005,2035,2041,2032
2062,2041,2032,2023,2005,2054,2055,2031
2051,2043,2038,2028,2009,2062,2058,2018
2055,2039,2040,2021,1995,2056,2042,2013
2057,2043,2038,2019,1998,2058,2052,2015
2062,2055,2053,2036,2026,2074,2058,2017
2063,2055,2040,2040,2054,2084,2054,2004
2052,2051,2044,2050,2094,2104,2051,2002
2053,2057,2052,2052,2115,2115,2053,2004
2055,2057,2053,2053,2102,2120,2053,2023
2062,2062,2058,2053,2082,2102,2055,2038
2073,2071,2070,2050,2080,2047,2039,2049
2074,2067,2068,2057,2092,2035,2052,2057
2067,2060,2054,2057,2094,2038,2048,2062
2062,2056,2048,2055,2078,2044,2055,2064
2066,2057,2042,2052,2074,2054,2048,2071
2059,2050,2045,2050,2073,2061,2047,2064
2054,2052,2046,2047,2077,2064,2054,2078
2056,2056,2050,2047,2091,2065,2047,2078
2056,2058,2048,2046,2107,2064,2028,2075
2044,2045,2043,2031,2068,2039,2036,2076
2039,2041,2040,2013,1950,2026,2025,2076
2042,2052,2047,2010,1860,2052,2036,2078
2048,2055,2051,2015,1845,2055,2036,2073
2053,2057,2058,2011,1914,2060,2035,2070
2052,2055,2048,2020,1997,2064,2053,2063
2050,2055,2051,2043,2088,2047,2064,2071
2060,2060,2068,2083,2193,2081,2071,2069
2063,2069,2067,2096,2232,2110,2073,2054
2053,2057,2057,2078,2207,2126,2046,2035
2052,2053,2052,2060,2147,2135,2039,2027
2043,2044,2035,2031,2040,2132,2033,2012
2046,2037,2040,2019,1932,2125,2023,2006
2045,2034,2035,2018,1889,2078,2048,2006
2043,2037,2042,2018,1886,1941,2046,2013
2051,2047,2048,2025,1920,1877,2052,2019
2055,2042,2043,2030,1971,1937,2057,2024
2052,2045,2044,2034,2024,2008,2061,2027
2054,2044,2049,2039,2045,2063,2084,2022
2051,2046,2049,2034,2041,2076,2067,2016
2049,2041,2044,2020,2007,2070,2054,2008
2038,2043,2043,2014,1987,2070,2051,1998
2030,2036,2041,2018,1996,2071,2053,2006
2024,2034,2043,2024,2020,2052,2062,2024
2027,2041,2051,2041,2060,2027,2053,2043
2038,2056,2052,2061,2108,2037,2049,2045
2048,2051,2052,2080,2134,2057,2048,2043
2047,2053,2052,2075,2108,2080,2052,2052
2049,2052,2047,2068,2125,2073,2056,2063
2047,2048,2046,2062,2093,2045,2037,2066
2044,2050,2041,2053,2061,2036,2017,2072
2040,2044,2036,2036,2002,2015,2015,2068
2040,2043,2037,2023,1968,1996,1995,2054
2030,2038,2034,2018,1970,2008,1997,2053
2028,2044,2040,2028,1985,1988,2027,2070
2048,2056,2058,2047,2060,1931,2028,2085
2065,2065,2058,2064,2098,1946,2048,2087
2066,2063,2059,2054,2067,1990,2027,2082
2060,2055,2052,2039,2046,2036,2031,2073
2059,2053,2036,2025,2034,2074,2040,2062
2056,2046,2019,2023,2048,2091,2046,2054
2059,2049,2018,2023,2050,2092,2041,2043
2075,2050,2017,2020,2045,2072,2035,2029
2061,2050,2014,2020,2053,2061,2020,2023
2055,2045,2015,2011,2043,2076,2044,2018
2064,2047,2017,2011,2021,2077,2036,2013
2057,2050,2018,1997,1984,2042,2011,2004
2051,2045,2019,1998,1958,2007,1984,2000
2053,2047,2027,2001,1953,1971,1988,1999
2048,2037,2029,1994,1974,1967,1998,2000
2045,2033,2031,2015,2049,2003,2033,2007
2057,2042,2051,2051,2105,2041,2036,2015
2057,2047,2054,2054,2105,2070,2036,2017
2053,2050,2057,2061,2112,2091,2042,2023
2056,2050,2052,2062,2108,2109,2034,2029
2053,2049,2055,2060,2098,2123,2046,2030
2046,2044,2064,2061,2090,2135,2030,2027
2041,2042,2067,2053,2085,2107,2040,2035
2040,2049,2072,2052,2071,2045,2023,2052
2048,2051,2066,2050,2070,2046,2034,2056
2049,2056,2060,2037,2065,2075,2034,2058
2053,2057,2053,2034,2069,2085,2039,2063
2049,2057,2053,2038,2068,2083,2026,2074
2048,2061,2055,2037,2063,2069,2070,2088
2054,2055,2055,2032,2057,2044,2066,2085
2046,2043,2043,2021,2050,2023,2027,2091
2048,2045,2040,2027,2041,2008,2051,2093
2052,2061,2051,2030,2038,2009,2047,2084
2050,2058,2049,2033,2030,2009,2045,2076
2048,2060,2052,2028,2026,2041,2044,2059
2044,2050,2043,2027,2028,2075,2048,2047
2045,2051,2040,2024,2023,2089,2018,2044
2035,2049,2045,2024,2021,2079,2036,2044
2039,2049,2039,2028,2053,2051,2030,2042
2040,2052,2045,2040,2082,2035,2033,2036
2034,2042,2050,2039,2072,2042,2042,2029
2025,2040,2042,2040,2040,2042,2030,2022
2025,2041,2045,2030,2002,2026,2032,2025
2036,2040,2045,2026,1983,2018,2027,2019
2036,2041,2052,2021,1981,2016,2022,2013
2043,2052,2061,2029,2010,2034,2007,2011
2040,2049,2066,2041,2032,2044,2026,2008
2053,2055,2070,2050,2022,2060,2026,2026
2057,2074,2080,2068,2081,2065,2038,2027
2058,2066,2077,2067,2118,2044,2041,2017
2053,2061,2067,2060,2110,2038,2042,2023
2047,2056,2060,2052,2084,2040,2022,2024
2047,2053,2057,2044,2064,2045,2026,2025
2043,2055,2051,2041,2059,2038,2036,2021
2048,2050,2048,2035,2033,2044,2036,2024
2045,2049,2039,2029,2019,2057,2050,2041
2044,2050,2042,2034,2038,2069,2027,2040
2032,2040,2040,2035,2058,2078,2052,2049
2026,2031,2035,2030,2057,2075,2040,2060
2026,2039,2043,2034,2039,2073,2031,2065
2029,2041,2043,2045,2062,2077,2041,2069
2031,2044,2043,2045,2070,2091,2051,2078
2028,2042,2039,2044,2086,2106,2070,2083
2043,2040,2043,2045,2089,2098,2068,2086
2044,2056,2053,2051,2078,2060,2048,2088
2050,2056,2050,2059,2089,2056,2039,2081
2047,2055,2052,2058,2103,2052,2031,2081
2050,2055,2046,2048,2064,2055,2049,2066
2051,2055,2049,2019,2016,2041,2025,2053
2056,2063,2052,2020,2018,2033,2035,2056
2056,2058,2055,2038,2042,2054,2049,2051
2060,2056,2058,2046,2067,2072,2035,2042
2060,2061,2060,2044,2072,2052,2042,2030
2055,2058,2061,2041,2066,2035,2017,2027
2048,2051,2054,2038,2067,2033,2028,2018
2044,2046,2052,2039,2060,2041,2042,2016
2048,2049,2050,2038,2050,2045,2027,2017
2039,2049,2051,2029,2036,2030,2033,2012
2035,2038,2042,2020,2028,2012,2025,2004
2025,2032,2037,2025,2024,2021,2038,2011
2033,2047,2047,2026,2013,2014,2046,2015
2040,2044,2046,2029,2004,2012,2055,2019
2044,2037,2044,2031,2012,2013,2042,2022
2043,2045,2054,2037,2010,2020,2036,2031
2043,2052,2048,2034,1997,2026,2048,2044
2040,2051,2052,2035,2006,2029,2026,2041
2037,2049,2044,2034,1999,2030,2031,2041
2038,2046,2040,2028,2002,2035,2047,2048
2041,2044,2040,2032,2000,2050,2042,2054
2039,2045,2042,2026,2009,2072,2057,2065
2040,2045,2040,2020,2050,2070,2057,2057
2031,2040,2038,2026,2092,2078,2052,2064
2036,2039,2028,2026,2106,2080,2043,2071
2033,2038,2032,2028,2087,2065,2035,2074
2028,2033,2032,2022,2065,2066,2045,2075
2038,2031,2033,2019,2051,2055,2031,2080
2039,2042,2036,2027,2037,2048,2031,2079
2039,2037,2040,2024,2023,2051,2018,2064
2037,2042,2048,2040,2022,2052,2017,2059
2032,2041,2045,2029,2040,2040,2034,2053
2033,2046,2041,2031,2052,2050,2042,2043
2044,2052,2049,2042,2068,2051,2032,2043
2048,2060,2056,2045,2062,2054,2032,2039
2052,2059,2056,2037,2051,2038,2002,2030
2050,2054,2051,2028,2056,2044,2028,2025
2042,2050,2052,2037,2082,2070,2029,2023
2046,2053,2050,2038,2073,2081,2036,2018
2051,2056,2050,2038,2070,2084,2050,2024
2059,2058,2049,2036,2057,2089,2051,2027
2058,2056,2057,2034,2049,2084,2043,2023
2053,2051,2048,2031,2042,2083,2043,2016
2050,2047,2045,2032,2038,2085,2062,2015
2055,2052,2056,2040,2040,2094,2075,2015
2051,2052,2054,2045,2043,2069,2054,2024
2054,2049,2051,2051,2050,2042,2045,2031
2051,2047,2052,2043,2045,2057,2047,2033
2054,2048,2048,2036,2033,2083,2059,2034
2058,2046,2047,2031,2045,2060,2042,2036
2056,2049,2049,2037,2050,2036,2043,2029
2055,2044,2051,2042,2053,2044,2038,2026
2042,2043,2043,2041,2031,2065,2056,2037
2038,2044,2039,2037,2028,2057,2049,2052
2046,2043,2046,2038,2056,2061,2033,2074
2050,2047,2044,2050,2069,2081,2045,2087
2055,2056,2053,2056,2076,2134,2058,2096
2062,2067,2053,2060,2104,2177,2064,2094
2052,2052,2054,2057,2169,2180,2035,2085
2043,2048,2053,2062,2230,2180,2039,2078
2045,2060,2048,2040,2218,2179,2035,2076
2049,2054,2049,2021,2150,2099,2039,2078
2052,2059,2049,2021,2104,2008,2030,2062
2046,2051,2049,2025,2100,1968,2024,2063
2048,2053,2048,2038,2038,1878,2019,2064
2051,2057,2056,2051,2012,1888,2023,2055
2050,2049,2046,2056,1968,1943,2010,2040
2043,2044,2044,2040,1889,1998,2019,2024
2041,2034,2030,2014,1826,2041,2030,2013
2044,2031,2033,2024,1931,2059,2055,2019
2044,2033,2026,2031,1993,2036,2053,2007
2044,2032,2033,2024,2001,2030,2048,2001
2043,2036,2027,2027,2038,2044,2051,2000
2042,2036,2029,2031,2046,2038,2038,1989
2039,2026,2026,2024,2029,2008,2028,1981
2030,2024,2018,2017,2023,2003,2014,1987
2031,2041,2039,2031,2039,2034,2026,1999
2040,2044,2040,2033,2042,2044,2037,2005
2043,2041,2035,2035,2038,2035,2031,2002
2044,2041,2041,2029,2040,2043,2047,2008
2042,2044,2036,2038,2052,2051,2054,2021
2046,2044,2035,2033,2052,2052,2054,2020
2039,2044,2040,2036,2055,2054,2048,2028
2042,2041,2039,2035,2058,2049,2051,2030
2040,2042,2043,2041,2056,2053,2048,2040
2038,2043,2042,2034,2055,2046,2052,2051
2036,2042,2037,2032,2053,2040,2054,2056
2031,2042,2038,2021,2049,2045,2056,2062
2040,2053,2041,2027,2051,2056,2056,2083
2048,2060,2044,2034,2046,2052,2032,2084
2048,2048,2048,2026,2027,2033,2004,2083
2045,2040,2041,2025,2006,2025,2015,2076
2042,2046,2045,2030,2012,2004,2032,2069
2052,2052,2043,2029,2021,2031,2041,2067
2047,2046,2048,2028,2020,2015,2044,2062
2048,2039,2042,2031,2015,2000,2040,2053
2045,2048,2042,2026,2016,2028,2052,2054
2051,2043,2041,2032,2036,2054,2065,2049
2054,2047,2043,2033,2051,2069,2072,2047
2061,2049,2047,2035,2043,2059,2075,2033
2052,2043,2044,2038,2046,2027,2070,2025
2052,2043,2040,2039,2059,2059,2052,2013
2043,2042,2041,2045,2070,2112,2063,2016
2043,2032,2037,2048,2076,2126,2058,2011
2039,2030,2034,2040,2035,2056,2038,1999
2028,2027,2033,2008,1958,2025,2021,1983
2018,2015,2017,1991,1906,2069,2020,1985
2019,2011,2011,1993,1925,2047,2004,1977
2016,2010,2012,1986,1920,1994,2012,1979
2030,2023,2024,2004,1960,1968,2026,1990
2036,2031,2031,2031,2023,1974,2052,2003
2040,2033,2030,2040,2074,2014,2046,2005
2044,2037,2036,2041,2105,2048,2070,2012
2044,2041,2037,2043,2107,2051,2066,2014
2048,2048,2050,2047,2119,2080,2085,2027
2054,2044,2048,2050,2115,2092,2083,2028
2045,2046,2050,2039,2075,2064,2085,2042
2047,2044,2052,2040,2048,2059,2079,2052
2049,2057,2050,2035,2030,2072,2073,2062
2052,2053,2046,2032,2027,2066,2054,2064
2051,2055,2051,2037,2039,2046,2048,2071
2050,2056,2065,2057,2073,2053,2056,2088
2061,2071,2070,2062,2075,2054,2061,2088
2059,2058,2060,2052,2066,2066,2062,2089
2055,2047,2050,2045,2075,2083,2076,2093
2055,2052,2052,2053,2069,2073,2072,2085
2052,2052,2043,2047,2073,2056,2078,2078
2050,2051,2052,2048,2068,2032,2072,2074
2059,2052,2044,2051,2063,2016,2068,2069
2049,2046,2041,2048,2047,1997,2049,2057
2042,2044,2042,2047,2054,1998,2053,2037
2036,2037,2045,2045,2060,2012,2043,2028
2034,2039,2041,2038,2068,2040,2043,2032
2045,2047,2048,2043,2085,2086,2070,2027
2049,2053,2050,2037,2074,2084,2074,2029
2052,2054,2056,2039,2056,2079,2056,2023
2053,2052,2055,2032,2042,2086,2053,2014
2052,2049,2050,2029,2031,2072,2048,2013
2054,2047,2043,2031,2041,2064,2044,2003
2042,2032,2030,2023,2030,2055,2048,2003
2040,2030,2037,2032,2046,2020,2058,2015
2053,2047,2051,2052,2075,2012,2062,2021
2052,2049,2055,2054,2080,2002,2047,2021
2048,2045,2054,2057,2072,2006,2055,2020
2045,2039,2049,2056,2067,2023,2041,2024
2054,2043,2057,2051,2067,2037,2045,2034
2056,2052,2055,2052,2066,2040,2026,2036
2056,2050,2051,2047,2055,2018,2032,2040
2043,2043,2050,2040,2028,2015,2038,2051
2047,2044,2048,2039,2015,2007,2044,2058
2046,2038,2047,2038,2000,2010,2032,2054
2039,2037,2040,2028,1982,2007,2048,2067
2036,2026,2027,2018,1994,2025,2029,2060
2037,2030,2035,2032,2026,2043,2060,2069
2050,2041,2044,2049,2051,2054,2061,2074
2046,2030,2040,2048,2038,2057,2052,2080
2045,2028,2042,2046,2038,2068,2076,2081
2052,2041,2045,2050,2034,2052,2066,2073
2053,2042,2043,2045,2031,2046,2048,2068
2055,2038,2048,2043,2052,2039,2063,2066
2059,2040,2046,2042,2073,2041,2051,2069
2057,2044,2046,2046,2070,2038,2053,2063
2059,2043,2046,2042,2057,2038,2046,2052
2053,2039,2048,2045,2045,2039,2058,2047
2050,2039,2044,2048,2040,2036,2047,2042
2047,2045,2046,2050,2050,2037,2046,2035
2050,2046,2045,2048,2047,2040,2051,2036
2054,2041,2045,2051,2039,2042,2058,2034
2048,2044,2044,2046,2037,2033,2073,2034
2054,2041,2044,2050,2043,2035,2077,2037
2050,2044,2044,2052,2039,2037,2066,2026
2043,2039,2038,2051,2036,2038,2050,2011
2036,2032,2043,2042,2027,2025,2047,2013
2046,2041,2050,2051,2046,2033,2041,2020
2061,2048,2053,2064,2057,2051,2086,2030
2060,2045,2048,2066,2058,2052,2079,2040
2051,2037,2044,2056,2055,2048,2060,2041
2048,2041,2046,2054,2048,2040,2059,2036
2046,2049,2046,2056,2043,2041,2066,2044
2044,2049,2045,2053,2019,2055,2053,2035
2042,2042,2046,2047,1991,2067,2051,2036
2043,2040,2036,2026,1959,2072,2048,2049
2036,2036,2038,2021,1953,2073,2046,2045
2024,2036,2038,2016,1944,2039,2049,2045
2023,2030,2045,2021,1950,1994,2050,2069
2027,2036,2046,2042,2016,2002,2050,2083
2038,2042,2055,2062,2050,2016,2051,2082
2038,2036,2054,2053,2069,2042,2057,2077
2029,2027,2045,2055,2073,2060,2034,2080
2031,2035,2047,2050,2061,2061,2051,2085
2045,2035,2044,2056,2012,2065,2076,2091
2043,2034,2045,2049,2017,2062,2081,2086
2046,2030,2041,2050,2033,2059,2087,2076
2046,2028,2042,2046,2021,2077,2082,2073
2045,2036,2040,2041,2056,2082,2079,2064
2047,2036,2034,2045,2083,2085,2058,2050
2042,2032,2037,2044,2075,2070,2048,2037
2043,2033,2035,2034,2046,2054,2044,2027
2032,2030,2031,2019,2044,2037,2037,2020
2034,2029,2032,2024,2082,2041,2036,2035
2040,2033,2027,2035,2086,2057,2038,2046
2051,2034,2040,2047,2084,2069,2061,2044
2057,2041,2050,2060,2096,2079,2059,2045
2051,2046,2056,2063,2091,2075,2058,2036
2038,2041,2050,2057,2069,2045,2042,2032
2038,2037,2049,2048,2047,2021,2044,2034
2053,2050,2059,2049,2045,2018,2044,2034
2046,2050,2056,2045,2045,2016,2037,2032
2046,2050,2055,2049,2046,2030,2051,2039
2044,2056,2058,2049,2034,2038,2056,2045
2050,2055,2058,2048,2058,2052,2042,2050
2047,2055,2057,2048,2100,2058,2065,2059
2050,2053,2051,2043,2104,2051,2059,2057
2045,2051,2050,2043,2124,2039,2065,2064
2050,2052,2048,2044,2158,2036,2055,2070
2047,2050,2053,2048,2157,2030,2069,2077
2047,2050,2056,2053,2124,2019,2057,2085
2041,2044,2055,2059,2095,2001,2055,2089
2046,2053,2058,2051,2007,1991,2042,2088
2036,2054,2050,2031,1930,1991,2059,2100
2042,2049,2049,2035,1991,2013,2044,2095
2036,2038,2045,2038,2041,2025,2056,2096
2039,2045,2054,2047,2046,2041,2055,2093
2047,2057,2051,2054,2046,2052,2072,2088
2046,2053,2049,2052,2035,2053,2065,2080
2044,2051,2048,2054,2032,2028,2059,2078
2038,2049,2051,2050,2042,2035,2074,2066
2040,2052,2048,2047,2042,2038,2070,2059
2036,2049,2052,2047,2047,2041,2056,2054
2038,2055,2050,2055,2042,2038,2056,2044
2042,2052,2055,2051,2043,2035,2057,2045
2045,2046,2055,2051,2053,2041,2069,2044
2046,2045,2047,2049,2059,2059,2054,2039
2044,2044,2049,2055,2060,2058,2046,2035
2038,2047,2046,2057,2057,2049,2038,2020
2050,2047,2053,2058,2059,2056,2030,2016
2044,2048,2052,2058,2057,2064,2009,2014
2036,2040,2044,2051,2050,2063,2030,2017
2033,2032,2042,2044,2038,2048,2012,2016
2035,2038,2049,2051,2055,2034,2042,2017
2037,2039,2045,2056,2054,2046,2048,2034
2045,2045,2046,2055,2050,2066,2050,2036
2036,2037,2045,2042,2047,2076,2059,2032
2031,2037,2037,2042,2044,2071,2060,2044
2042,2028,2038,2042,2050,2070,2071,2046
2044,2029,2036,2038,2051,2075,2076,2051
2042,2022,2026,2034,2044,2067,2076,2060
2038,2025,2031,2036,2050,2056,2050,2061
2039,2031,2040,2037,2079,2076,2062,2071
2049,2039,2044,2048,2111,2100,2069,2077
2047,2036,2044,2049,2119,2121,2062,2080
2040,2038,2040,2055,2115,2130,2055,2086
2042,2044,2044,2056,2128,2134,2051,2093
2039,2040,2042,2050,2116,2089,2036,2081
2028,2033,2032,2043,2094,2004,2006,2079
2026,2032,2037,2042,2078,1963,2003,2080
2037,2037,2031,2027,2004,1964,1984,2077
2035,2037,2027,2011,1954,1979,1975,2070
2036,2039,2035,2022,1990,1994,1993,2068
2035,2047,2043,2037,2017,2018,2012,2066
2038,2049,2042,2041,2036,2045,2040,2063
2040,2049,2044,2040,2058,2049,2030,2064
2041,2050,2046,2041,2064,2058,2064,2058
2047,2055,2057,2055,2060,2061,2058,2050
2043,2057,2059,2053,2082,2058,2056,2041
2041,2055,2055,2047,2112,2042,2046,2024
2039,2046,2051,2036,2080,2014,2025,2014
2031,2037,2045,2014,1999,1993,2026,2009
2025,2038,2046,2033,1974,2017,2041,2019
2039,2047,2049,2041,2001,2047,2048,2026
2035,2042,2047,2043,2022,2048,2048,2016
2044,2045,2052,2047,2040,2068,2047,2022
2046,2052,2061,2049,2054,2070,2054,2027
2046,2051,2062,2042,2061,2078,2045,2028
2043,2052,2067,2048,2056,2080,2046,2030
2040,2047,2060,2047,2063,2072,2051,2037
2040,2047,2061,2052,2057,2062,2057,2035
2046,2049,2061,2043,2057,2049,2048,2041
2048,2048,2061,2044,2062,2046,2045,2045
2047,2049,2056,2041,2055,2041,2041,2056
2052,2054,2060,2039,2047,2052,2050,2073
2051,2052,2062,2044,2045,2059,2069,2077
2051,2052,2061,2045,2050,2045,2057,2085
2052,2053,2067,2038,2047,2005,2048,2096
2050,2053,2066,2038,2041,1984,2045,2098
2054,2047,2058,2040,2042,1996,2029,2104
2055,2045,2056,2046,2043,1994,2029,2097
2046,2044,2052,2040,2045,1996,2027,2088
2050,2048,2062,2041,2048,2002,2034,2095
2056,2052,2064,2046,2049,2004,2051,2093
2053,2054,2067,2046,2049,2008,2057,2091
2062,2057,2067,2050,2049,2003,2044,2086
2064,2060,2062,2042,2053,1996,2045,2072
2063,2058,2056,2045,2039,1990,2050,2059
2048,2060,2057,2042,2042,2005,2039,2056
2051,2056,2052,2046,2039,2038,2032,2049
2051,2053,2049,2039,2044,2051,2054,2042
2043,2045,2051,2033,2039,2046,2046,2028
2043,2045,2051,2037,2040,2038,2049,2024
2035,2042,2053,2040,2040,2046,2042,2015
2042,2046,2049,2037,2038,2062,2050,2018
2039,2044,2048,2037,2035,2054,2054,2013
2041,2045,2045,2036,2034,2060,2042,2011
2041,2037,2041,2034,2033,2073,2026,2001
2035,2029,2041,2031,2034,2097,2064,2000
2040,2038,2051,2042,2041,2112,2065,2006
2041,2041,2051,2039,2041,2092,2074,2014
2043,2044,2050,2039,2043,2074,2057,2015
2049,2050,2052,2042,2051,2066,2059,2028
2053,2052,2054,2042,2051,2066,2057,2031
2050,2049,2051,2034,2053,2073,2061,2030
2051,2043,2054,2045,2048,2073,2054,2035
2050,2052,2056,2042,2047,2072,2058,2037
2050,2055,2062,2041,2050,2049,2059,2049
2053,2059,2062,2040,2048,2034,2040,2058
2054,2063,2067,2046,2048,2043,2022,2066
2055,2060,2062,2046,2047,2065,2022,2069
2047,2052,2055,2043,2048,2095,2046,2071
2043,2048,2058,2042,2051,2135,2056,2071
2040,2048,2058,2038,2052,2163,2064,2078
2042,2036,2050,2040,2041,2153,2026,2073
2041,2040,2042,2037,2036,2106,2044,2072
2044,2046,2053,2041,2046,2000,2034,2065
2039,2049,2054,2048,2058,1993,2037,2069
2045,2045,2058,2041,2057,2037,2041,2068
2049,2050,2057,2046,2061,2059,2035,2059
2048,2050,2056,2046,2053,2072,2051,2051
2050,2051,2053,2037,2027,2080,2040,2046
2047,2050,2050,2025,1988,2065,2038,2040
2042,2052,2044,2023,1949,2033,2028,2032
2046,2056,2047,2023,1935,1983,2021,2029
2046,2056,2052,2023,1930,1927,2019,2031
2053,2047,2049,2033,1976,1938,2032,2030
2059,2053,2057,2061,2032,1978,2034,2030
2059,2055,2064,2059,2043,2018,2043,2024
2054,2061,2062,2056,2020,2044,2059,2022
2052,2066,2061,2047,2039,2055,2029,2016
2044,2044,2049,2037,2051,2056,2035,2021
2042,2044,2044,2046,2079,2074,2064,2032
2057,2055,2054,2054,2100,2079,2091,2038
2062,2059,2062,2062,2100,2077,2076,2038
2062,2062,2054,2063,2089,2070,2083,2029
2061,2062,2056,2063,2070,2057,2084,2027
2060,2059,2050,2054,2062,2052,2064,2042
2053,2059,2050,2053,2058,2049,2060,2041
2052,2055,2042,2051,2062,2053,2060,2040
2041,2052,2043,2041,2058,2040,2037,2041
2030,2038,2039,2036,2054,2038,2038,2044
2024,2043,2034,2044,2096,2068,2055,2058
2029,2041,2040,2061,2108,2086,2058,2063
2034,2049,2050,2055,2098,2070,2059,2067
2045,2050,2052,2057,2086,2059,2050,2081
2039,2049,2052,2050,2060,2034,2052,2088
2044,2048,2056,2048,2041,2012,2028,2079
2035,2039,2058,2047,2047,2021,2013,2088
2035,2044,2057,2047,2057,2040,2033,2087
2041,2046,2056,2045,2055,2052,2032,2085
2040,2044,2048,2049,2070,2070,2058,2073
2044,2049,2050,2047,2071,2072,2056,2076
2044,2049,2050,2047,2073,2064,2064,2068
2043,2050,2052,2049,2074,2056,2046,2066
2052,2053,2048,2052,2069,2056,2047,2058
2049,2054,2050,2053,2076,2053,2075,2063
2053,2056,2050,2055,2071,2044,2049,2061
2052,2056,2049,2053,2078,2045,2054,2052
2050,2056,2051,2067,2086,2049,2052,2039
2053,2055,2050,2061,2086,2054,2047,2037
2051,2050,2052,2064,2050,2049,2035,2025
2054,2054,2055,2058,2037,2044,2039,2025
2050,2052,2052,2052,2034,2037,2020,2021
2042,2050,2046,2047,2024,2031,2014,2020
2040,2045,2042,2042,2022,2037,2028,2022
2040,2050,2050,2039,2019,2042,2049,2018
2044,2044,2045,2025,1990,2037,2051,2022
2049,2050,2044,2020,1990,2035,2045,2030
2045,2050,2049,2029,2020,2033,2062,2034
2050,2048,2052,2037,2036,2026,2057,2042
2051,2050,2048,2043,2041,2028,2046,2045
2049,2053,2048,2046,2041,2024,2051,2054
2052,2054,2052,2057,2056,2031,2055,2058
2046,2051,2053,2061,2051,2028,2042,2053
2050,2052,2052,2056,2053,2025,2046,2063
2047,2044,2051,2051,2056,2030,2044,2071
2042,2052,2053,2049,2044,2041,2046,2076
2041,2048,2055,2060,2056,2053,2049,2087
2043,2051,2050,2056,2064,2057,2059,2082
2039,2042,2042,2057,2044,2063,2050,2083
2042,2037,2041,2050,2025,2058,2043,2087
2034,2033,2037,2048,2036,2052,2042,2088
2036,2040,2038,2047,2030,2049,2050,2085
2045,2042,2043,2052,2013,2050,2061,2083
2046,2043,2045,2040,1974,2021,2043,2087
2046,2045,2046,2034,1948,2002,2041,2072
2040,2043,2044,2029,1960,1998,2025,2064
2038,2037,2039,2017,1946,1993,2007,2043
2032,2032,2034,2010,1993,2012,2002,2027
2037,2036,2042,2038,2041,2051,2027,2017
2041,2045,2051,2049,2045,2048,2040,2025
2044,2041,2044,2049,2039,2066,2052,2027
2036,2037,2041,2048,2053,2096,2057,2022
2038,2034,2041,2051,2092,2101,2038,2013
2040,2037,2038,2057,2107,2062,2038,2020
2049,2050,2049,2069,2110,2031,2061,2040
2060,2052,2048,2064,2102,2037,2064,2044
2053,2049,2041,2061,2113,2059,2061,2043
2057,2050,2040,2064,2147,2072,2079,2043
2063,2063,2052,2060,2144,2054,2056,2041
2061,2057,2049,2056,2117,2039,2065,2050
2049,2052,2044,2054,2097,2036,2085,2040
2045,2045,2042,2056,2093,2047,2081,2038
2049,2046,2047,2055,2076,2064,2080,2052
2056,2049,2040,2049,2058,2073,2069,2056
2053,2048,2040,2038,2009,2080,2077,2056
2050,2049,2039,2039,1944,2101,2077,2058
2056,2044,2046,2054,1995,2120,2081,2060
2058,2052,2044,2060,2038,2142,2085,2057
2058,2043,2039,2054,2045,2148,2053,2059
2052,2049,2032,2050,2078,2136,2020,2067
2046,2041,2032,2044,2060,2090,2029,2068
2053,2040,2032,2045,2009,2052,1996,2065
2040,2024,2020,2029,1989,2025,1996,2056
2037,2024,2018,2032,1988,1940,2008,2070
2052,2041,2040,2053,2015,1917,2034,2087
2049,2056,2053,2067,2025,1961,2031,2078
2038,2057,2053,2062,2027,2002,2029,2073
2034,2060,2055,2062,2016,2020,2045,2083
2044,2060,2058,2066,2014,2027,2048,2080
2053,2065,2056,2063,2061,2040,2040,2070
2054,2061,2050,2068,2095,2048,2032,2057
2046,2051,2049,2063,2111,2046,2054,2049
2049,2052,2047,2061,2099,2036,2063,2040
2040,2055,2047,2051,2081,2028,2060,2034
2043,2053,2049,2052,2061,2038,2068,2039
2044,2050,2051,2044,2034,2037,2067,2034
2050,2058,2049,2041,2030,2051,2058,2036
2055,2049,2052,2047,2053,2061,2064,2023
2046,2043,2049,2051,2063,2062,2058,2016
2032,2035,2044,2038,2052,2054,2052,2011
2038,2034,2043,2041,2048,2053,2020,2017
2043,2043,2050,2047,2035,2051,2038,2025
2046,2046,2052,2038,2031,2042,2050,2025
2042,2054,2052,2046,2033,2045,2061,2022
2041,2054,2053,2047,2044,2044,2056,2024
2046,2050,2049,2047,2054,2047,2054,2032
2042,2047,2052,2048,2057,2052,2052,2039
2047,2044,2048,2044,2062,2053,2046,2054
2052,2044,2043,2047,2064,2054,2050,2049
2045,2049,2044,2048,2083,2059,2042,2056
2050,2051,2044,2049,2083,2064,2049,2056
2041,2045,2048,2052,2094,2068,2053,2066
