CH1,CH2,CH3,CH4,CH5,CH6,CH7,CH8
2050,2054,2082,2052,2061,2093,2059,2023
2053,2054,2082,2057,2062,2086,2051,2028
2051,2056,2069,2052,2063,2072,2047,2028
2056,2057,2072,2052,2057,2064,2054,2040
2057,2060,2074,2052,2057,2061,2056,2039
2054,2063,2077,2060,2060,2054,2053,2032
2040,2060,2072,2057,2052,2042,2060,2040
2040,2056,2061,2047,2060,2023,2061,2049
2049,2053,2056,2049,2045,2016,2029,2065
2049,2051,2055,2049,2046,2017,2041,2078
2048,2052,2056,2051,2050,2025,2038,2076
2040,2045,2057,2049,2049,2046,2052,2077
2048,2052,2050,2052,2044,2052,2032,2084
2050,2051,2050,2044,2045,2052,2036,2077
2039,2042,2048,2040,2035,2046,2035,2084
2045,2040,2042,2033,2028,2035,2027,2086
2045,2045,2050,2042,2037,2040,2044,2087
2045,2053,2051,2044,2039,2042,2056,2074
2048,2057,2056,2050,2041,2041,2046,2072
2045,2055,2053,2040,2037,2040,2055,2065
2048,2055,2053,2044,2030,2032,2043,2054
2039,2041,2054,2045,2024,2034,2043,2043
2033,2039,2054,2044,2033,2039,2039,2030
2042,2043,2052,2044,2031,2042,2044,2022
2042,2048,2055,2049,2036,2039,2039,2027
2043,2053,2051,2049,2028,2035,2044,2025
2047,2052,2055,2062,2036,2042,2047,2025
2050,2051,2059,2061,2032,2046,2037,2023
2053,2050,2054,2064,2033,2048,2030,2018
2044,2047,2053,2053,2031,2048,2024,2014
2036,2040,2036,2045,2038,2035,2013,2007
2034,2030,2033,2044,2051,2036,2033,2005
2031,2040,2035,2057,2064,2053,2037,2015
2041,2037,2037,2058,2063,2062,2050,2016
2044,2038,2034,2060,2060,2065,2045,2021
2047,2045,2042,2062,2059,2064,2053,2030
2058,2051,2041,2057,2058,2056,2031,2040
2059,2054,2037,2050,2053,2048,2044,2043
2058,2051,2035,2043,2044,2048,2047,2050
2050,2045,2037,2034,2038,2043,2036,2053
2046,2043,2036,2033,2047,2047,2040,2061
2042,2043,2027,2028,2041,2054,2048,2075
2042,2045,2030,2035,2047,2055,2044,2083
2037,2043,2030,2040,2038,2056,2024,2096
2052,2047,2030,2047,2041,2050,2018,2100
2052,2043,2040,2042,2032,2044,2025,2086
2042,2035,2044,2034,2024,2038,2028,2090
2046,2033,2058,2042,2021,2036,2040,2093
2049,2052,2074,2045,2026,2039,2044,2091
2053,2057,2068,2045,2028,2047,2030,2089
2062,2056,2060,2044,2027,2045,2046,2078
2062,2054,2062,2042,2031,2041,2033,2064
2054,2039,2055,2035,2033,2036,2040,2054
2044,2030,2048,2037,2034,2038,2041,2034
2052,2029,2045,2046,2029,2049,2040,2028
2042,2028,2053,2052,2045,2058,2031,2029
2041,2029,2064,2059,2056,2056,2035,2022
2034,2030,2068,2065,2056,2064,2041,2025
2040,2038,2061,2063,2052,2065,2050,2024
2033,2040,2053,2062,2041,2074,2038,2014
2031,2044,2054,2057,2046,2083,2044,2009
2035,2042,2049,2054,2050,2090,2037,1994
2031,2036,2043,2050,2043,2090,2032,1996
2030,2039,2045,2060,2040,2090,2034,2008
2044,2055,2057,2064,2054,2048,2044,2010
2047,2056,2055,2052,2048,2008,2045,2012
2054,2058,2048,2043,2039,2017,2055,2023
2055,2057,2046,2050,2039,2033,2061,2022
2052,2057,2048,2053,2044,2040,2054,2027
2050,2062,2061,2057,2047,2046,2045,2040
2049,2056,2060,2046,2048,2049,2036,2041
2050,2055,2048,2045,2050,2059,2049,2053
2052,2054,2047,2045,2050,2057,2056,2064
2051,2051,2044,2047,2051,2057,2038,2066
2048,2049,2050,2050,2056,2060,2042,2075
2052,2054,2055,2053,2056,2057,2055,2089
2054,2050,2051,2055,2038,2053,2044,2095
2045,2054,2063,2065,2048,2058,2056,2089
2041,2054,2056,2064,2042,2041,2050,2094
2047,2051,2047,2062,2041,2036,2033,2094
2056,2062,2054,2064,2037,2039,2021,2082
2057,2052,2049,2056,2037,2041,2050,2073
2042,2043,2041,2040,2026,2042,2035,2060
2035,2039,2034,2032,2024,2052,2037,2060
2038,2038,2043,2035,2026,2052,2047,2059
2041,2049,2045,2039,2032,2059,2037,2046
2053,2056,2058,2049,2036,2064,2030,2040
2053,2057,2063,2049,2037,2066,2036,2035
2053,2063,2056,2050,2038,2059,2028,2027
2057,2064,2046,2055,2030,2055,2037,2031
2060,2058,2031,2052,2030,2048,2033,2024
2053,2053,2013,2037,2029,2044,2024,2020
2044,2048,2008,2034,2024,2041,2040,2019
2054,2058,2027,2042,2026,2052,2048,2013
2064,2058,2033,2038,2028,2047,2049,2010
2061,2053,2031,2042,2037,2058,2039,2016
2065,2049,2038,2050,2042,2060,2044,2025
2054,2041,2035,2052,2052,2056,2056,2029
2053,2042,2039,2062,2047,2057,2047,2027
2051,2045,2045,2066,2047,2062,2027,2014
2047,2051,2046,2077,2052,2059,2038,2019
2040,2041,2037,2074,2059,2054,2049,2027
2039,2039,2029,2076,2070,2050,2038,2045
2047,2032,2035,2075,2075,2057,2026,2055
2045,2042,2042,2070,2066,2055,2029,2064
2049,2049,2047,2063,2070,2054,2051,2070
2047,2054,2053,2056,2057,2052,2055,2077
2050,2050,2047,2060,2056,2051,2043,2088
2050,2048,2049,2047,2050,2043,2028,2079
2040,2047,2050,2041,2040,2049,2036,2078
2030,2032,2039,2020,2035,2033,2033,2079
2029,2022,2031,2009,2022,2030,2020,2089
2038,2031,2033,2016,2026,2039,2036,2086
2043,2044,2030,2015,2027,2039,2034,2076
2042,2046,2018,2015,2029,2044,2030,2066
2048,2050,2017,2025,2032,2048,2035,2058
2045,2051,2022,2020,2035,2051,2034,2055
2050,2056,2020,2023,2023,2048,2023,2054
2052,2049,2022,2028,2026,2052,2036,2052
2048,2047,2024,2036,2042,2054,2036,2045
2049,2050,2032,2039,2044,2056,2050,2043
2059,2049,2032,2041,2039,2055,2054,2033
2050,2046,2029,2033,2039,2050,2044,2026
2047,2050,2031,2031,2040,2048,2036,2018
2050,2065,2041,2039,2051,2057,2044,2021
2054,2069,2054,2059,2056,2056,2057,2025
2045,2054,2040,2056,2048,2046,2042,2011
2050,2045,2036,2053,2053,2046,2049,2018
2054,2053,2039,2060,2056,2056,2058,2024
2051,2056,2044,2062,2053,2053,2057,2021
2051,2054,2052,2061,2052,2058,2058,2024
2044,2055,2065,2060,2051,2052,2064,2026
2049,2054,2080,2068,2058,2053,2066,2037
2053,2067,2097,2072,2063,2060,2065,2038
2059,2071,2093,2080,2063,2055,2050,2048
2065,2068,2088,2070,2064,2060,2052,2062
2062,2064,2070,2068,2058,2052,2033,2060
2055,2056,2060,2059,2057,2052,2026,2065
2045,2049,2048,2043,2046,2051,2029,2076
2043,2040,2031,2023,2036,2045,2038,2082
2040,2039,2026,2011,2036,2042,2025,2082
2044,2044,2028,2019,2035,2043,2044,2085
2039,2037,2017,2017,2028,2043,2035,2086
2042,2041,2009,2020,2030,2037,2035,2093
2054,2040,2006,2022,2035,2049,2049,2088
2050,2037,2001,2027,2031,2050,2043,2078
2045,2035,1998,2030,2031,2050,2040,2077
2045,2046,2009,2036,2033,2055,2058,2072
2052,2040,2009,2042,2034,2050,2069,2064
2046,2036,1998,2035,2031,2044,2069,2058
2043,2030,2002,2035,2025,2049,2046,2048
2043,2033,2010,2042,2020,2039,2039,2041
2050,2039,2021,2045,2017,2035,2043,2040
2057,2035,2022,2043,2019,2034,2027,2030
2053,2036,2037,2053,2028,2034,2042,2024
2051,2051,2059,2064,2038,2045,2042,2023
2052,2057,2071,2064,2045,2049,2056,2014
2050,2059,2072,2060,2041,2045,2040,2008
2047,2044,2075,2054,2032,2039,2025,2000
2036,2048,2105,2060,2046,2039,2039,2006
2050,2076,2132,2074,2055,2053,2053,2024
2050,2080,2122,2069,2052,2046,2045,2017
2045,2068,2102,2049,2043,2038,2053,2022
2046,2063,2084,2042,2042,2043,2050,2025
2037,2066,2085,2049,2049,2049,2054,2035
2050,2066,2081,2054,2068,2052,2061,2042
2049,2064,2073,2053,2064,2052,2046,2054
2049,2058,2070,2058,2064,2045,2045,2054
2050,2060,2074,2058,2062,2042,2062,2063
2046,2063,2078,2062,2068,2041,2051,2065
2042,2065,2083,2067,2069,2045,2041,2084
2054,2071,2083,2065,2062,2041,2053,2088
2047,2063,2074,2061,2056,2041,2057,2096
2042,2057,2062,2058,2064,2048,2048,2090
2044,2060,2060,2060,2053,2046,2051,2096
2046,2056,2061,2055,2052,2041,2053,2087
2051,2056,2058,2056,2045,2037,2038,2087
2050,2057,2061,2052,2033,2039,2034,2084
2048,2047,2055,2052,2035,2031,2043,2081
2044,2041,2054,2045,2033,2036,2051,2074
2052,2040,2050,2043,2037,2032,2039,2065
2051,2049,2047,2043,2031,2030,2032,2054
2051,2049,2041,2043,2023,2036,2037,2041
2047,2048,2049,2052,2022,2035,2035,2029
2046,2042,2053,2060,2022,2041,2027,2028
2046,2040,2052,2051,2031,2046,2025,2029
2051,2035,2051,2055,2046,2048,2039,2028
2054,2031,2047,2056,2043,2042,2044,2016
2049,2034,2042,2057,2044,2037,2047,2018
2041,2036,2047,2057,2050,2039,2047,2018
2040,2038,2052,2053,2031,2033,2050,2018
2028,2020,2040,2054,2043,2035,2037,2010
2025,2019,2033,2054,2039,2045,2047,2020
2033,2034,2033,2054,2049,2040,2039,2022
2036,2032,2022,2054,2048,2046,2036,2017
2043,2031,2021,2057,2051,2048,2041,2022
2042,2036,2036,2062,2050,2051,2045,2023
2038,2033,2049,2059,2048,2052,2032,2026
2043,2038,2057,2055,2051,2058,2058,2035
2039,2037,2062,2050,2056,2064,2046,2046
2041,2037,2066,2054,2060,2065,2046,2061
2034,2043,2072,2061,2065,2065,2059,2064
2034,2043,2060,2069,2062,2066,2062,2076
2039,2038,2048,2066,2066,2058,2058,2077
2037,2033,2026,2061,2050,2048,2038,2076
2031,2029,2017,2063,2038,2046,2052,2082
2037,2031,2020,2065,2043,2039,2056,2086
2028,2025,2018,2064,2039,2044,2018,2084
2028,2021,2017,2058,2032,2045,2020,2086
2033,2034,2004,2039,2032,2044,2036,2086
2037,2029,2006,2030,2029,2050,2044,2085
2044,2032,2021,2034,2027,2043,2023,2071
2039,2040,2033,2041,2034,2047,2035,2073
2046,2047,2041,2043,2039,2053,2036,2060
2048,2042,2035,2036,2036,2054,2060,2050
2052,2042,2037,2038,2038,2054,2054,2046
2048,2034,2042,2049,2028,2052,2045,2033
2041,2035,2053,2058,2032,2052,2046,2025
2039,2031,2054,2049,2025,2048,2040,2018
2044,2036,2060,2057,2027,2049,2028,2013
2058,2046,2075,2056,2033,2046,2033,2014
2058,2050,2066,2055,2031,2048,2036,2017
2056,2043,2060,2045,2031,2040,2039,2011
2049,2033,2047,2030,2026,2028,2030,2010
2051,2026,2044,2014,2023,2028,2042,2009
2057,2030,2041,2009,2025,2034,2040,2009
2043,2025,2034,1994,2025,2033,2045,2017
2042,2029,2050,2002,2039,2040,2047,2027
2055,2039,2056,2006,2051,2046,2048,2032
2062,2044,2056,2021,2052,2052,2054,2045
2064,2045,2055,2024,2058,2050,2058,2048
2059,2044,2046,2028,2054,2070,2051,2043
2043,2027,2033,2023,2052,2073,2050,2044
2038,2024,2032,2029,2058,2078,2041,2056
2046,2042,2056,2042,2065,2082,2052,2071
2056,2068,2080,2058,2077,2086,2062,2080
2063,2076,2082,2058,2069,2081,2070,2082
2053,2063,2058,2058,2070,2071,2060,2086
2048,2057,2050,2049,2067,2065,2056,2083
2049,2047,2051,2046,2057,2048,2037,2080
2046,2043,2049,2053,2051,2031,2055,2085
2046,2051,2063,2055,2061,2033,2055,2090
2056,2058,2063,2056,2062,2024,2053,2085
2057,2057,2050,2057,2049,2011,2048,2086
2065,2054,2042,2052,2047,2007,2054,2072
2059,2049,2044,2058,2050,2016,2039,2070
2064,2051,2050,2062,2041,2026,2033,2066
2054,2047,2053,2054,2030,2035,2024,2051
2057,2048,2041,2040,2029,2041,2044,2048
2050,2043,2038,2032,2024,2037,2034,2039
2050,2040,2034,2045,2035,2035,2053,2036
2054,2048,2046,2046,2038,2034,2048,2035
2054,2050,2058,2063,2040,2030,2051,2027
2049,2046,2061,2064,2035,2027,2041,2015
2046,2035,2062,2061,2036,2024,2046,2012
2047,2035,2063,2066,2021,2030,2018,2013
2045,2032,2062,2064,2026,2030,2023,2002
2043,2040,2070,2064,2021,2034,2042,2007
2050,2046,2074,2065,2022,2038,2050,2016
2046,2041,2077,2066,2020,2036,2044,2016
2047,2037,2083,2061,2019,2039,2048,2027
2055,2056,2082,2070,2035,2050,2036,2030
2066,2060,2086,2067,2035,2045,2045,2037
2071,2059,2074,2060,2037,2047,2045,2047
2063,2053,2060,2054,2030,2053,2045,2038
2047,2043,2048,2022,2020,2045,2046,2036
2036,2029,2036,2004,2002,2029,2037,2042
2023,2028,2041,1996,2014,2031,2037,2051
2036,2034,2056,2024,2053,2039,2052,2075
2047,2050,2062,2039,2072,2048,2055,2089
2052,2046,2060,2049,2080,2058,2068,2092
2053,2044,2059,2055,2079,2066,2073,2100
2050,2033,2041,2055,2072,2060,2051,2099
2038,2024,2035,2046,2064,2049,2053,2098
2048,2027,2033,2057,2048,2046,2052,2093
2044,2031,2029,2058,2031,2042,2055,2090
2045,2036,2037,2056,2016,2037,2052,2077
2042,2037,2033,2046,2000,2040,2045,2060
2034,2028,2022,2032,1986,2044,2033,2054
2033,2034,2027,2022,1981,2046,2044,2034
2034,2040,2037,2016,1982,2060,2021,2024
2037,2047,2039,2024,2008,2072,2020,2025
2030,2051,2046,2040,2047,2062,2056,2028
2037,2050,2045,2043,2053,2040,2051,2036
2046,2048,2036,2043,2052,2048,2042,2022
2041,2044,2023,2042,2056,2053,2033,2016
2041,2036,2027,2042,2057,2051,2044,2010
2045,2039,2050,2043,2064,2061,2042,2014
2040,2046,2061,2048,2060,2057,2050,2007
2037,2036,2062,2064,2064,2061,2045,2008
2034,2041,2049,2075,2075,2062,2054,2014
2042,2036,2033,2070,2064,2055,2047,2013
2042,2034,2024,2063,2060,2052,2070,2020
2048,2035,2020,2066,2064,2050,2050,2019
2051,2050,2034,2078,2083,2045,2051,2028
2056,2054,2062,2096,2099,2030,2040,2042
2058,2053,2069,2090,2088,2014,2043,2045
2055,2052,2067,2085,2072,2008,2032,2046
2045,2052,2076,2092,2081,2007,2024,2048
2043,2057,2078,2087,2084,2017,2043,2052
2043,2049,2060,2073,2078,2036,2042,2062
2036,2038,2057,2081,2097,2056,2059,2077
2039,2040,2062,2085,2112,2069,2049,2074
2038,2036,2052,2076,2094,2067,2051,2078
2032,2040,2052,2061,2023,2056,2045,2072
2024,2023,2045,2039,1935,2037,2047,2072
2026,2022,2040,2031,1939,2039,2053,2073
2039,2039,2049,2043,1965,2045,2036,2077
2051,2053,2063,2048,1991,2050,2056,2080
2047,2052,2057,2045,1999,2049,2028,2073
2043,2047,2044,2021,2006,2050,2062,2064
2042,2037,2037,2000,1986,2045,2044,2056
2048,2037,2043,2000,1981,2040,2052,2056
2057,2041,2046,2013,2012,2041,2059,2042
2065,2045,2052,2026,2045,2056,2062,2038
2064,2058,2057,2034,2056,2067,2057,2037
2062,2059,2062,2041,2047,2070,2076,2037
2067,2061,2059,2029,2041,2080,2064,2024
2062,2056,2049,2021,2024,2081,2068,2012
2052,2053,2040,2009,2038,2074,2047,2013
2052,2050,2037,2012,2046,2068,2058,2017
2047,2039,2032,2008,1983,2048,2061,2007
2045,2041,2045,1994,1952,2016,2047,2015
2057,2062,2071,2030,2051,2042,2062,2024
2056,2072,2089,2065,2110,2064,2080,2024
2050,2067,2082,2067,2097,2078,2083,2015
2048,2050,2067,2054,2068,2085,2076,2026
2044,2048,2066,2039,2033,2081,2077,2035
2040,2047,2061,2036,1990,2078,2056,2037
2044,2042,2052,2017,1972,2061,2045,2036
2042,2032,2044,2017,2012,2035,2052,2045
2051,2039,2041,2032,2057,2020,2064,2063
2053,2044,2048,2050,2074,2008,2070,2076
2047,2046,2037,2053,2058,2006,2065,2074
2045,2038,2030,2062,2068,2024,2064,2085
2050,2043,2029,2077,2102,2044,2066,2090
2047,2038,2023,2079,2101,2042,2053,2092
2037,2029,2017,2073,2082,2031,2035,2084
2033,2023,2027,2068,2056,2031,2048,2080
2036,2034,2044,2079,2043,2037,2063,2082
2046,2040,2045,2092,2046,2044,2052,2084
2037,2036,2050,2092,2057,2035,2032,2067
2041,2036,2056,2094,2064,2037,2028,2055
2043,2039,2061,2101,2072,2046,2022,2055
2052,2039,2060,2114,2102,2060,2033,2045
2051,2033,2057,2109,2132,2062,2036,2038
2049,2039,2061,2113,2142,2067,2028,2036
2050,2046,2064,2104,2134,2066,2035,2029
2052,2037,2067,2100,2131,2056,2050,2027
2047,2036,2066,2097,2119,2048,2017,2017
2050,2028,2064,2091,2102,2043,2036,2010
2038,2031,2057,2074,2068,2039,2042,2004
2038,2032,2050,2046,2061,2032,2043,2001
2040,2039,2063,2046,2042,2018,2042,2006
2038,2050,2064,2047,2059,2019,2040,2021
2048,2067,2063,2048,2061,2029,2065,2028
2066,2063,2034,2022,2046,2029,2058,2037
2060,2052,2020,2000,2000,2022,2056,2034
2053,2044,2023,1981,1888,2012,2061,2032
2056,2055,2034,1977,1840,2016,2041,2029
2069,2056,2047,2004,1936,2033,2070,2039
2066,2048,2051,2032,2011,2042,2052,2044
2055,2038,2045,2050,2057,2061,2060,2044
2044,2031,2051,2055,2091,2065,2044,2044
2036,2035,2057,2058,2061,2053,2054,2055
2030,2031,2059,2058,2029,2050,2044,2062
2029,2036,2066,2060,2033,2031,2038,2065
2032,2031,2058,2053,2034,2030,2062,2070
2031,2030,2051,2052,2069,2046,2050,2083
2036,2034,2063,2081,2128,2064,2062,2080
2031,2029,2065,2097,2165,2070,2066,2087
2040,2041,2082,2112,2175,2089,2063,2087
2047,2052,2090,2101,2156,2093,2064,2086
2049,2047,2078,2091,2123,2072,2032,2073
2046,2039,2054,2068,2061,2055,2041,2066
2037,2036,2048,2084,2002,2050,2048,2056
2035,2036,2056,2130,1954,2050,2049,2056
2042,2051,2078,2153,1999,2055,2058,2050
2053,2061,2096,2173,2038,2069,2056,2043
2056,2068,2107,2198,2075,2090,2064,2046
2064,2078,2122,2250,2094,2103,2045,2041
2061,2082,2126,2294,2090,2084,2067,2034
2053,2075,2123,2325,2117,2076,2063,2023
2053,2073,2133,2303,2133,2089,2065,2028
2058,2086,2131,2254,2082,2076,2056,2026
2058,2076,2127,2188,2086,2059,2054,2020
2057,2074,2116,2171,2096,2077,2054,2014
2065,2081,2119,2158,2088,2094,2053,2018
2064,2076,2100,2135,2084,2089,2055,2016
2056,2060,2061,2048,2025,2077,2046,2019
2046,2050,2045,1970,1949,2066,2040,2027
2044,2044,2024,1919,1935,2025,2056,2026
2048,2034,2021,1899,1970,1972,2028,2027
2038,2031,2013,1880,1998,1988,2014,2035
2034,2026,2000,1883,2019,2032,2034,2043
2038,2033,2008,1897,2037,2062,2062,2056
2043,2029,2008,1896,2016,2062,2052,2058
2035,2018,1996,1909,1996,2045,2042,2076
2037,2014,2000,1920,2015,2023,2047,2087
2037,2009,2001,1954,2037,2030,2061,2096
2036,2010,2014,1982,2051,2049,2057,2084
2027,2005,2025,1988,2048,2037,2027,2070
2021,2004,2030,2015,2054,2033,2042,2071
2021,2009,2030,2046,2072,2039,2052,2073
2024,2018,2037,2064,2081,2047,2056,2070
2033,2027,2048,2076,2092,2065,2046,2066
2049,2029,2043,2078,2093,2076,2055,2075
2052,2036,2040,2084,2091,2082,2060,2069
2050,2033,2031,2074,2059,2070,2037,2052
2052,2032,2020,2070,2056,2055,2049,2042
2046,2031,2012,2065,2045,2039,2036,2049
2046,2024,2002,2028,1977,2044,2027,2039
2040,2015,1998,2002,1909,2043,2036,2017
2028,2009,2005,1979,1888,2037,2027,1997
2027,2009,2028,1985,1892,2046,2030,1988
2024,2006,2024,1983,1923,2052,2038,1994
2028,2021,2016,2032,2013,2030,2062,2017
2049,2028,2021,2070,2118,2011,2064,2016
2037,2011,2026,2072,2144,2007,2054,2006
2031,2006,2017,2077,2129,2025,2062,2012
2030,2008,2024,2094,2091,2028,2056,2002
2028,2008,2018,2122,2094,2031,2068,2005
2025,2006,2011,2141,2109,2042,2055,2018
2029,2021,2023,2172,2145,2056,2062,2016
2031,2023,2016,2182,2103,2046,2059,2022
2027,2010,2008,2157,2047,2043,2065,2032
2032,2020,2025,2121,2036,2059,2071,2039
2036,2024,2026,2076,2015,2062,2063,2048
2037,2029,2013,2036,2037,2059,2060,2057
2037,2032,2021,2018,2091,2072,2061,2078
2043,2040,2024,1988,2110,2060,2054,2085
2043,2035,2017,1957,2110,2019,2023,2093
2045,2034,2013,1942,2115,2017,2045,2103
2053,2039,2003,1914,2082,2027,2041,2102
2047,2035,1994,1922,2072,2035,2059,2106
2048,2041,2002,1940,2035,2022,2054,2101
2046,2043,2017,1950,2006,2020,2046,2094
2049,2052,2037,1995,2022,2028,2044,2082
2059,2064,2068,2021,2013,2041,2066,2074
2061,2085,2088,2040,2017,2055,2068,2081
2077,2097,2101,2065,2036,2062,2052,2076
2078,2095,2101,2077,1998,2058,2056,2059
2071,2087,2085,2048,1907,2048,2069,2046
2064,2088,2082,2057,1953,2059,2059,2038
2053,2082,2078,2072,2044,2077,2062,2033
2055,2078,2072,2053,2052,2083,2049,2028
2052,2078,2070,2048,2108,2080,2063,2022
2057,2080,2071,2053,2189,2071,2024,2019
2049,2068,2071,2057,2208,2067,2042,2012
2057,2072,2069,2047,2169,2052,2025,1999
2054,2048,2051,2016,2108,2025,2011,2005
2048,2048,2038,2013,2053,2009,2031,2020
2054,2055,2036,2007,2016,1992,2039,2032
2054,2048,2039,2020,1988,1989,2031,2030
2053,2052,2038,2026,1940,1987,2038,2031
2061,2058,2049,2049,2007,2014,2046,2040
2053,2059,2056,2066,2085,2031,2062,2031
2043,2052,2050,2060,2094,2038,2045,2038
2042,2050,2042,2046,2102,2053,2042,2043
2030,2035,2029,2058,2103,2071,2052,2062
2034,2033,2031,2049,2067,2067,2048,2066
2042,2041,2040,2047,2082,2074,2060,2077
2045,2045,2056,2068,2117,2091,2056,2084
2042,2041,2055,2078,2111,2088,2064,2096
2034,2035,2044,2076,2122,2090,2060,2100
2041,2047,2059,2077,2126,2089,2054,2098
2040,2042,2051,2075,2159,2095,2068,2097
2041,2034,2043,2060,2124,2061,2061,2096
2041,2040,2040,2027,1981,2020,2056,2100
2040,2048,2040,2017,1902,2006,2053,2089
2038,2057,2049,2017,1971,2025,2068,2070
2046,2060,2045,2023,1991,2029,2072,2063
2047,2048,2040,2018,1962,2026,2049,2049
2043,2038,2037,2029,2064,2027,2039,2037
2036,2047,2042,2052,2130,2039,2053,2027
2042,2047,2037,2065,2118,2056,2049,2018
2035,2041,2046,2069,2100,2060,2065,2020
2031,2042,2045,2065,2054,2046,2074,2033
2041,2038,2037,2049,2037,2043,2047,2033
2044,2041,2033,2036,2029,2046,2044,2026
2053,2053,2029,2030,2004,2058,2054,2021
2053,2069,2029,2034,1989,2074,2060,2019
2051,2062,2034,2041,2016,2107,2055,2024
2056,2060,2033,2041,2019,2131,2059,2033
2054,2056,2032,2036,2012,2126,2058,2035
2052,2061,2032,2034,2007,2124,2080,2041
2068,2054,2034,2036,2017,2099,2078,2045
2068,2044,2034,2043,2026,2049,2066,2040
2060,2037,2033,2040,2032,2015,2074,2045
2053,2045,2038,2040,2002,2007,2050,2050
2061,2051,2053,2044,1986,2005,2060,2055
2061,2061,2056,2042,1966,1991,2065,2064
2050,2058,2066,2045,1958,1984,2064,2059
2046,2054,2067,2051,1978,1980,2065,2078
2043,2062,2074,2051,1969,1988,2050,2084
2040,2054,2069,2035,1977,2003,2048,2082
2035,2054,2062,2041,2043,2047,2066,2083
2044,2060,2069,2069,2148,2093,2066,2085
2050,2048,2063,2061,2142,2093,2058,2104
2049,2051,2063,2067,2115,2069,2058,2110
2066,2063,2080,2090,2150,2077,2077,2101
2062,2069,2085,2093,2165,2083,2061,2105
2069,2075,2089,2091,2143,2110,2069,2090
2073,2086,2091,2081,2140,2123,2063,2082
2066,2082,2081,2080,2134,2121,2058,2075
2063,2074,2074,2087,2185,2099,2064,2066
2056,2060,2059,2064,2227,2064,2044,2040
2040,2047,2040,2035,2152,2018,2032,2026
2036,2042,2045,2035,2106,2013,2023,2023
2032,2030,2037,2012,2014,2014,2001,2011
2024,2031,2020,1977,1909,2024,2018,2004
2019,2026,2022,2006,1989,2044,2017,2004
2032,2025,2029,2049,2108,2010,2040,2013
2043,2030,2039,2086,2143,2019,2045,2021
2039,2043,2048,2098,2140,2037,2048,2014
2045,2047,2053,2077,2112,2049,2019,2010
2048,2053,2053,2063,2054,2052,2047,2012
2050,2053,2047,2039,1905,2047,2049,2019
2041,2052,2051,2039,1927,2060,2035,2016
2034,2050,2050,2045,1962,2049,2025,2014
2034,2047,2052,2041,1967,2032,2032,2017
2036,2049,2045,2036,1959,2027,2044,2034
2044,2052,2045,2032,1942,2020,2058,2048
2060,2051,2041,2032,1944,2020,2048,2053
2048,2049,2034,2035,1970,2056,2060,2053
2054,2050,2044,2064,2052,2064,2052,2085
2061,2063,2060,2087,2081,2057,2062,2096
2061,2065,2061,2072,2047,2050,2051,2091
2056,2056,2066,2082,2139,2056,2054,2092
2048,2060,2067,2090,2204,2060,2056,2093
2047,2048,2056,2087,2250,2065,2081,2096
2043,2042,2045,2081,2272,2077,2089,2095
2038,2033,2030,2054,2147,2042,2081,2072
2028,2016,2020,2034,2065,2026,2061,2068
2025,2019,2028,2070,2141,2080,2055,2064
2040,2031,2041,2098,2162,2100,2059,2060
2051,2045,2056,2084,2096,2067,2060,2062
2057,2058,2059,2071,2050,2056,2081,2061
2060,2054,2050,2033,1971,2035,2083,2056
2050,2037,2028,2005,1864,1998,2063,2047
2034,2028,2019,1983,1841,1992,2054,2034
2033,2036,2028,2005,1976,2029,2068,2026
2043,2039,2034,2040,2053,2056,2056,2021
2046,2042,2044,2058,2047,2052,2049,2009
2052,2055,2056,2051,2012,2032,2022,1998
2055,2047,2041,2043,2004,2025,2006,1992
2051,2034,2028,2036,2014,2037,2013,1990
2044,2025,2026,2039,2003,2047,2018,1985
2042,2030,2029,2041,2003,2053,2040,2001
2040,2035,2041,2055,2024,2041,2038,2022
2052,2049,2058,2090,2042,2044,2067,2053
2058,2057,2065,2090,2024,2048,2069,2061
2075,2069,2061,2079,1999,2056,2046,2065
2076,2077,2066,2058,1983,2058,2063,2058
2063,2067,2061,2041,1972,2035,2058,2051
2066,2065,2061,2024,1927,2015,2026,2058
2062,2060,2059,2028,1939,2006,2039,2061
2052,2054,2049,2033,2011,1982,2029,2051
2042,2040,2044,2045,2064,1980,2034,2065
2043,2048,2055,2060,2109,2014,2051,2082
2052,2058,2058,2089,2161,2048,2061,2094
2056,2055,2070,2106,2199,2064,2043,2093
2047,2050,2060,2104,2190,2063,2023,2093
2035,2036,2047,2082,2118,2063,2025,2081
2034,2037,2036,2045,2002,2068,2034,2077
2036,2041,2043,2049,1975,2084,2036,2070
2041,2043,2043,2049,1969,2091,2034,2060
2039,2045,2034,2030,1943,2061,2037,2047
2045,2049,2039,2018,1948,2011,2025,2056
2057,2054,2048,2042,1999,1989,2032,2068
2057,2059,2055,2061,2061,2016,2041,2057
2054,2060,2056,2070,2067,2025,2028,2052
2055,2067,2058,2056,2065,2033,2032,2044
2063,2066,2062,2056,2123,2032,2014,2034
2058,2049,2047,2056,2169,2033,2005,2019
2056,2046,2044,2060,2158,2052,2035,2015
2043,2040,2042,2065,2140,2073,2036,2011
2044,2031,2043,2068,2132,2074,2044,2009
2045,2034,2032,2052,2057,2051,2020,2015
2053,2027,2026,2049,2053,2041,2033,2005
2038,2027,2025,2051,2084,2032,2027,2014
2054,2036,2037,2060,2099,2039,2032,2017
2052,2038,2041,2065,2121,2049,2028,2006
2048,2043,2046,2081,2172,2060,2042,2010
2053,2054,2048,2093,2267,2073,2039,2013
2054,2051,2047,2096,2343,2086,2013,2016
2042,2040,2041,2100,2369,2104,2027,2011
2041,2041,2045,2090,2323,2104,2033,2021
2038,2050,2048,2084,2241,2101,2040,2035
2046,2054,2055,2085,2176,2092,2053,2051
2054,2055,2052,2097,2220,2096,2058,2065
2050,2053,2049,2086,2169,2093,2046,2080
2057,2047,2040,2043,1908,2046,2040,2080
2048,2036,2021,2010,1728,2006,2049,2088
2032,2026,2022,2036,1879,2035,2062,2084
2046,2035,2041,2067,1988,2053,2057,2075
2046,2034,2041,2065,1957,2023,2040,2074
2039,2032,2038,2042,1937,2004,2043,2068
2038,2038,2038,2022,1903,1996,2028,2066
2044,2036,2037,2003,1850,1988,2013,2066
2038,2042,2036,1997,1857,1984,2032,2057
2039,2041,2041,1997,1877,1971,2018,2046
2042,2044,2039,2013,1890,1985,2005,2048
2046,2052,2044,2032,1924,2012,2028,2038
2049,2054,2054,2058,1997,2038,2029,2025
2049,2055,2052,2069,2040,2065,2051,2029
2055,2043,2047,2068,2070,2097,2069,2020
2051,2041,2047,2076,2067,2099,2069,2014
2030,2034,2051,2077,2061,2097,2067,2006
2030,2038,2053,2070,2025,2087,2064,2009
2039,2041,2052,2053,1972,2061,2047,2016
2044,2046,2049,2053,1992,2060,2056,2018
2033,2028,2041,2065,2063,2061,2042,2015
2042,2031,2042,2065,2090,2060,2062,2020
2049,2042,2043,2066,2056,2047,2078,2019
2041,2042,2040,2047,1991,2025,2071,2020
2042,2038,2045,2058,2127,2023,2058,2023
2040,2041,2054,2082,2235,2018,2082,2022
2033,2040,2049,2074,2144,1994,2077,2026
2036,2037,2056,2048,2022,1980,2058,2013
2032,2045,2055,2032,1928,1981,2029,2015
2032,2043,2047,2026,1917,1999,2016,2025
2024,2035,2043,2040,1983,2022,2025,2041
2030,2040,2047,2078,2073,2064,2037,2049
2038,2043,2056,2090,2167,2116,2061,2066
2040,2043,2048,2079,2203,2153,2058,2074
2034,2033,2042,2072,2183,2171,2064,2068
2042,2032,2036,2044,2160,2156,2031,2071
2041,2031,2024,2034,2138,2099,2017,2069
2038,2024,2021,2022,2066,2024,2006,2056
2038,2023,2031,2036,2057,1986,2014,2054
2042,2031,2035,2056,2046,1964,2017,2057
2034,2025,2038,2058,2000,1950,2022,2045
2030,2023,2026,2056,2049,1992,2032,2029
2019,2014,2026,2069,2093,2021,2036,2016
2028,2023,2033,2073,2106,2035,2019,2015
2033,2031,2039,2082,2124,2047,2027,2015
2037,2035,2039,2077,2108,2039,2028,2020
2039,2040,2047,2068,2083,2040,2031,2013
2037,2039,2039,2066,2077,2043,2018,2013
2047,2052,2045,2063,2067,2044,2025,2011
2055,2063,2052,2063,2070,2050,2035,2020
2058,2067,2055,2064,2080,2061,2030,2004
2051,2051,2050,2057,2076,2058,2034,1999
2034,2046,2045,2059,2062,2044,2032,1990
2027,2029,2036,2050,2056,2037,2016,1990
2028,2026,2033,2062,2066,2039,2031,2004
2042,2040,2041,2065,2074,2051,2044,2002
2046,2047,2044,2068,2080,2051,2032,2009
2050,2049,2051,2073,2081,2043,2024,2013
2045,2049,2051,2073,2081,2047,2014,2016
2044,2045,2054,2075,2083,2050,2028,2023
2038,2044,2049,2078,2079,2058,2037,2023
2036,2048,2046,2073,2079,2057,2034,2038
2042,2052,2049,2068,2066,2058,2053,2040
2050,2047,2058,2067,2067,2064,2064,2050
2038,2048,2051,2071,2076,2077,2080,2056
2045,2046,2053,2073,2080,2077,2079,2075
2040,2053,2054,2069,2078,2082,2067,2075
2046,2050,2052,2065,2074,2080,2077,2077
2049,2041,2050,2069,2075,2072,2069,2081
2038,2030,2037,2058,2074,2063,2065,2075
2033,2024,2039,2058,2066,2048,2045,2069
2034,2034,2047,2071,2106,2041,2049,2071
2037,2044,2053,2075,2112,2012,2042,2066
2038,2045,2047,2073,2106,1983,2034,2061
2050,2043,2037,2067,2106,1989,2011,2056
2048,2048,2040,2067,2094,1994,2026,2049
2043,2049,2037,2066,2081,1986,2025,2028
2044,2042,2039,2065,2065,1993,2018,2022
2044,2042,2041,2066,2045,2000,2026,2015
2043,2043,2034,2049,1986,2014,2035,2000
2044,2039,2024,2022,1905,2029,2035,1999
2043,2038,2028,2034,1946,2033,2037,2000
2046,2041,2029,2045,1983,2040,2043,1988
2051,2039,2036,2045,1985,2042,2033,1994
2052,2041,2042,2037,1992,2015,2016,1991
2045,2046,2046,2057,2036,1996,2020,1997
2035,2035,2053,2070,2094,2025,2031,2009
2044,2049,2051,2082,2118,2066,2059,2010
2055,2057,2062,2086,2118,2100,2053,2017
2057,2055,2056,2076,2105,2103,2074,2011
2055,2055,2055,2069,2086,2089,2054,2007
2049,2054,2051,2068,2072,2077,2045,2011
2050,2048,2047,2064,2089,2080,2054,2019
2052,2043,2040,2057,2086,2079,2089,2032
2051,2038,2039,2051,2076,2058,2072,2035
2046,2034,2039,2050,2055,2033,2068,2044
2051,2049,2053,2048,2044,2029,2059,2054
2052,2056,2056,2050,2038,2020,2060,2069
2057,2055,2052,2055,2036,2023,2059,2074
2047,2047,2046,2050,2043,2025,2029,2070
2042,2049,2050,2048,2054,2037,2050,2070
2049,2048,2055,2062,2082,2056,2038,2077
2049,2048,2050,2054,2073,2052,2031,2074
2045,2046,2051,2057,2065,2043,2040,2073
2044,2054,2053,2062,2071,2044,2047,2065
2047,2052,2062,2057,2053,2041,2033,2054
2034,2046,2052,2049,2060,2046,2028,2040
2040,2046,2051,2051,2068,2047,2016,2037
2045,2043,2046,2055,2061,2055,2025,2034
2047,2037,2044,2048,2053,2066,2031,2033
2044,2036,2036,2039,2053,2074,2054,2037
2051,2036,2037,2051,2056,2056,2046,2035
2058,2045,2033,2047,2048,2042,2036,2027
2050,2047,2034,2046,2061,2050,2043,2024
2053,2045,2037,2050,2061,2060,2037,2016
2058,2051,2042,2060,2069,2067,2059,2019
2060,2054,2039,2063,2063,2059,2038,2009
2055,2050,2040,2053,2041,2046,2011,2002
2053,2041,2026,2054,2043,2046,2034,1994
2047,2030,2017,2050,2042,2039,2020,1988
2041,2037,2025,2057,2055,2052,2046,1990
2048,2032,2032,2065,2064,2057,2034,1997
2042,2041,2040,2067,2077,2068,2047,1996
2048,2049,2049,2066,2080,2060,2050,2007
2057,2056,2056,2069,2078,2052,2025,2017
2060,2055,2059,2069,2073,2050,2046,2020
2056,2059,2063,2065,2067,2025,2045,2018
2056,2056,2062,2067,2064,2026,2042,2023
2059,2053,2068,2063,2072,2045,2045,2026
2053,2047,2048,2054,2071,2048,2054,2028
2040,2040,2045,2049,2061,2039,2042,2037
2041,2041,2052,2043,2060,2039,2041,2043
2049,2042,2052,2049,2068,2050,2042,2056
2058,2042,2054,2058,2072,2062,2049,2067
2058,2051,2057,2056,2069,2052,2033,2072
2049,2034,2044,2054,2060,2036,2053,2072
2041,2037,2035,2049,2059,2030,2058,2070
2040,2036,2043,2046,2059,2030,2050,2065
2045,2037,2044,2047,2059,2030,2042,2058
2039,2037,2038,2041,2050,2022,2036,2050
2034,2035,2041,2045,2053,2018,2033,2040
2044,2041,2049,2050,2051,2021,2030,2038
2048,2046,2052,2054,2050,2020,2050,2029
2049,2043,2053,2052,2049,2022,2052,2031
2050,2044,2055,2051,2045,2026,2049,2024
2051,2040,2048,2053,2051,2026,2053,2020
2050,2040,2052,2048,2050,2025,2031,2019
2050,2039,2055,2050,2050,2024,2023,2013
2052,2042,2052,2052,2054,2027,2008,1997
2051,2048,2056,2051,2048,2026,2029,1991
2045,2040,2048,2047,2050,2032,2035,1987
2042,2036,2037,2044,2048,2024,2028,1991
2042,2039,2039,2047,2057,2028,2014,1993
2051,2040,2050,2053,2062,2048,2024,1995
2054,2049,2048,2048,2069,2061,2036,1994
2048,2050,2050,2050,2071,2074,2049,1995
2047,2045,2053,2049,2071,2079,2049,2006
2047,2052,2051,2049,2075,2079,2061,2011
2050,2052,2052,2057,2075,2088,2071,2026
2054,2054,2051,2057,2072,2077,2075,2029
2050,2055,2054,2053,2075,2080,2080,2034
2044,2057,2055,2058,2075,2078,2066,2042
2044,2056,2058,2055,2070,2074,2046,2056
2048,2056,2061,2059,2071,2079,2062,2072
2049,2064,2062,2056,2069,2076,2062,2076
2046,2056,2057,2056,2072,2077,2047,2077
2050,2056,2062,2048,2067,2075,2054,2077
2048,2046,2055,2042,2063,2083,2039,2076
2047,2034,2044,2034,2061,2090,2039,2078
2041,2040,2054,2042,2062,2100,2051,2076
2048,2041,2050,2044,2064,2099,2042,2062
2045,2046,2048,2041,2057,2086,2019,2058
2038,2042,2047,2044,2053,2043,2029,2051
2054,2049,2057,2038,2051,1989,2017,2046
2045,2051,2051,2040,2045,1993,2013,2037
2042,2054,2045,2042,2045,2004,2012,2027
2042,2044,2036,2044,2046,2016,2022,2020
2042,2043,2036,2042,2050,2032,2007,2013
2039,2044,2031,2040,2056,2047,2008,2013
2040,2036,2025,2033,2051,2057,2038,2010
2041,2037,2021,2037,2052,2059,2026,2002
2044,2035,2020,2040,2056,2053,2050,2002
2041,2031,2022,2041,2052,2040,2052,1994
2036,2027,2015,2034,2050,2022,2046,1981
2029,2018,2015,2032,2057,2015,2043,1982
2028,2016,2017,2035,2058,2025,2063,1994
2044,2033,2028,2041,2062,2028,2054,1994
2040,2033,2028,2045,2053,2043,2069,1999
2038,2033,2030,2038,2051,2056,2071,2004
2036,2033,2040,2045,2054,2057,2065,2003
2028,2027,2038,2042,2054,2053,2048,2002
2036,2029,2038,2042,2063,2050,2051,2014
2040,2035,2041,2043,2064,2035,2048,2014
2044,2042,2049,2048,2067,2011,2054,2034
2042,2039,2052,2054,2067,2016,2053,2041
2039,2043,2050,2053,2065,2036,2061,2054
2036,2048,2054,2055,2065,2057,2055,2062
2041,2048,2068,2055,2060,2075,2059,2073
2047,2060,2073,2063,2068,2083,2061,2078
2048,2063,2086,2060,2067,2076,2049,2077
2041,2055,2075,2053,2067,2060,2048,2088
2047,2058,2066,2055,2069,2052,2053,2089
2048,2064,2067,2058,2070,2034,2046,2079
2056,2056,2056,2054,2057,2034,2040,2068
2042,2056,2051,2056,2061,2034,2034,2055
2034,2042,2049,2056,2059,2030,2028,2039
2025,2045,2049,2055,2056,2018,2033,2036
2032,2044,2047,2052,2052,2010,2049,2019
2032,2051,2047,2052,2046,2007,2044,2016
2037,2048,2045,2039,2039,2005,2044,2012
2048,2053,2045,2050,2035,2007,2055,2013
2055,2056,2045,2051,2043,2004,2060,2011
2053,2057,2045,2051,2040,1999,2048,2003
2051,2049,2040,2048,2036,2006,2042,1995
2044,2056,2048,2050,2044,2024,2047,1992
2052,2055,2051,2052,2052,2032,2016,1985
2043,2045,2047,2042,2048,2028,2026,1987
2042,2047,2049,2042,2045,2039,2046,1987
2051,2058,2066,2048,2059,2055,2033,1996
2046,2063,2061,2053,2048,2073,2050,1999
2044,2059,2064,2050,2057,2070,2047,2002
2045,2056,2057,2054,2055,2063,2040,2006
2048,2056,2050,2053,2059,2055,2051,2008
2044,2059,2054,2049,2062,2048,2049,2015
2047,2058,2046,2044,2057,2050,2018,2024
2055,2055,2040,2049,2056,2057,2038,2039
2055,2051,2033,2052,2062,2065,2046,2044
2053,2049,2031,2052,2065,2071,2057,2054
2048,2043,2030,2044,2064,2072,2058,2062
2045,2047,2030,2043,2058,2077,2070,2073
2043,2042,2041,2047,2063,2075,2065,2076
2044,2047,2040,2047,2050,2073,2060,2077
2040,2043,2033,2045,2048,2070,2050,2075
2037,2036,2028,2044,2051,2076,2068,2078
2035,2044,2039,2054,2052,2070,2043,2076
2039,2046,2034,2056,2046,2059,2055,2068
2043,2047,2037,2058,2050,2059,2037,2052
2038,2051,2044,2055,2053,2084,2046,2047
2042,2051,2057,2061,2059,2086,2051,2033
2039,2058,2064,2059,2059,2100,2075,2030
2045,2060,2073,2058,2062,2072,2058,2022
2044,2057,2077,2056,2054,2019,2055,2022
2040,2059,2072,2064,2061,2005,2030,2026
2050,2062,2075,2061,2064,2016,2043,2023
2047,2066,2071,2056,2067,2023,2055,2023
2044,2057,2066,2050,2047,2031,2052,2011
2043,2044,2062,2042,2045,2036,2044,1998
2044,2046,2056,2039,2046,2034,2053,1998
2038,2040,2048,2036,2034,2035,2052,2010
2038,2040,2050,2032,2043,2044,2060,2016
2052,2052,2071,2040,2056,2076,2075,2027
2055,2058,2067,2043,2055,2079,2057,2035
2054,2056,2058,2044,2051,2075,2071,2024
2042,2057,2062,2042,2058,2068,2080,2021
2046,2063,2066,2049,2066,2050,2072,2027
2056,2071,2068,2063,2075,2052,2060,2030
2056,2073,2068,2061,2081,2049,2041,2027
2047,2064,2058,2056,2074,2048,2055,2035
2052,2069,2057,2050,2066,2045,2036,2050
2049,2059,2052,2051,2068,2034,2037,2055
2049,2055,2052,2049,2073,2022,2021,2062
2044,2056,2058,2050,2069,2031,2040,2071
2047,2057,2055,2046,2066,2041,2049,2071
2038,2046,2046,2040,2060,2051,2070,2072
2039,2036,2041,2035,2050,2044,2049,2075
2039,2031,2041,2037,2049,2054,2051,2075
2044,2038,2044,2032,2045,2056,2032,2070
2043,2036,2044,2035,2034,2048,2032,2068
2044,2045,2048,2029,2039,2056,2040,2060
2046,2057,2051,2036,2044,2057,2062,2062
2040,2056,2052,2037,2045,2060,2074,2052
2046,2055,2053,2041,2046,2073,2074,2043
2051,2058,2051,2047,2043,2070,2073,2033
2052,2063,2047,2043,2048,2064,2059,2020
2058,2058,2054,2045,2053,2082,2065,2022
2056,2064,2054,2054,2060,2098,2074,2026
2062,2070,2056,2053,2064,2097,2068,2024
2053,2065,2050,2042,2052,2059,2039,2007
2051,2061,2043,2040,2038,2037,2032,1999
2046,2055,2044,2040,2041,2037,2044,1992
2048,2046,2038,2033,2032,2034,2037,1988
2040,2042,2039,2034,2029,2031,2042,1985
2039,2050,2048,2044,2046,2042,2059,1996
2037,2049,2049,2040,2055,2058,2052,1991
2037,2040,2047,2042,2058,2062,2069,1998
2035,2034,2043,2033,2055,2066,2068,2000
2035,2038,2040,2036,2044,2059,2052,2007
2041,2048,2050,2041,2044,2034,2036,2032
2051,2047,2052,2047,2051,2010,2059,2041
2057,2049,2053,2044,2050,2007,2057,2054
2053,2051,2056,2051,2046,2009,2051,2064
2053,2051,2047,2048,2056,2026,2062,2069
2051,2044,2042,2046,2064,2054,2051,2078
2040,2046,2044,2036,2066,2055,2058,2074
2047,2039,2037,2036,2058,2043,2050,2075
2043,2037,2038,2034,2042,2038,2047,2078
2041,2028,2026,2020,2015,2025,2039,2070
2034,2025,2025,2014,1979,2013,2032,2077
2031,2043,2034,2015,1963,2006,2012,2075
2039,2043,2034,2008,1947,1998,2003,2067
2039,2045,2035,2013,1958,1980,2000,2068
2042,2046,2048,2034,2014,1989,2032,2072
2053,2055,2050,2056,2076,2017,2053,2067
2053,2062,2052,2064,2104,2067,2048,2061
2055,2054,2052,2057,2110,2136,2065,2045
2045,2043,2044,2050,2090,2168,2064,2029
2045,2035,2031,2028,2056,2171,2060,2006
2038,2038,2031,2028,2054,2137,2047,1999
2037,2038,2038,2038,2057,2073,2045,2006
2047,2043,2047,2045,2062,2039,2054,2012
2049,2050,2044,2046,2047,2033,2064,2011
2054,2055,2048,2046,2007,2029,2059,2000
2057,2055,2046,2032,1998,2042,2028,1997
2048,2047,2038,2027,2026,2055,2031,1993
2051,2059,2052,2046,2062,2080,2044,2002
2063,2068,2062,2059,2081,2079,2054,2003
2066,2072,2063,2053,2091,2080,2057,2016
2063,2073,2062,2059,2092,2073,2064,2019
2064,2068,2058,2058,2078,2041,2062,2013
2055,2059,2050,2052,2071,2013,2042,2027
2049,2052,2053,2040,2068,2030,2038,2035
2045,2051,2056,2040,2070,2043,2033,2044
2051,2051,2053,2036,2068,2037,2046,2050
2049,2054,2053,2032,2056,2030,2030,2067
2045,2056,2053,2039,2071,2047,2051,2069
2050,2057,2047,2044,2075,2059,2055,2083
2052,2058,2046,2045,2073,2073,2043,2084
2049,2055,2051,2051,2078,2087,2065,2089
2054,2053,2044,2047,2067,2075,2046,2073
2040,2043,2037,2042,2070,2070,2051,2066
2039,2046,2043,2045,2063,2064,2072,2060
2035,2050,2044,2036,2060,2041,2048,2062
2037,2052,2044,2044,2045,2019,2037,2063
2039,2046,2041,2037,2037,1993,2034,2056
2040,2049,2043,2032,2032,1981,2035,2049
2032,2049,2043,2037,2026,2000,2057,2048
2038,2050,2041,2037,2038,2030,2062,2039
2044,2051,2034,2040,2048,2061,2058,2037
2040,2052,2040,2038,2037,2072,2060,2034
2045,2051,2036,2031,2032,2066,2036,2031
2044,2049,2036,2030,2034,2054,2037,2033
2049,2045,2035,2036,2041,2056,2045,2030
2050,2045,2034,2035,2051,2054,2046,2019
2051,2049,2036,2040,2053,2044,2052,2014
2048,2045,2039,2034,2053,2036,2045,2007
2035,2038,2034,2029,2045,2023,2031,1997
2035,2033,2031,2029,2055,2037,2056,2010
2038,2046,2033,2038,2050,2040,2062,2015
2042,2047,2035,2037,2054,2041,2054,2015
2047,2046,2036,2035,2056,2050,2062,2024
2043,2054,2040,2042,2060,2056,2047,2028
2048,2061,2045,2049,2073,2050,2044,2039
2056,2054,2045,2054,2077,2057,2079,2050
2049,2052,2034,2054,2075,2062,2080,2049
2049,2051,2040,2044,2063,2051,2075,2060
2047,2043,2035,2041,2043,2047,2062,2063
2035,2043,2031,2025,1998,2037,2057,2071
2033,2039,2023,2010,1963,2027,2058,2086
2034,2037,2018,1998,1942,2011,2045,2086
2029,2033,2006,1990,1938,2008,2056,2083
2026,2026,2014,1998,1985,2000,2057,2090
2032,2033,2028,2044,2068,2018,2079,2099
2039,2035,2026,2058,2110,2044,2078,2099
2046,2046,2027,2053,2108,2054,2069,2091
2043,2045,2032,2041,2097,2061,2074,2075
2032,2043,2023,2034,2077,2059,2061,2060
2030,2038,2017,2028,2054,2066,2062,2043
2030,2032,2019,2027,2041,2084,2036,2040
2032,2032,2024,2027,2040,2113,2043,2032
2038,2039,2028,2033,2047,2086,2039,2035
2043,2040,2030,2035,2039,2039,2040,2022
2044,2045,2033,2035,2046,2016,2040,2016
2045,2044,2035,2036,2055,2020,2036,2012
2039,2040,2033,2031,2049,2025,2036,2008
2036,2046,2038,2039,2047,2025,2045,2007
2038,2045,2048,2033,2054,2023,2038,2004
2037,2045,2046,2035,2044,2021,2029,1998
2036,2035,2041,2030,2040,2026,2037,2002
2044,2034,2038,2028,2048,2048,2053,2013
2054,2044,2052,2032,2055,2053,2050,2012
2054,2048,2051,2037,2053,2066,2048,2028
2056,2053,2054,2038,2063,2072,2070,2031
2061,2056,2053,2040,2059,2071,2077,2030
2062,2058,2049,2039,2054,2066,2063,2037
2060,2063,2051,2035,2058,2066,2080,2042
2063,2065,2054,2039,2052,2065,2065,2043
2064,2061,2058,2044,2053,2077,2063,2059
2063,2059,2052,2041,2055,2085,2063,2061
2058,2054,2054,2042,2057,2088,2064,2073
2060,2057,2055,2042,2057,2079,2051,2084
2058,2056,2061,2051,2047,2060,2053,2097
2050,2061,2059,2051,2049,2054,2039,2097
2054,2064,2056,2047,2052,2050,2017,2089
2049,2047,2045,2038,2047,2044,2020,2089
2044,2048,2043,2038,2053,2027,2044,2083
2055,2052,2044,2045,2045,2010,2036,2086
2051,2052,2050,2045,2038,2003,2030,2087
2055,2054,2043,2041,2032,2006,2039,2086
2051,2056,2044,2044,2036,2025,2042,2078
2056,2052,2042,2051,2041,2046,2035,2071
2052,2056,2041,2053,2042,2054,2034,2051
2052,2054,2037,2059,2038,2046,2037,2044
2052,2055,2039,2059,2035,2036,2017,2032
2045,2043,2035,2056,2039,2050,2032,2029
2051,2046,2035,2057,2041,2056,2040,2021
2054,2048,2034,2053,2037,2055,2060,2019
2051,2050,2035,2053,2041,2073,2052,2012
2048,2044,2032,2046,2040,2080,2074,2012
2046,2042,2025,2042,2040,2069,2076,2002
2036,2029,2014,2036,2027,2060,2082,1999
2036,2032,2011,2041,2024,2067,2081,2017
2052,2037,2023,2043,2030,2079,2081,2019
2058,2043,2024,2050,2023,2065,2069,2026
2057,2044,2022,2061,2020,2036,2062,2031
2055,2045,2019,2070,2026,2053,2062,2031
2049,2047,2028,2074,2028,2037,2044,2024
2048,2042,2022,2075,2041,2043,2060,2028
2043,2045,2024,2073,2045,2050,2061,2035
2045,2044,2032,2063,2047,2055,2060,2039
2047,2046,2037,2060,2043,2050,2060,2058
2052,2048,2038,2069,2053,2062,2069,2073
2056,2054,2055,2083,2080,2077,2088,2080
2059,2059,2061,2082,2081,2070,2065,2076
2052,2062,2067,2080,2071,2073,2065,2064
2051,2059,2069,2083,2061,2078,2042,2055
2031,2039,2060,2066,2040,2071,2031,2057
2028,2033,2060,2056,2020,2052,2035,2062
2033,2046,2074,2044,1993,2017,2027,2067
2041,2043,2061,2019,1975,1990,2031,2073
2041,2041,2044,2003,1975,2014,2035,2064
2035,2050,2032,1983,1957,2035,2038,2051
2032,2045,2024,1966,1943,2045,2043,2048
2029,2048,2023,1981,1978,2076,2044,2036
2040,2050,2021,2003,2009,2083,2049,2026
2040,2042,2024,2020,2033,2062,2057,2031
2045,2044,2032,2043,2059,2022,2054,2034
2052,2044,2037,2056,2058,2008,2029,2027
2050,2034,2026,2040,2033,2020,2024,2011
2049,2020,2012,2025,2032,2043,2040,2010
2048,2014,2006,2016,2036,2078,2053,2010
2040,2008,1998,2013,2036,2103,2067,2007
2037,2002,1980,1998,2019,2093,2066,2001
2032,1999,1974,1986,2016,2084,2053,2003
2032,1997,1968,1990,2013,2054,2051,2004
2030,1989,1955,1990,2028,2007,2047,2011
2036,1998,1967,2024,2047,2026,2054,2021
2041,2005,1974,2057,2053,2052,2042,2025
2045,2007,1977,2062,2055,2070,2032,2021
2047,2009,1981,2069,2063,2066,2028,2027
2043,2014,1995,2064,2063,2067,2048,2034
2042,2015,1998,2047,2058,2062,2040,2048
2041,2017,2006,2024,2044,2023,2048,2064
2047,2033,2008,1994,2021,1983,2030,2068
2050,2030,2022,1977,2025,1976,2029,2083
2041,2043,2037,1954,2034,1976,2022,2082
2044,2051,2062,1959,2038,2005,2047,2091
2048,2062,2073,1980,2030,2034,2039,2087
2040,2048,2077,1980,2020,2059,2026,2076
2028,2050,2086,1992,2025,2036,2040,2086
2047,2070,2100,2018,2034,2029,2063,2103
2064,2078,2105,2035,2039,2045,2046,2104
2068,2079,2107,2038,2035,2064,2065,2083
2069,2086,2100,2036,2048,2074,2085,2078
2080,2086,2100,2037,2047,2072,2074,2069
2074,2092,2092,2031,2037,2092,2075,2048
2069,2088,2084,2033,2030,2109,2082,2025
2063,2086,2079,2038,2032,2130,2080,2015
2060,2086,2074,2045,2035,2124,2068,2006
2057,2076,2074,2038,2029,2119,2049,1993
2046,2069,2070,2025,1973,2094,2028,1986
2049,2060,2061,2012,1937,2057,2002,1998
2047,2078,2058,2005,1912,2020,2004,2004
2045,2083,2056,2009,1914,2008,2005,2006
2038,2077,2048,2011,1949,2001,2027,2037
2058,2082,2056,2038,2021,2016,2054,2060
2076,2095,2068,2066,2091,2079,2065,2054
2071,2081,2069,2070,2102,2092,2063,2040
2052,2067,2069,2065,2100,2016,2049,2033
2050,2062,2060,2060,2072,1970,2052,2035
2045,2060,2063,2049,2064,1992,2049,2041
2046,2055,2061,2042,2057,2012,2046,2052
2053,2058,2060,2036,2054,2007,2044,2059
2057,2050,2058,2030,2058,2032,2052,2069
2054,2041,2052,2031,2064,2063,2069,2077
2051,2037,2054,2034,2055,2061,2078,2089
2056,2035,2058,2026,2049,2044,2073,2096
2060,2036,2054,2030,2038,2031,2062,2108
2061,2041,2058,2031,2037,2025,2051,2111
2061,2041,2055,2024,2036,2021,2053,2105
2052,2033,2047,2016,2022,2018,2041,2111
2049,2029,2045,2021,2026,2022,2064,2110
2048,2046,2051,2029,2025,2031,2060,2107
2055,2048,2054,2034,2031,2026,2063,2101
2051,2054,2060,2029,2030,2029,2066,2084
2059,2055,2050,2025,2036,2036,2065,2077
2051,2054,2044,2028,2030,2046,2046,2072
2052,2048,2044,2031,2022,2054,2064,2060
2057,2046,2046,2032,2026,2060,2039,2052
2059,2057,2050,2040,2027,2048,2062,2054
2055,2056,2054,2043,2035,2048,2056,2046
2056,2051,2051,2041,2037,2056,2056,2031
2052,2044,2049,2033,2030,2056,2055,2012
2049,2042,2042,2032,2024,2047,2052,2019
2042,2038,2041,2029,2029,2046,2038,2010
2035,2033,2045,2035,2030,2054,2039,2002
2030,2034,2036,2025,2032,2039,2030,1993
2038,2034,2031,2028,2039,2044,2053,1999
2047,2055,2045,2039,2050,2051,2059,2009
2052,2062,2052,2037,2042,2053,2070,2013
2056,2060,2055,2043,2047,2048,2070,2018
2049,2065,2053,2042,2054,2061,2081,2034
2050,2062,2053,2044,2058,2062,2077,2047
2054,2066,2051,2043,2050,2060,2062,2069
2051,2070,2052,2039,2043,2051,2058,2082
2057,2069,2048,2042,2037,2058,2055,2080
2056,2067,2046,2039,2036,2072,2061,2091
2096,2075,2047,2044,2039,2104,2054,2092
2105,2073,2058,2048,2047,2136,2064,2106
2080,2075,2062,2057,2057,2110,2054,2109
2070,2068,2062,2054,2054,2040,2029,2102
2062,2065,2050,2041,2051,1934,2014,2094
2053,2049,2044,2035,2037,1936,2033,2100
2057,2042,2040,2034,2043,2000,2042,2097
2057,2053,2048,2038,2044,2034,2053,2096
2060,2049,2043,2033,2032,2027,2044,2087
2061,2047,2042,2031,2030,2045,2068,2079
2055,2040,2040,2033,2032,2074,2053,2069
2055,2045,2039,2035,2031,2101,2047,2062
2058,2047,2040,2033,2028,2084,2041,2056
2063,2045,2043,2034,2022,2057,2031,2046
2057,2042,2040,2035,2011,2036,2023,2044
2061,2038,2033,2032,2017,2037,2015,2042
2068,2044,2040,2033,2021,2036,2022,2039
2066,2041,2034,2028,2013,2033,2025,2037
2054,2037,2033,2025,2002,2025,2029,2033
2061,2040,2033,2020,1992,2020,2019,2025
2048,2042,2034,2023,1996,2013,2020,2008
2043,2029,2022,2006,2006,2022,2009,1999
2047,2032,2036,2033,2044,2058,2027,2021
2070,2057,2061,2063,2080,2080,2059,2025
2066,2055,2057,2055,2077,2080,2061,2024
2060,2052,2061,2057,2072,2079,2064,2027
2068,2056,2065,2055,2072,2084,2066,2032
2066,2055,2063,2051,2069,2077,2082,2037
2063,2053,2058,2052,2051,2058,2074,2050
2066,2052,2053,2043,2048,2063,2068,2055
2063,2055,2055,2046,2054,2077,2058,2057
2060,2049,2055,2042,2051,2065,2043,2068
2062,2050,2049,2043,2042,2050,2046,2072
2056,2052,2045,2042,2042,2045,2031,2085
2054,2043,2041,2037,2048,2049,2052,2092
2056,2046,2046,2040,2043,2052,2041,2095
2058,2044,2044,2029,2018,2050,2027,2091
2049,2035,2040,2020,1986,2043,2028,2098
2044,2041,2041,2016,1967,2036,2023,2098
2052,2051,2043,2017,1958,2019,2010,2085
2057,2051,2042,2008,1942,1979,2007,2082
2056,2055,2045,2018,1959,1952,2025,2087
2065,2053,2047,2023,1988,1958,2012,2076
2061,2049,2045,2025,1998,1972,2009,2059
2059,2049,2047,2034,2030,2009,2027,2052
2064,2060,2060,2053,2060,2026,2040,2059
2074,2059,2066,2058,2078,2018,2051,2055
2069,2053,2059,2057,2084,2027,2052,2048
2066,2049,2052,2058,2083,2037,2048,2042
2062,2044,2051,2046,2076,2047,2027,2036
2062,2044,2052,2038,2053,2050,2018,2034
2060,2044,2045,2035,2036,2046,2009,2022
2059,2047,2046,2032,2022,2045,2015,2014
2052,2030,2038,2028,2014,2050,1989,2010
2052,2035,2041,2029,2024,2067,2021,2018
2065,2044,2053,2035,2027,2080,2041,2017
2059,2043,2053,2039,2033,2086,2050,2027
2058,2053,2058,2046,2030,2098,2035,2038
2062,2051,2059,2043,2028,2106,2065,2042
2062,2055,2054,2043,2035,2108,2037,2049
2055,2053,2064,2044,2031,2097,2039,2049
2056,2051,2057,2039,2042,2064,2063,2043
2060,2055,2058,2046,2052,2010,2055,2057
2058,2052,2050,2046,2059,2018,2060,2076
2057,2047,2048,2051,2069,2059,2074,2088
2060,2049,2049,2049,2074,2084,2056,2090
2052,2043,2054,2049,2066,2080,2062,2093
2050,2049,2047,2043,2062,2080,2056,2096
2054,2047,2051,2043,2053,2068,2042,2098
2050,2044,2047,2042,2055,2072,2067,2104
2047,2040,2051,2051,2048,2056,2051,2094
2050,2054,2051,2048,2005,2033,2061,2090
2050,2050,2054,2051,2025,2017,2054,2088
2057,2051,2050,2046,2048,2000,2048,2080
2058,2052,2054,2049,2042,2002,2048,2066
2052,2050,2050,2050,2029,2004,2034,2056
2053,2046,2052,2041,2000,2024,2032,2038
2049,2040,2046,2037,1996,2037,2041,2036
2050,2040,2039,2030,2005,2044,2043,2017
2041,2032,2029,2030,2022,2042,2051,2017
2040,2037,2029,2030,2003,2046,2052,2024
2046,2040,2037,2033,2043,2060,2066,2020
2060,2045,2044,2036,2071,2065,2054,2021
2050,2043,2044,2043,2053,2054,2051,2014
2048,2037,2036,2034,2036,2042,2032,2001
2044,2026,2031,2030,2027,2045,2051,2004
2044,2035,2034,2036,2020,2041,2066,2015
2057,2037,2034,2032,2021,2042,2078,2030
2057,2038,2042,2033,2021,2049,2075,2037
2058,2035,2045,2034,2016,2056,2079,2046
2061,2039,2043,2029,2020,2060,2072,2046
2061,2042,2047,2031,2019,2054,2078,2051
2056,2040,2039,2026,2020,2052,2083,2056
2057,2043,2037,2024,2021,2053,2090,2059
2060,2041,2039,2038,2030,2023,2083,2088
2067,2046,2051,2041,2031,2022,2059,2089
2061,2043,2047,2052,2045,2039,2062,2086
2053,2048,2054,2056,2052,2052,2046,2079
2045,2044,2042,2043,2058,2061,2034,2075
2040,2038,2032,2038,2058,2075,2037,2082
2054,2048,2038,2046,2067,2065,2027,2076
2049,2042,2032,2045,2057,2039,2020,2067
2039,2032,2030,2046,2033,2026,1999,2076
2045,2051,2034,2039,2031,2017,2025,2076
2040,2046,2028,2036,2027,2016,2030,2070
2039,2038,2020,2032,2021,2021,2048,2070
2041,2038,2019,2030,2021,2018,2031,2067
2050,2040,2027,2034,2016,2018,2020,2056
2046,2043,2028,2036,2037,2024,2034,2051
2044,2049,2035,2050,2065,2041,2036,2036
2055,2053,2041,2053,2062,2046,2032,2025
2055,2054,2039,2046,2047,2054,2036,2023
2050,2049,2035,2042,2027,2046,2024,2017
2040,2043,2036,2042,2029,2037,2025,2010
2040,2046,2038,2041,2026,2031,2027,2007
2036,2044,2042,2040,2026,2030,2020,2010
2039,2056,2041,2039,2019,2023,2002,2010
2041,2043,2041,2034,2017,2018,2003,2015
2044,2046,2047,2036,2020,2022,2025,2021
2063,2064,2066,2043,2030,2024,2014,2025
2069,2068,2069,2052,2042,2037,2028,2030
2072,2062,2072,2046,2042,2041,2026,2041
2075,2070,2070,2047,2044,2046,2023,2041
2068,2072,2067,2045,2039,2048,2030,2028
2062,2080,2070,2056,2043,2052,2041,2024
2056,2076,2068,2050,2042,2059,2053,2019
2042,2065,2070,2052,2050,2068,2050,2030
2045,2067,2073,2055,2048,2058,2041,2044
2045,2071,2072,2059,2053,2066,2047,2072
2043,2071,2072,2055,2048,2062,2039,2080
2043,2079,2074,2055,2050,2058,2053,2093
2045,2074,2071,2054,2047,2034,2041,2106
2048,2074,2070,2053,2049,2033,2048,2102
2053,2053,2059,2039,2040,2048,2047,2106
2053,2052,2052,2037,2037,2061,2043,2110
2056,2056,2054,2039,2036,2080,2053,2098
2058,2058,2047,2036,2033,2078,2045,2084
2051,2058,2047,2033,2022,2074,2041,2078
2046,2056,2045,2031,2016,2065,2052,2078
2052,2048,2041,2033,2016,2049,2041,2061
2054,2045,2033,2031,2028,2031,2041,2054
2046,2037,2034,2031,2034,2059,2042,2042
2033,2030,2033,2031,2021,2085,2043,2030
2036,2032,2037,2036,2006,2082,2033,2020
2038,2041,2038,2042,2003,2074,2021,2016
2044,2040,2038,2045,2012,2067,2031,2016
2047,2049,2046,2052,2062,2040,2018,2029
2058,2060,2050,2070,2113,2029,2033,2029
2061,2062,2051,2078,2138,2029,2053,2026
2052,2050,2038,2069,2140,2046,2064,2025
2056,2060,2044,2070,2144,2068,2049,2020
2058,2076,2054,2066,2123,2076,2052,2023
2055,2080,2053,2066,2103,2064,2063,2026
2055,2085,2055,2057,2071,2065,2061,2029
2061,2083,2058,2050,2015,2071,2047,2034
2060,2074,2060,2038,1929,2053,2055,2041
2058,2075,2064,2036,1962,2006,2047,2053
2056,2075,2065,2044,2004,2016,2050,2054
2056,2074,2070,2061,2035,2036,2054,2068
2058,2074,2065,2054,2033,2060,2058,2070
2052,2062,2056,2045,2047,2068,2067,2078
2049,2057,2053,2040,2045,2064,2065,2087
2043,2051,2041,2034,2037,2052,2059,2092
2036,2041,2043,2031,2039,2050,2070,2089
2048,2043,2050,2043,2044,2041,2047,2094
2047,2034,2041,2039,2035,2024,2038,2088
2034,2031,2040,2046,2039,2037,2041,2090
2039,2046,2046,2047,2043,2065,2064,2094
2044,2047,2047,2056,2056,2077,2073,2086
2046,2044,2040,2049,2046,2070,2053,2080
2050,2043,2036,2042,2036,2067,2059,2068
2038,2042,2035,2034,2032,2056,2052,2060
2041,2041,2028,2029,2028,2044,2062,2050
2047,2046,2040,2034,2035,2037,2059,2031
2043,2051,2040,2042,2037,2032,2060,2028
2043,2058,2041,2042,2037,2041,2068,2029
2049,2053,2039,2036,2026,2038,2066,2029
2045,2051,2039,2036,2018,2028,2057,2031
2050,2048,2037,2033,2031,2014,2066,2022
2047,2047,2035,2036,2025,1996,2046,2016
2048,2053,2033,2042,2021,1992,2043,2007
2035,2038,2026,2027,2018,2000,2038,2010
2038,2037,2024,2033,2024,2018,2068,2019
2049,2051,2035,2038,2033,2032,2073,2018
2050,2059,2041,2047,2040,2020,2051,2023
2051,2059,2043,2053,2045,2021,2054,2033
2057,2062,2050,2054,2059,2042,2074,2041
2060,2057,2050,2056,2069,2083,2081,2051
2060,2063,2057,2057,2068,2118,2076,2052
2055,2061,2055,2054,2055,2116,2072,2053
2051,2064,2057,2050,2044,2093,2069,2058
2055,2064,2060,2050,2052,2069,2080,2064
2055,2062,2054,2050,2046,2057,2067,2075
2056,2061,2049,2047,2046,2054,2055,2079
2051,2060,2053,2051,2047,2065,2069,2098
2049,2057,2059,2056,2048,2054,2074,2099
2049,2061,2056,2052,2042,2053,2068,2095
2039,2044,2049,2043,2032,2041,2063,2088
2040,2043,2043,2042,2043,2048,2064,2099
2039,2054,2049,2050,2035,2053,2060,2089
2050,2058,2046,2045,2034,2049,2054,2093
2046,2060,2050,2044,2033,2036,2048,2083
2044,2055,2050,2045,2032,2036,2044,2071
2047,2057,2056,2044,2033,2050,2051,2064
2042,2058,2050,2040,2042,2056,2062,2054
2052,2056,2056,2045,2044,2066,2057,2054
2049,2063,2050,2048,2044,2079,2061,2052
2050,2057,2051,2051,2042,2086,2052,2042
2049,2067,2058,2052,2044,2086,2058,2040
2045,2066,2051,2046,2035,2074,2054,2033
2044,2064,2052,2041,2040,2052,2059,2022
2045,2060,2052,2042,2034,1996,2048,2026
2045,2058,2048,2037,2028,1986,2049,2018
2038,2052,2036,2029,2030,2002,2054,2019
2039,2047,2039,2033,2029,2017,2050,2021
2046,2060,2048,2043,2031,2021,2043,2024
2050,2060,2048,2044,2032,2019,2044,2028
2053,2056,2041,2042,2033,2028,2032,2030
2043,2053,2040,2049,2050,2028,2029,2026
2045,2057,2041,2053,2054,2042,2042,2039
2043,2057,2039,2047,2057,2052,2059,2040
2045,2053,2041,2044,2053,2057,2052,2048
2048,2050,2045,2050,2058,2058,2054,2062
2047,2053,2045,2049,2056,2054,2060,2065
2046,2053,2047,2054,2065,2050,2046,2076
2040,2049,2044,2049,2055,2041,2054,2084
2038,2045,2045,2050,2037,2032,2042,2085
2040,2045,2043,2052,2030,2034,2027,2091
2032,2041,2038,2039,2038,2032,2027,2087
2029,2027,2031,2035,2050,2030,2038,2091
2031,2030,2036,2049,2043,2026,2039,2102
2042,2053,2048,2051,2017,2020,2046,2105
2049,2057,2050,2041,2003,2024,2040,2096
2044,2059,2047,2035,1997,2035,2027,2093
2052,2056,2056,2034,2009,2049,2032,2090
2062,2069,2065,2047,2039,2082,2046,2080
2060,2077,2073,2072,2077,2092,2063,2069
2056,2073,2063,2081,2107,2097,2086,2059
2055,2069,2060,2081,2111,2095,2085,2057
2059,2063,2054,2075,2092,2060,2062,2051
2053,2056,2054,2064,2058,2006,2048,2036
2052,2050,2052,2063,2052,1986,2045,2031
2049,2045,2049,2059,2044,1969,2057,2031
2045,2040,2048,2063,2041,1970,2060,2028
2042,2047,2044,2055,2035,1978,2046,2023
2040,2032,2035,2048,2037,2005,2030,2021
2039,2029,2038,2054,2047,2034,2026,2029
2051,2046,2043,2047,2044,2059,2015,2025
2050,2050,2042,2036,2039,2058,2027,2034
2047,2054,2050,2041,2051,2054,2035,2040
2050,2056,2046,2033,2049,2051,2029,2033
2043,2053,2046,2025,2046,2047,2035,2042
2044,2054,2042,2024,2046,2040,2054,2051
2054,2057,2038,2031,2026,2044,2069,2059
2055,2056,2042,2035,2034,2042,2076,2069
2062,2054,2040,2034,2058,2049,2064,2072
2055,2051,2043,2040,2057,2062,2060,2088
2061,2058,2044,2047,2058,2059,2062,2090
2059,2059,2046,2056,2039,2057,2067,2090
2049,2062,2049,2059,2032,2056,2036,2096
2047,2060,2046,2053,2035,2034,2012,2095
2030,2043,2039,2035,2011,1996,2025,2097
2023,2037,2041,2020,1961,1970,2024,2088
2035,2045,2040,2020,2006,1989,2049,2089
2033,2042,2046,2031,2032,2023,2056,2089
2033,2044,2039,2033,2028,2045,2078,2089
2040,2044,2048,2041,2047,2058,2086,2081
2050,2048,2054,2054,2056,2063,2078,2079
2054,2043,2049,2048,2035,2060,2078,2063
2047,2044,2046,2046,2034,2057,2065,2059
2044,2041,2040,2040,2032,2072,2084,2053
2045,2046,2047,2042,2033,2073,2079,2036
2048,2042,2050,2049,2037,2076,2078,2032
2046,2032,2041,2043,2037,2068,2065,2025
2040,2021,2040,2044,2041,2057,2063,2019
2043,2028,2041,2044,2057,2057,2058,2019
2040,2035,2038,2041,2076,2046,2039,2010
2039,2025,2031,2038,2084,2043,2035,2006
2036,2027,2026,2034,2070,2057,2045,2017
2047,2043,2030,2028,2042,2068,2042,2014
2058,2048,2030,2021,2024,2077,2045,2015
2053,2048,2033,2020,2008,2055,2049,2017
2049,2054,2039,2025,2027,2030,2042,2041
2054,2060,2049,2041,2091,2021,2059,2058
2055,2063,2059,2065,2142,2015,2044,2073
2052,2056,2062,2065,2143,2032,2046,2067
2057,2056,2056,2052,2133,2052,2049,2074
2070,2076,2077,2073,2160,2055,2053,2095
2075,2088,2094,2085,2169,2042,2051,2104
2066,2072,2077,2068,2116,2033,2041,2100
2055,2056,2067,2055,2084,2058,2049,2080
2036,2041,2055,2044,1999,2062,2048,2072
2037,2032,2051,2029,1889,2043,2034,2071
2029,2033,2046,2026,1943,2063,2041,2077
2035,2047,2054,2040,1990,2075,2028,2090
2053,2047,2056,2037,1988,2093,2052,2086
2053,2055,2053,2026,1964,2126,2064,2080
2045,2051,2050,2015,1936,2140,2059,2068
2046,2041,2050,2016,1916,2120,2057,2067
2036,2038,2041,2005,1888,2133,2066,2054
2028,2030,2042,2013,1874,2091,2035,2049
2037,2035,2044,2015,1895,2015,2041,2053
2050,2047,2046,2027,1939,1957,2037,2059
2056,2048,2048,2063,2045,1963,2047,2061
2046,2048,2056,2082,2102,1999,2057,2036
2039,2042,2056,2081,2088,2039,2055,2022
2039,2047,2052,2065,2047,2043,2058,2014
2039,2039,2050,2056,2033,2027,2045,2027
2047,2041,2044,2052,2063,2006,2031,2013
2047,2035,2040,2058,2128,2009,2038,2010
2046,2044,2049,2078,2172,2025,2030,2021
2060,2057,2056,2068,2127,2021,2043,2029
2059,2065,2066,2058,2089,2019,2050,2029
2051,2067,2070,2057,2090,2031,2058,2028
2041,2066,2077,2065,2123,2047,2054,2033
2043,2071,2078,2069,2140,2062,2059,2054
2050,2081,2081,2065,2112,2061,2060,2061
2059,2084,2073,2065,2076,2053,2058,2070
2067,2082,2069,2060,2088,2043,2071,2068
2067,2079,2072,2062,2093,2039,2060,2082
2060,2076,2072,2062,2093,2037,2050,2088
2061,2071,2071,2049,2045,2030,2050,2094
2055,2070,2072,2043,2008,2034,2054,2100
2065,2072,2077,2055,2041,2055,2051,2108
2063,2067,2070,2044,2027,2063,2052,2104
2042,2049,2052,2026,2037,2064,2040,2097
2031,2044,2050,2029,2105,2070,2046,2096
2041,2060,2067,2071,2215,2097,2061,2106
2050,2067,2072,2080,2194,2096,2058,2101
2056,2073,2071,2064,2151,2093,2055,2096
2064,2074,2067,2065,2152,2089,2063,2087
2062,2073,2068,2061,2119,2085,2050,2078
2060,2066,2060,2041,2052,2071,2058,2057
2056,2060,2051,2040,2014,2055,2040,2039
2035,2050,2047,2031,1990,2010,2016,2024
2027,2041,2044,2035,1979,1998,2026,2025
2038,2052,2048,2039,2011,2015,2045,2037
2050,2052,2058,2045,2044,2014,2037,2028
2050,2055,2055,2044,2070,2018,2050,2033
2052,2052,2047,2043,2078,2014,2036,2028
2047,2054,2047,2038,2006,2000,2030,2023
2041,2039,2039,2030,1958,1989,2024,2020
2035,2037,2041,2037,1954,1999,2022,2022
2044,2045,2055,2042,1993,2028,2057,2017
2046,2055,2052,2045,2019,2042,2068,2020
2041,2051,2054,2033,1994,2056,2066,2024
2041,2043,2048,2028,1947,2086,2080,2036
2040,2041,2050,2026,1944,2137,2085,2047
2048,2038,2055,2033,2001,2171,2087,2050
2047,2037,2057,2041,2067,2154,2069,2055
2050,2048,2054,2053,2128,2134,2081,2063
2050,2058,2072,2064,2153,2122,2074,2067
2058,2060,2073,2066,2131,2121,2064,2078
2053,2058,2066,2067,2116,2093,2061,2082
2055,2051,2057,2059,2098,2069,2046,2088
2043,2039,2051,2049,2069,2044,2028,2090
2031,2043,2052,2045,2062,1967,2005,2091
2030,2031,2035,2012,1882,1921,1991,2086
2030,2036,2039,1996,1838,1947,2003,2097
2040,2055,2053,2018,1920,1983,2032,2100
2042,2054,2051,2025,1970,1994,2017,2086
2044,2048,2036,2024,2000,1999,2010,2076
2044,2044,2041,2035,2050,2017,2035,2078
2056,2054,2048,2040,2138,2040,2041,2074
2063,2061,2045,2071,2189,2079,2058,2076
2062,2059,2056,2070,2172,2108,2066,2056
2056,2057,2057,2068,2219,2098,2056,2053
2059,2068,2068,2093,2273,2095,2069,2056
2061,2065,2078,2097,2318,2093,2076,2050
2056,2065,2070,2071,2242,2067,2040,2041
2049,2048,2047,2016,1978,2011,2032,2031
2040,2048,2040,1980,1915,2006,2037,2021
2048,2058,2050,1998,1946,2035,2052,2023
2047,2047,2044,2003,1875,2035,2034,2015
2042,2026,2033,2014,1996,2055,2015,2017
2041,2032,2049,2045,2065,2086,2041,2018
2042,2038,2054,2063,2073,2096,2041,2020
2047,2044,2056,2081,2101,2105,2055,2017
2050,2050,2062,2070,2056,2066,2036,2024
2050,2046,2054,2058,2027,2040,2026,2027
2049,2037,2046,2060,2049,2036,2038,2028
2038,2022,2039,2057,2075,2032,2039,2030
2042,2030,2048,2037,2033,2033,2026,2033
2044,2035,2047,2016,1965,2027,2029,2043
2039,2036,2038,2011,1988,2023,2015,2049
2047,2048,2043,2015,2028,2011,2028,2054
2044,2035,2045,2009,2000,2001,2020,2067
2036,2031,2043,2025,1990,2013,2033,2076
2034,2036,2045,2047,2048,2042,2028,2084
2032,2026,2043,2043,2059,2034,2020,2093
2029,2026,2036,2041,2051,2033,2038,2086
2038,2039,2047,2043,2059,2057,2033,2092
2052,2052,2049,2041,2057,2077,2022,2082
2045,2047,2056,2038,2040,2083,2034,2070
2043,2057,2057,2036,2045,2094,2035,2074
2052,2057,2060,2034,2012,2080,2029,2068
2048,2060,2055,2030,1960,2034,2036,2072
2063,2071,2066,2048,1960,2011,2042,2084
2068,2076,2064,2047,1966,2031,2034,2067
2069,2065,2059,2038,1972,2054,2044,2051
2057,2055,2053,2030,1998,2064,2036,2045
2051,2047,2053,2041,2066,2077,2038,2044
2054,2057,2059,2055,2124,2103,2047,2046
2062,2064,2067,2062,2138,2060,2042,2041
2061,2068,2066,2067,2163,2042,2044,2031
2060,2056,2055,2071,2222,2047,2029,2018
2045,2034,2043,2066,2228,2047,2015,2015
2042,2029,2035,2032,2026,2021,2031,2005
2044,2029,2029,1993,1828,1987,2005,2001
2035,2025,2031,2018,1916,2005,2014,1998
2033,2022,2037,2022,1844,1994,2024,2004
2038,2026,2046,2038,1900,1957,2026,2019
2040,2029,2048,2062,1947,1911,2015,2026
2040,2029,2047,2046,1937,1913,2026,2048
2044,2034,2044,2040,1962,1952,2035,2056
2052,2045,2058,2070,2070,2019,2026,2060
2053,2049,2064,2068,2073,2059,2034,2065
2046,2046,2053,2068,2091,2067,2049,2069
2034,2037,2045,2064,2081,2044,2030,2075
2032,2039,2041,2057,2031,2029,2046,2090
2034,2041,2047,2051,2015,2024,2056,2102
2043,2046,2039,2043,2050,2036,2047,2094
2037,2035,2036,2055,2131,2059,2047,2096
2035,2040,2048,2071,2180,2080,2064,2114
2059,2045,2053,2069,2156,2097,2045,2118
2063,2050,2050,2058,2135,2120,2056,2109
2064,2053,2050,2060,2143,2125,2073,2099
2072,2061,2046,2070,2170,2122,2053,2089
2080,2065,2046,2059,2145,2118,2053,2060
2058,2057,2041,2046,2135,2118,2040,2029
2024,2048,2047,2048,2102,2092,2027,2012
2028,2048,2045,2037,1973,2051,2024,2014
2035,2044,2043,2044,1990,2038,2039,2022
2044,2042,2044,2061,2010,2049,2053,2029
2063,2058,2060,2074,1995,2062,2039,2031
2072,2060,2046,2060,1967,2068,2044,2029
2071,2051,2039,2038,1940,2045,2044,2029
2062,2040,2032,2034,1948,2039,2045,2019
2047,2035,2024,2029,1968,2056,2037,2008
2034,2033,2032,2027,2013,2078,2074,2012
2050,2052,2043,2039,2058,2088,2057,2010
2051,2043,2032,2024,2036,2128,2052,2011
2038,2040,2035,2012,1972,2138,2031,1998
2028,2047,2037,2004,1969,2126,2030,2013
2055,2067,2050,2020,1994,2116,2031,2039
2060,2068,2046,2025,2018,2036,2017,2067
2066,2072,2059,2072,2103,1983,2037,2088
2070,2075,2062,2094,2173,2033,2083,2093
2077,2068,2071,2096,2166,2073,2075,2093
2066,2075,2071,2081,2135,2072,2045,2092
2059,2065,2063,2064,2100,2057,2034,2100
2053,2059,2048,2040,2036,2038,2044,2104
2047,2046,2049,2037,2090,2053,2058,2099
2042,2038,2033,2045,2169,2043,2016,2086
2024,2024,2026,2036,2071,2033,2046,2097
2039,2028,2034,2047,2031,2066,2045,2095
2044,2042,2044,2053,2040,2062,2053,2087
2047,2044,2047,2050,2026,2045,2029,2070
2046,2041,2046,2037,2006,2044,2034,2060
2039,2038,2054,2044,2007,2044,2046,2072
2050,2044,2052,2047,2019,2027,2046,2067
2050,2048,2051,2057,2044,2044,2054,2052
2048,2044,2050,2064,2049,2061,2046,2054
2052,2040,2048,2057,2045,2041,2066,2056
2064,2048,2050,2060,2047,2047,2054,2048
2066,2046,2048,2056,2035,2054,2032,2039
2056,2051,2041,2059,2049,2060,2020,2032
2061,2047,2038,2069,2097,2064,2037,2022
2055,2048,2044,2079,2196,2076,2042,2012
2053,2054,2054,2096,2268,2077,2049,2008
2039,2052,2058,2109,2290,2066,2030,2011
2043,2050,2060,2109,2281,2072,2047,2015
2055,2060,2056,2093,2265,2076,2073,2020
2050,2051,2047,2062,2150,2022,2053,2009
2045,2031,2027,2000,1936,1970,2044,2001
2036,2025,2026,1985,1826,1967,2022,2007
2023,2035,2041,2011,1825,1994,2032,2016
2040,2055,2058,2050,1965,2023,2042,2032
2054,2059,2068,2077,2051,2022,2042,2041
2046,2058,2063,2076,2056,2011,2036,2038
2045,2051,2057,2056,2037,2002,2014,2042
2042,2055,2053,2053,2045,2018,2031,2068
2062,2061,2064,2067,2076,2045,2038,2090
2067,2070,2065,2077,2094,2057,2052,2095
2072,2073,2058,2071,2085,2072,2051,2096
2065,2065,2058,2064,2100,2077,2051,2086
2052,2044,2038,2068,2130,2074,2056,2085
2046,2036,2030,2060,2160,2069,2025,2077
2041,2038,2043,2066,2140,2060,2019,2069
2038,2035,2042,2059,2128,2060,2019,2068
2026,2038,2044,2053,2090,2060,2039,2060
2030,2036,2050,2046,2051,2069,2030,2063
2037,2052,2054,2045,1993,2085,2038,2066
2042,2053,2045,2017,1843,2078,2047,2056
2035,2042,2038,1988,1747,2047,2060,2054
2038,2045,2034,1996,1852,2031,2049,2040
2041,2038,2033,2001,1887,2030,2031,2024
2035,2024,2032,2004,1873,2028,2032,2019
2027,2023,2033,2000,1878,2046,2050,2016
2035,2041,2040,2018,1917,2070,2041,2023
2049,2047,2044,2043,1980,2069,2028,2018
2062,2058,2046,2041,2009,2006,2016,2016
2055,2037,2029,2035,1997,1983,2008,2006
2045,2026,2034,2034,2003,2000,2023,2008
2057,2042,2047,2037,2081,2017,2030,2013
2064,2051,2056,2040,2090,1982,2025,2023
2058,2052,2054,2036,2063,1985,2038,2033
2048,2047,2049,2044,2027,2031,2065,2042
2043,2052,2052,2063,2009,2068,2083,2044
2044,2062,2053,2055,2002,2058,2063,2045
2054,2062,2052,2036,1974,2051,2074,2061
2067,2069,2060,2060,2044,2089,2094,2068
2066,2061,2055,2066,2028,2082,2068,2065
2051,2046,2038,2037,1957,2063,2061,2065
2044,2033,2034,2016,1939,2058,2059,2052
2034,2027,2025,2020,2015,2066,2047,2057
2042,2030,2030,2038,2138,2082,2052,2065
2036,2028,2034,2071,2269,2086,2056,2073
2030,2036,2029,2076,2251,2060,2051,2080
2039,2032,2037,2075,2199,2050,2018,2085
2041,2045,2044,2070,2152,2041,2031,2080
2042,2054,2044,2070,2107,2044,2045,2072
2043,2054,2048,2057,2075,2063,2019,2068
2045,2050,2042,2046,2054,2084,2040,2068
2048,2047,2046,2039,2026,2078,2024,2058
2045,2041,2042,2037,1998,2049,2033,2031
2044,2037,2037,2034,2006,2022,2014,2017
2036,2031,2041,2043,2055,2003,1997,2017
2028,2038,2046,2060,2132,2004,2037,2020
2032,2054,2053,2071,2173,2032,2038,2014
2034,2054,2053,2075,2170,2049,2038,2014
2032,2047,2044,2072,2155,2065,2039,2017
2031,2035,2043,2072,2121,2085,2051,2007
2030,2037,2037,2066,2081,2075,2054,2006
2030,2028,2026,2040,2014,2062,2035,1998
2031,2026,2031,2059,2080,2068,2046,2005
2041,2042,2050,2073,2053,2068,2071,2009
2047,2045,2042,2055,2087,2068,2053,2008
2031,2040,2034,2050,2131,2059,2039,1999
2032,2039,2043,2058,2153,2058,2052,2019
2036,2046,2047,2076,2167,2039,2057,2018
2036,2043,2048,2064,2088,1993,2028,2016
2033,2033,2051,2052,1994,1974,2013,2025
2040,2030,2043,2031,1859,1972,2015,2045
2041,2035,2054,2051,1923,1987,2014,2053
2046,2042,2065,2061,1994,1989,2024,2050
2039,2040,2068,2066,2050,1992,2028,2059
2032,2047,2060,2064,2056,2004,2025,2072
2034,2049,2053,2049,2058,2021,2042,2084
2051,2050,2046,2039,2031,2029,2056,2098
2049,2050,2036,2041,2033,2074,2067,2093
2043,2042,2032,2050,2052,2104,2073,2108
2052,2041,2024,2045,2034,2110,2039,2098
2063,2044,2029,2034,2076,2120,2069,2090
2061,2045,2040,2056,2136,2086,2047,2082
2056,2059,2055,2076,2126,2047,2037,2085
2062,2072,2062,2081,2075,2031,2049,2076
2063,2070,2063,2090,2080,2039,2032,2048
2051,2061,2062,2084,2103,2031,2017,2031
2048,2064,2059,2077,2078,2030,2038,2027
2053,2068,2067,2084,2066,2051,2055,2031
2061,2076,2070,2106,2116,2102,2058,2036
2063,2071,2076,2114,2148,2132,2069,2033
2054,2059,2068,2111,2153,2143,2067,2019
2046,2050,2056,2098,2105,2127,2065,2011
2036,2042,2044,2070,2037,2083,2048,2000
2032,2043,2038,2043,1973,2045,2018,1997
2025,2034,2042,2030,1995,2050,2018,1997
2032,2046,2055,2054,2140,2054,2037,1998
2043,2051,2059,2054,2092,2019,2027,2003
2044,2051,2051,2065,2051,2017,2038,2011
2045,2054,2059,2069,2037,2024,2043,2017
2049,2056,2066,2064,2032,2021,2053,2024
2050,2051,2058,2068,2024,2055,2058,2023
2039,2047,2057,2062,2021,2071,2052,2030
2040,2045,2051,2062,2025,2070,2056,2033
2033,2042,2047,2046,2015,2061,2058,2041
2036,2040,2050,2049,2035,2035,2047,2059
2037,2039,2052,2061,2046,2028,2040,2071
2037,2048,2049,2067,2042,2041,2064,2081
2046,2048,2048,2069,2045,2047,2079,2091
2050,2046,2047,2065,2043,2059,2077,2093
2044,2040,2046,2050,2033,2051,2066,2082
2033,2032,2035,2049,2039,2040,2046,2081
2025,2036,2040,2050,2063,2038,2041,2069
2025,2033,2042,2054,2078,2043,2042,2066
2032,2036,2045,2059,2093,2048,2046,2071
2034,2043,2050,2054,2084,2037,2043,2059
2036,2041,2047,2055,2073,2023,2045,2052
2039,2037,2042,2049,2053,2004,2018,2037
2031,2031,2024,2037,2024,2002,2025,2022
2027,2017,2019,2032,2012,2033,2033,2025
2033,2025,2026,2034,1940,2034,2052,2025
2043,2027,2030,2036,1945,2034,2051,2032
2048,2048,2045,2049,1957,2030,2034,2028
2060,2047,2045,2046,1936,2018,2051,2029
2048,2037,2037,2038,1944,2012,2031,2016
2036,2025,2032,2029,1932,2015,2046,2011
2039,2012,2024,2032,2022,2037,2043,2000
2027,2010,2024,2050,2112,2070,2055,1996
2032,2021,2032,2068,2155,2082,2068,2011
2048,2038,2044,2085,2173,2086,2072,2020
2049,2038,2048,2099,2199,2084,2058,2019
2043,2030,2041,2088,2159,2079,2050,2010
2039,2037,2043,2054,2039,2048,2042,2012
2030,2043,2044,2041,2006,2029,2033,2021
2036,2036,2047,2045,2005,2019,2031,2028
2033,2030,2033,2019,1858,2001,2040,2025
2026,2018,2027,2024,1922,2028,2048,2036
2027,2021,2045,2040,1962,2036,2059,2046
2027,2021,2042,2039,1996,2053,2059,2065
2031,2032,2047,2053,2032,2083,2074,2083
2042,2044,2055,2064,2060,2086,2073,2084
2042,2040,2050,2064,2086,2086,2063,2095
2047,2034,2051,2055,2084,2060,2025,2090
2051,2040,2057,2051,2077,2042,2040,2088
2055,2043,2063,2052,2071,2053,2040,2091
2056,2042,2061,2054,2069,2055,2033,2089
2048,2040,2052,2047,2054,2050,2024,2070
2045,2039,2049,2034,2044,2055,2022,2061
2036,2046,2056,2039,2050,2075,2029,2043
2036,2047,2059,2040,2042,2080,2054,2050
2053,2052,2062,2051,2037,2062,2053,2054
2065,2062,2071,2059,2042,2045,2057,2050
2067,2060,2075,2058,2045,2064,2054,2023
2049,2062,2068,2058,2044,2087,2064,2016
2048,2056,2060,2052,2023,2094,2058,2017
2050,2038,2066,2052,2018,2085,2068,2029
2049,2036,2068,2054,2009,2090,2056,2021
2042,2052,2068,2058,2008,2085,2059,2014
2039,2050,2061,2053,1995,2061,2035,2011
2036,2046,2061,2046,1969,2002,2033,2008
2036,2050,2070,2062,1978,1983,2029,2013
2055,2062,2080,2066,2009,2003,2036,2016
2063,2068,2071,2062,2048,2003,2053,2019
2058,2066,2071,2078,2132,2039,2060,2027
2058,2060,2065,2077,2121,2067,2058,2032
2045,2063,2067,2062,2049,2072,2043,2036
2046,2060,2076,2052,1975,2055,2043,2035
2044,2062,2074,2046,1939,2041,2043,2041
2039,2058,2066,2034,1932,2022,2027,2044
2037,2063,2066,2054,1984,1988,2041,2067
2052,2062,2081,2080,2065,2008,2044,2075
2041,2051,2069,2078,2095,2037,2045,2064
2040,2047,2065,2079,2118,2076,2046,2080
2037,2053,2074,2092,2158,2087,2046,2080
2042,2052,2074,2086,2167,2072,2034,2084
2035,2039,2061,2078,2138,2056,2037,2079
2034,2039,2064,2068,2093,2050,2030,2084
2040,2048,2064,2069,2063,2035,2032,2084
2042,2054,2067,2064,2033,2027,2043,2081
2045,2053,2067,2066,2042,2026,2044,2079
2047,2051,2065,2060,2042,2034,2042,2060
2045,2049,2058,2061,2056,2040,2037,2051
2042,2040,2057,2060,2065,2045,2039,2038
2044,2040,2056,2064,2069,2048,2051,2033
2044,2040,2060,2064,2089,2054,2048,2025
2042,2038,2055,2068,2100,2052,2041,2020
2038,2041,2061,2073,2107,2052,2037,2024
2049,2043,2061,2078,2078,2051,2051,2007
2044,2041,2056,2078,2074,2076,2039,2007
2044,2035,2064,2073,2061,2098,2023,1994
2046,2041,2057,2065,2038,2095,2024,1998
2033,2034,2047,2046,2009,2073,2027,1985
2031,2024,2041,2032,1990,2059,2028,1995
2035,2039,2049,2052,2031,2038,2042,2006
2036,2047,2054,2066,2045,2028,2062,2009
2041,2051,2054,2071,2067,2067,2062,2000
2043,2049,2059,2073,2068,2081,2060,2008
2049,2052,2061,2067,2042,2085,2064,2020
2049,2046,2067,2069,2044,2092,2059,2031
2050,2044,2059,2067,2047,2091,2052,2036
2049,2043,2059,2071,2064,2050,2060,2036
2047,2034,2051,2071,2069,1989,2044,2047
2040,2032,2049,2069,2066,1983,2045,2052
2036,2024,2048,2062,2066,2012,2047,2063
2032,2037,2063,2062,2077,2038,2061,2080
2042,2050,2062,2056,2085,2048,2058,2088
2040,2054,2062,2070,2100,2046,2052,2089
2045,2046,2057,2064,2074,2051,2059,2083
2032,2032,2049,2052,2030,2037,2046,2079
2022,2029,2045,2049,2003,2031,2048,2088
2037,2036,2044,2050,1998,2025,2045,2085
2042,2038,2047,2053,1993,2023,2037,2079
2050,2038,2043,2048,2010,2012,2028,2071
2040,2039,2042,2057,2027,2011,2015,2054
2043,2042,2051,2072,2054,2020,2042,2036
2031,2045,2059,2075,2051,2037,2038,2021
2038,2043,2054,2058,2006,2046,2036,2015
2030,2034,2052,2052,1997,2063,2046,2015
2031,2037,2051,2049,2003,2071,2066,2008
2034,2032,2050,2044,1998,2071,2066,2008
2038,2037,2054,2049,2033,2055,2066,2009
2035,2031,2059,2062,2049,2038,2069,2003
2043,2037,2064,2069,2075,2054,2062,2009
2038,2042,2075,2074,2104,2082,2062,1994
2032,2032,2063,2070,2143,2084,2070,1985
2030,2031,2055,2069,2169,2100,2063,1997
2038,2045,2064,2084,2197,2111,2074,2003
2042,2052,2063,2094,2197,2112,2052,2005
2042,2044,2062,2089,2162,2100,2052,2007
2047,2040,2052,2061,2091,2086,2064,2021
2047,2045,2054,2051,2031,2053,2055,2026
2056,2052,2067,2051,2003,2015,2044,2027
2054,2057,2061,2046,1968,1969,2029,2021
2045,2048,2058,2042,1978,1944,2029,2020
2036,2042,2061,2056,2027,1942,2037,2039
2036,2044,2061,2079,2079,1975,2057,2058
2044,2046,2064,2088,2115,2015,2061,2065
2046,2047,2058,2088,2138,2032,2056,2062
2041,2040,2051,2082,2120,2013,2032,2056
2035,2036,2048,2075,2090,2022,2026,2054
2032,2032,2044,2062,2055,2049,2033,2053
2030,2026,2041,2061,2060,2093,2041,2065
2029,2036,2045,2070,2078,2089,2044,2062
2034,2040,2047,2058,2063,2056,2050,2061
2021,2035,2049,2038,2049,2036,2036,2049
2019,2032,2046,2046,2042,2017,2039,2046
2024,2033,2051,2054,2036,2008,2039,2043
2024,2034,2052,2056,2045,2007,2042,2038
2033,2046,2056,2066,2052,2019,2042,2038
2042,2057,2056,2067,2069,2032,2050,2041
2058,2054,2053,2067,2058,2039,2051,2024
2058,2055,2056,2070,2071,2053,2058,2014
2046,2038,2052,2076,2076,2068,2059,2009
2043,2044,2046,2066,2058,2090,2065,2005
2039,2039,2052,2056,2039,2104,2078,2002
2039,2043,2053,2055,2024,2107,2073,2001
2042,2043,2053,2043,2018,2093,2072,1998
2028,2031,2049,2050,2078,2076,2068,1997
2036,2040,2050,2055,2045,2041,2075,2006
2045,2053,2064,2062,1965,2024,2060,2005
2042,2052,2052,2062,1965,2036,2069,2002
2046,2048,2055,2063,2009,2056,2052,1999
2040,2046,2054,2056,2041,2029,2047,2001
2034,2041,2051,2046,2075,2034,2060,2014
2031,2049,2054,2064,2155,2060,2060,2031
2036,2045,2057,2070,2137,2071,2059,2030
2036,2052,2055,2064,2092,2072,2051,2035
2032,2045,2058,2060,2080,2066,2061,2043
2040,2036,2067,2064,2091,2069,2064,2059
2044,2049,2063,2063,2083,2078,2077,2076
2041,2052,2060,2054,2022,2064,2058,2076
2033,2041,2046,2040,1974,2042,2066,2078
2032,2040,2038,2039,2003,2042,2067,2089
2032,2033,2035,2040,2024,2038,2052,2082
2036,2026,2028,2048,2051,2033,2055,2070
2032,2026,2025,2050,2032,2041,2039,2062
2027,2024,2030,2051,2021,2055,2059,2056
2023,2040,2039,2055,2046,2061,2058,2054
2030,2045,2042,2056,2061,2065,2058,2051
2033,2042,2042,2049,2048,2045,2065,2042
2037,2038,2039,2049,2076,2049,2069,2043
2038,2036,2046,2053,2082,2048,2070,2039
2044,2036,2047,2058,2064,2043,2067,2035
2044,2036,2045,2052,2022,2012,2066,2028
2036,2042,2044,2047,2024,1998,2055,2025
2037,2033,2039,2049,2053,1988,2054,2026
2046,2038,2038,2042,2042,1974,2041,2006
2043,2038,2038,2024,2006,1946,2041,1991
2034,2041,2041,2029,2015,1977,2050,1991
2026,2037,2038,2039,2082,2015,2054,1989
2028,2034,2041,2062,2124,2029,2065,2000
2033,2036,2047,2074,2071,2054,2067,2011
2042,2051,2051,2060,1995,2065,2064,2014
2048,2048,2056,2061,2024,2093,2068,2009
2049,2049,2058,2062,2036,2104,2079,2020
2047,2046,2058,2056,2029,2082,2074,2022
2039,2034,2043,2060,1999,2055,2062,2016
2031,2031,2040,2066,2017,2044,2072,2026
2038,2029,2039,2056,2006,2025,2064,2032
2034,2034,2048,2056,2003,2031,2070,2045
2029,2037,2047,2062,2055,2042,2060,2050
2034,2036,2038,2051,2069,2049,2076,2057
2028,2030,2039,2053,2086,2066,2083,2078
2039,2037,2051,2073,2120,2079,2094,2091
2054,2042,2052,2071,2084,2072,2081,2089
2048,2030,2048,2043,1974,2052,2069,2086
2039,2019,2033,2036,1958,2048,2068,2090
2035,2019,2038,2038,1957,2050,2071,2099
2039,2028,2045,2053,1973,2058,2075,2093
2049,2037,2048,2058,2024,2067,2067,2084
2054,2047,2061,2070,2049,2083,2069,2083
2059,2056,2063,2072,2039,2065,2063,2073
2058,2044,2055,2067,2032,2033,2042,2054
2045,2044,2048,2064,2035,2023,2038,2044
2048,2038,2053,2080,2082,2026,2045,2040
2053,2046,2058,2089,2084,2036,2041,2029
2050,2046,2053,2088,2083,2045,2053,2032
2044,2039,2055,2084,2084,2042,2056,2020
2051,2037,2052,2077,2091,2050,2032,2013
2052,2032,2045,2058,2033,2038,2024,2013
2053,2044,2043,2040,1926,2046,2052,2021
2059,2054,2054,2036,1995,2058,2046,2023
2065,2060,2050,2039,2073,2032,2025,2010
2045,2036,2038,2031,2047,2026,2023,1997
2037,2038,2042,2031,1907,2036,2041,2003
2043,2036,2053,2052,1969,2042,2060,2017
2041,2039,2055,2079,2072,2067,2072,2018
2045,2046,2046,2071,2072,2079,2050,2024
2040,2043,2042,2053,2029,2059,2065,2034
2040,2037,2041,2038,2003,2035,2036,2027
2041,2042,2043,2037,1993,2009,2028,2039
2046,2045,2043,2039,1971,1981,2045,2051
2042,2046,2046,2036,1988,2008,2054,2050
2042,2049,2053,2049,2028,2057,2056,2064
2044,2046,2056,2062,2065,2080,2064,2076
2049,2054,2054,2071,2072,2093,2069,2080
2051,2051,2047,2066,2078,2092,2065,2091
2054,2045,2043,2062,2087,2085,2055,2092
2054,2040,2043,2049,2097,2068,2038,2089
2042,2014,2026,2041,2086,2049,2028,2090
2045,2013,2031,2046,2090,2052,2040,2088
2051,2034,2047,2072,2104,2068,2056,2082
2049,2043,2054,2088,2115,2068,2059,2085
2038,2043,2050,2069,2085,2035,2037,2073
2038,2043,2051,2059,2069,2024,2041,2066
2041,2045,2056,2066,2067,2014,2032,2058
2044,2056,2061,2078,2083,2030,2042,2052
2050,2058,2063,2071,2078,2048,2057,2047
2053,2052,2058,2062,2088,2064,2047,2044
2051,2048,2049,2059,2090,2086,2054,2044
2047,2048,2055,2065,2091,2079,2062,2035
2044,2041,2049,2061,2084,2062,2044,2018
2038,2039,2044,2059,2074,2052,2024,2008
2045,2036,2043,2061,2062,2062,2036,2008
2037,2039,2042,2066,2063,2081,2050,2005
2032,2034,2039,2075,2081,2100,2041,2013
2042,2036,2043,2082,2073,2087,2036,2020
2051,2047,2050,2075,2057,1999,2025,2022
2046,2044,2052,2068,2043,1935,2031,2016
2045,2047,2055,2068,2053,1953,2018,2027
2052,2054,2052,2064,2068,2001,2013,2032
2048,2057,2057,2058,2072,2027,2020,2030
2054,2057,2052,2060,2062,2027,2037,2043
2055,2058,2052,2058,2052,2024,2026,2046
2054,2052,2057,2045,2021,2025,2027,2055
2049,2058,2052,2047,2024,2024,2031,2060
2054,2061,2056,2051,1983,2020,2031,2067
2056,2054,2061,2060,2000,2041,2060,2075
2057,2064,2068,2061,1998,2072,2071,2091
2054,2061,2061,2056,1996,2070,2069,2091
2054,2054,2056,2054,1994,2053,2049,2087
2047,2049,2058,2055,2014,2048,2045,2084
2038,2044,2049,2054,2039,2038,2032,2085
2040,2037,2043,2041,2046,2026,2041,2085
2042,2050,2051,2055,2125,2045,2051,2084
2049,2053,2056,2067,2136,2052,2041,2078
2045,2048,2052,2061,2088,2046,2043,2070
2042,2051,2046,2053,2060,2049,2038,2065
2041,2048,2049,2050,2054,2048,2046,2059
2048,2056,2055,2053,2057,2047,2037,2058
2055,2059,2054,2053,2045,2048,2049,2051
2056,2056,2056,2047,2040,2053,2045,2041
2058,2052,2057,2048,2038,2051,2044,2034
2053,2052,2052,2046,2040,2056,2044,2029
2046,2046,2049,2054,2048,2056,2042,2026
2049,2049,2056,2057,2049,2059,2048,2026
2048,2051,2056,2055,2049,2043,2056,2013
2046,2045,2044,2051,2044,2047,2047,2009
2037,2030,2035,2038,2033,2045,2058,2011
2037,2033,2032,2041,2054,2051,2044,2018
2056,2049,2047,2054,2076,2067,2054,2030
2059,2058,2051,2062,2094,2064,2065,2036
2058,2065,2057,2075,2120,2044,2073,2047
2059,2065,2061,2077,2112,2047,2074,2046
2062,2063,2052,2078,2097,2053,2053,2040
2053,2058,2048,2074,2073,2069,2034,2040
2047,2049,2043,2050,2041,2073,2047,2048
2047,2040,2032,2036,2015,2052,2033,2055
2052,2039,2030,2037,1999,2035,2041,2065
2046,2039,2036,2042,2012,2039,2027,2067
2047,2034,2035,2040,2012,2044,2045,2079
2044,2033,2031,2042,1999,2042,2058,2082
2037,2024,2033,2047,1991,2038,2050,2080
2040,2026,2034,2044,1992,2034,2064,2082
2037,2020,2027,2036,2017,2041,2060,2076
2028,2016,2024,2041,2060,2047,2029,2081
2037,2031,2030,2051,2067,2044,2058,2089
2042,2031,2032,2046,2059,2038,2051,2083
2046,2030,2030,2049,2066,2040,2040,2065
2042,2034,2034,2058,2062,2039,2034,2063
2042,2037,2041,2059,2049,2036,2030,2064
2041,2042,2040,2055,2048,2036,2037,2052
2055,2041,2041,2060,2056,2046,2062,2049
2055,2043,2035,2059,2061,2054,2059,2043
2062,2053,2046,2054,2072,2050,2057,2041
2064,2049,2048,2054,2070,2047,2051,2036
2057,2050,2044,2056,2068,2044,2054,2034
2063,2048,2047,2052,2061,2042,2059,2033
2064,2051,2044,2048,2066,2034,2052,2028
2060,2050,2043,2052,2053,2036,2053,2027
2051,2055,2043,2047,2052,2032,2063,2024
2058,2055,2048,2045,2051,2031,2058,2018
2062,2063,2058,2059,2056,2031,2058,2030
2063,2062,2055,2073,2091,2049,2072,2031
2067,2058,2052,2070,2086,2055,2063,2036
2066,2056,2051,2064,2081,2064,2074,2040
2061,2055,2045,2062,2099,2066,2048,2045
2061,2051,2041,2056,2127,2063,2058,2052
2054,2053,2043,2068,2159,2052,2048,2047
2064,2049,2048,2059,2151,2043,2047,2052
2053,2052,2049,2026,2011,2009,2045,2063
2058,2052,2045,2026,1922,2010,2033,2082
2056,2049,2046,2037,1949,2021,2049,2093
2063,2049,2037,2025,1894,2039,2049,2088
2057,2045,2043,2025,1936,2064,2052,2083
2052,2043,2036,2027,1958,2070,2054,2076
2050,2035,2035,2033,1938,2081,2040,2069
2038,2020,2020,2028,1932,2031,2020,2070
2034,2027,2028,2038,1974,1959,2048,2083
2048,2042,2052,2068,2054,1966,2058,2086
2041,2046,2057,2092,2114,1994,2066,2084
2043,2048,2062,2088,2118,2032,2068,2076
2045,2052,2060,2070,2060,2044,2066,2061
2050,2052,2051,2057,2029,2078,2048,2041
2060,2048,2043,2060,2058,2091,2048,2044
2061,2045,2036,2063,2064,2086,2054,2041
2055,2042,2036,2061,2072,2089,2059,2040
2056,2041,2035,2064,2072,2083,2054,2028
2043,2033,2032,2048,2062,2078,2042,2004
2032,2030,2026,2024,2026,2073,2015,2006
2040,2027,2021,2020,1977,2057,2017,2006
2042,2032,2024,2011,1953,2040,2008,2004
2041,2028,2012,1998,1942,1989,2005,1998
2033,2013,2005,2013,1999,1964,2034,2021
2050,2038,2035,2066,2088,2024,2069,2035
2065,2067,2057,2083,2129,2055,2063,2037
2064,2067,2053,2081,2125,2064,2056,2037
2066,2053,2050,2066,2093,2057,2032,2028
2050,2046,2037,2055,2057,2049,2037,2034
2049,2042,2037,2061,2076,2061,2050,2048
2056,2052,2041,2070,2121,2068,2066,2048
2056,2057,2043,2071,2120,2077,2066,2060
2066,2057,2052,2070,2108,2082,2070,2068
2067,2055,2054,2067,2102,2089,2081,2072
2065,2050,2047,2056,2092,2101,2075,2083
2053,2041,2042,2049,2075,2089,2066,2085
2050,2039,2041,2048,2037,2070,2062,2090
2050,2045,2046,2036,2022,2045,2061,2096
2055,2050,2048,2053,2036,2004,2039,2104
2049,2045,2054,2062,2046,2011,2027,2105
2053,2053,2061,2061,2033,2021,2030,2109
2060,2060,2056,2055,2031,2037,2052,2099
2057,2057,2053,2047,2038,2062,2049,2083
2051,2049,2051,2046,2034,2054,2037,2068
2045,2045,2050,2042,2036,2050,2037,2054
2035,2045,2052,2044,2026,2058,2053,2047
2046,2040,2048,2044,2017,2063,2041,2047
2054,2045,2048,2041,2006,2070,2046,2037
2046,2047,2050,2045,2011,2068,2051,2039
2054,2046,2047,2047,2009,2063,2047,2032
2055,2045,2052,2050,2012,2054,2038,2027
2058,2053,2053,2052,2018,2058,2043,2030
2053,2046,2052,2046,2040,2058,2045,2023
2055,2049,2048,2051,2066,2063,2050,2018
2047,2049,2044,2042,2073,2073,2051,2014
2038,2039,2041,2038,2071,2079,2036,2012
2040,2039,2043,2046,2072,2092,2055,2026
2051,2054,2046,2048,2065,2095,2047,2018
2054,2056,2046,2049,2041,2072,2040,2024
2053,2049,2041,2050,2034,2064,2048,2031
2053,2053,2047,2039,2045,2059,2070,2037
2057,2056,2054,2051,2050,2046,2081,2051
2061,2052,2044,2045,2044,2038,2084,2060
2059,2053,2045,2050,2042,2033,2080,2066
2052,2047,2048,2046,2015,2030,2089,2078
2054,2048,2043,2047,2036,2045,2064,2078
2052,2044,2041,2052,2051,2070,2072,2089
2054,2050,2050,2063,2046,2092,2072,2091
2055,2049,2049,2062,2042,2110,2078,2101
2047,2052,2053,2055,2080,2137,2079,2105
2061,2047,2044,2046,2073,2144,2065,2100
2050,2030,2037,2010,2002,2112,2057,2088
2045,2028,2032,2010,2066,2111,2042,2074
2043,2044,2039,2023,2101,2096,2031,2059
2041,2043,2030,2035,2091,2044,2037,2065
2043,2031,2027,2043,2103,2009,2032,2071
2052,2033,2033,2047,2073,1995,2036,2065
2052,2035,2040,2040,1988,1991,2033,2051
2056,2042,2047,2052,2019,2011,2052,2050
2060,2046,2053,2057,2019,2038,2067,2051
2061,2051,2043,2034,1931,2047,2079,2050
2064,2055,2044,2049,2007,2058,2062,2047
2065,2051,2036,2056,2065,2063,2057,2027
2044,2039,2035,2045,2067,2038,2032,2008
2049,2034,2037,2038,2041,2034,2029,2010
2057,2039,2042,2045,2063,2037,2041,2007
2053,2042,2045,2049,2054,2034,2038,2000
2041,2031,2032,2054,2037,2040,2041,2001
2040,2031,2028,2057,2041,2063,2040,2014
2056,2038,2036,2062,2055,2064,2053,2020
2057,2048,2047,2071,2071,2063,2031,2011
2057,2057,2062,2075,2069,2053,2044,2020
2046,2052,2065,2065,2056,2057,2039,2025
2041,2051,2062,2060,2051,2078,2047,2036
2046,2057,2065,2061,2038,2074,2051,2041
2056,2066,2068,2061,2025,2016,2046,2035
2055,2058,2064,2061,2021,1975,2030,2044
2055,2053,2056,2057,2014,1985,2035,2054
2054,2042,2049,2054,2019,2017,2044,2068
2058,2053,2051,2051,2024,2049,2044,2077
2049,2052,2049,2055,2035,2047,2049,2092
2043,2051,2046,2050,2041,2052,2052,2098
2043,2054,2041,2044,2050,2058,2036,2098
2035,2040,2039,2044,2055,2049,2038,2087
2029,2041,2038,2037,2045,2047,2038,2090
2036,2045,2038,2036,2034,2044,2045,2090
2046,2043,2041,2030,2028,2044,2052,2081
2054,2042,2037,2028,2029,2039,2049,2072
2056,2050,2045,2027,2024,2046,2051,2068
2052,2053,2048,2029,2010,2046,2052,2058
2042,2052,2047,2034,2018,2051,2051,2052
2059,2055,2053,2033,2019,2054,2060,2049
2056,2065,2052,2033,2022,2060,2057,2038
2055,2061,2050,2036,2022,2065,2064,2042
2050,2060,2041,2036,2014,2055,2062,2036
2044,2054,2041,2035,2007,2047,2061,2030
2043,2044,2036,2041,2013,2046,2049,2025
2043,2044,2042,2042,2026,2054,2060,2021
2051,2053,2051,2042,2016,2040,2044,2012
2037,2040,2039,2034,2021,2036,2036,2020
2040,2044,2035,2042,2033,2037,2056,2022
2057,2058,2049,2053,2049,2045,2044,2033
2064,2061,2053,2058,2047,2050,2043,2039
2059,2061,2062,2053,2048,2050,2047,2037
2059,2061,2061,2053,2047,2045,2056,2038
2060,2054,2055,2060,2046,2050,2043,2047
2056,2059,2053,2059,2047,2050,2053,2043
2056,2055,2052,2056,2047,2049,2047,2058
2053,2058,2056,2057,2047,2053,2047,2070
2056,2056,2057,2048,2048,2058,2055,2066
2060,2058,2059,2052,2046,2061,2063,2072
2054,2054,2054,2052,2041,2056,2050,2081
2062,2055,2049,2041,2037,2051,2043,2081
2049,2052,2051,2049,2030,2050,2041,2092
2054,2050,2051,2050,2032,2051,2059,2094
2039,2044,2045,2045,2018,2029,2045,2088
2035,2044,2045,2044,2011,2014,2036,2095
2048,2055,2050,2043,2002,2013,2046,2087
2049,2051,2053,2033,2005,2019,2041,2076
2050,2043,2044,2030,2025,2045,2054,2073
2050,2039,2049,2055,2080,2079,2062,2071
2050,2050,2055,2069,2105,2111,2070,2064
2052,2044,2055,2064,2088,2117,2054,2036
2049,2040,2053,2044,2061,2110,2042,2030
2056,2036,2043,2027,2043,2092,2050,2030
2051,2043,2047,2039,2026,2072,2054,2034
2051,2048,2050,2037,1998,2053,2058,2036
2053,2054,2049,2023,1928,2060,2065,2042
2057,2060,2046,2037,1930,2077,2062,2034
2062,2056,2057,2067,2050,2081,2058,2018
2053,2043,2039,2053,2133,2042,2035,1997
2037,2025,2030,2033,2146,2028,2037,2001
2039,2031,2029,2035,2135,2041,2047,2008
2044,2035,2038,2030,2047,2038,2031,2002
2034,2034,2027,2016,1992,2050,2028,1992
2030,2034,2029,2019,1971,2067,2043,2000
2038,2037,2031,2024,1960,2057,2032,2016
2043,2039,2034,2035,1963,2054,2053,2022
2046,2040,2042,2051,1987,2028,2038,2041
2057,2044,2054,2055,2006,2014,2042,2055
2058,2038,2045,2049,2015,2019,2048,2065
2057,2036,2038,2038,1977,2016,2053,2071
2049,2035,2032,2024,1957,2021,2031,2066
2037,2028,2028,2024,1991,2021,2029,2076
2032,2036,2023,2022,2000,2028,2034,2083
2035,2036,2033,2026,1994,2028,2053,2092
2040,2044,2049,2036,2012,2034,2045,2094
2046,2050,2055,2040,2057,2025,2043,2096
2059,2060,2061,2042,2098,2028,2043,2103
2075,2078,2064,2061,2135,2046,2042,2105
2073,2065,2052,2058,2115,2044,2045,2090
2063,2045,2047,2044,2100,2051,2056,2073
2060,2039,2049,2052,2086,2075,2049,2069
2058,2053,2060,2061,2081,2085,2046,2054
2059,2053,2065,2072,2045,2093,2046,2048
2065,2061,2072,2084,2094,2104,2063,2045
2063,2061,2079,2093,2113,2101,2060,2040
2057,2060,2073,2089,2109,2095,2068,2032
2051,2051,2067,2067,2024,2081,2068,2027
2055,2048,2056,2027,1907,2052,2055,2022
2050,2047,2054,2014,1940,2022,2053,2022
2048,2047,2052,2002,2028,2027,2046,2019
2061,2047,2049,2027,2118,2053,2048,2014
2051,2035,2046,2034,2085,2052,2047,2007
2046,2028,2044,2026,2051,2050,2042,2016
2056,2047,2061,2038,2056,2064,2064,2024
2064,2058,2067,2049,2052,2060,2060,2028
2068,2066,2069,2047,2056,2060,2070,2032
2064,2060,2069,2056,2064,2064,2060,2035
2059,2057,2062,2050,2065,2058,2051,2033
2058,2054,2059,2050,2069,2051,2050,2043
2056,2053,2056,2048,2066,2046,2068,2045
2055,2055,2060,2046,2060,2047,2055,2047
2056,2055,2056,2043,2060,2045,2049,2058
2055,2049,2058,2042,2057,2051,2049,2059
2047,2046,2057,2047,2065,2058,2064,2073
2058,2045,2058,2046,2060,2060,2065,2075
2055,2046,2056,2051,2053,2058,2056,2084
2055,2040,2054,2047,2056,2060,2049,2088
2055,2028,2049,2043,2051,2055,2055,2090
2045,2029,2052,2045,2051,2060,2058,2092
2046,2043,2057,2046,2043,2059,2054,2086
2058,2040,2056,2046,2038,2062,2053,2087
2059,2043,2056,2045,2040,2070,2060,2071
2056,2038,2059,2045,2041,2072,2055,2063
2055,2037,2050,2044,2040,2062,2041,2057
2051,2042,2056,2038,2039,2056,2032,2051
2054,2039,2058,2041,2041,2028,2026,2043
2063,2041,2051,2044,2047,2005,2031,2042
2066,2043,2048,2046,2049,2003,2054,2046
2067,2038,2055,2049,2052,2008,2051,2052
2061,2047,2055,2050,2044,2010,2067,2042
2063,2048,2056,2043,2035,2008,2057,2045
2066,2044,2056,2042,2037,2002,2056,2034
2071,2047,2053,2041,2030,1995,2048,2025
2065,2037,2048,2037,2022,1999,2045,2021
2056,2038,2050,2033,2036,2002,2046,2015
2064,2051,2058,2049,2054,2020,2060,2019
2066,2050,2059,2049,2061,2025,2065,2012
2064,2046,2056,2047,2075,2057,2058,2006
2055,2043,2051,2048,2068,2096,2056,2005
2041,2035,2043,2046,2069,2133,2035,2013
2044,2036,2039,2046,2068,2106,2049,2035
2053,2044,2049,2049,2063,2077,2042,2047
2050,2040,2049,2054,2064,2066,2047,2058
2056,2044,2051,2048,2063,2080,2049,2067
2052,2041,2050,2046,2060,2100,2057,2080
2054,2036,2046,2044,2057,2105,2059,2092
2056,2032,2048,2034,2058,2109,2070,2102
2051,2036,2043,2034,2064,2112,2066,2107
2048,2034,2044,2038,2054,2112,2066,2110
2046,2030,2044,2035,2031,2097,2064,2104
2050,2035,2037,2037,2025,2078,2042,2097
2052,2041,2046,2037,2013,2081,2043,2092
2046,2051,2043,2035,1996,2076,2021,2084
2043,2043,2040,2022,1982,2078,2026,2068
2046,2040,2036,2020,1958,2095,2029,2057
2046,2039,2035,2014,1943,2071,2022,2054
2039,2036,2035,2012,1921,1983,1990,2039
2039,2033,2032,2003,1958,1937,2013,2035
2039,2038,2041,2032,2027,1974,2020,2036
2059,2048,2043,2050,2035,2016,2040,2039
2058,2042,2052,2056,2024,2039,2022,2030
2050,2046,2050,2050,2032,2054,2021,2025
2057,2048,2054,2049,2057,2054,2045,2030
2065,2053,2051,2052,2069,2062,2048,2026
2069,2050,2058,2069,2116,2068,2042,2022
2068,2043,2055,2078,2158,2061,2038,2008
2050,2044,2048,2069,2140,2053,2042,1997
2052,2055,2056,2065,2134,2055,2047,2011
2062,2058,2053,2060,2150,2056,2050,2031
2065,2057,2057,2066,2187,2068,2038,2042
2073,2064,2058,2076,2198,2064,2045,2040
2074,2064,2070,2070,2156,2060,2046,2033
2063,2059,2064,2040,1993,2070,2031,2031
2051,2050,2057,2040,2008,2086,2023,2031
2036,2041,2057,2042,2070,2092,2041,2035
2032,2033,2061,2052,2095,2088,2041,2054
2042,2046,2077,2047,2085,2077,2055,2075
2050,2050,2070,2027,1982,2053,2058,2086
2048,2050,2063,2014,1957,2035,2060,2089
2048,2051,2058,2025,1973,2016,2051,2097
2049,2051,2055,2015,1976,2001,2053,2092
2046,2038,2040,2002,1987,1996,2035,2084
2036,2037,2047,2025,2028,2020,2050,2096
2052,2048,2056,2043,2066,2029,2051,2096
2055,2060,2064,2055,2098,2049,2049,2094
2055,2058,2054,2058,2097,2080,2053,2088
2056,2052,2057,2052,2076,2077,2051,2079
2047,2048,2050,2047,2056,2061,2045,2072
2051,2046,2049,2040,2043,2065,2032,2058
2047,2048,2044,2040,2042,2081,2030,2051
2046,2046,2044,2045,2045,2085,2064,2034
2049,2051,2044,2042,2046,2095,2040,2027
2046,2047,2046,2042,2051,2103,2052,2033
2043,2046,2048,2035,2044,2105,2058,2028
2045,2046,2041,2038,2047,2116,2061,2027
2042,2049,2046,2042,2043,2117,2060,2017
2045,2045,2044,2034,2042,2099,2059,2018
2049,2041,2040,2026,2029,2017,2049,2001
2038,2039,2037,2032,2030,1991,2041,1998
2040,2039,2040,2045,2045,1995,2041,2014
2052,2058,2046,2052,2044,2000,2040,2018
2052,2060,2045,2050,2041,2025,2021,2033
2055,2066,2053,2048,2055,2047,2028,2029
2055,2065,2049,2048,2058,2055,2043,2032
