CH1,CH2,CH3,CH4,CH5,CH6,CH7,CH8
2051,2053,2060,2052,2050,2092,2058,2062
2051,2057,2056,2056,2041,2097,2075,2059
2044,2052,2042,2050,2039,2090,2066,2045
2038,2045,2027,2049,2043,2038,2038,2033
2036,2032,2022,2050,2030,2021,2054,2033
2037,2035,2019,2046,2020,2042,2050,2025
2025,2030,2023,2045,2014,2061,2046,2028
2033,2034,2025,2044,2007,2068,2056,2026
2029,2040,2036,2048,2012,2057,2040,2028
2040,2035,2043,2061,2028,2001,2027,2044
2047,2042,2053,2078,2058,1991,2052,2045
2052,2052,2064,2084,2074,2021,2047,2048
2048,2060,2091,2100,2065,2030,2050,2052
2052,2057,2098,2107,2058,2035,2035,2052
2056,2064,2103,2110,2063,2044,2055,2056
2052,2062,2090,2109,2095,2052,2053,2051
2051,2054,2072,2102,2102,2058,2054,2054
2049,2051,2065,2091,2083,2055,2060,2055
2038,2044,2059,2082,2065,2048,2053,2058
2033,2030,2058,2068,2051,2045,2033,2062
2030,2038,2071,2077,2049,2048,2055,2071
2036,2039,2081,2081,2059,2047,2056,2078
2040,2054,2099,2095,2066,2051,2068,2083
2039,2067,2120,2096,2060,2042,2064,2091
2045,2067,2112,2070,2047,2039,2042,2092
2056,2055,2088,2044,2048,2025,2010,2089
2050,2044,2076,2034,2043,2016,2049,2090
2052,2056,2084,2033,2059,2025,2052,2092
2054,2065,2072,2030,2073,2018,2052,2097
2057,2063,2047,2026,2071,2014,2042,2090
2058,2054,2033,2025,2058,2004,2053,2073
2049,2046,2033,2024,2055,2011,2043,2066
2042,2044,2039,2025,2047,2021,2044,2055
2046,2051,2045,2023,2037,2031,2059,2052
2043,2045,2036,2019,2021,2045,2044,2052
2041,2043,2029,2013,2020,2074,2029,2051
2044,2038,2029,2015,2028,2090,2030,2050
2040,2044,2028,2028,2029,2068,2022,2042
2037,2045,2031,2028,2027,2059,2032,2042
2032,2038,2027,2030,2025,2049,2039,2035
2036,2031,2012,2021,2057,2052,2039,2034
2027,2017,2005,2016,2065,2048,2036,2031
2030,2024,2010,2011,2047,2042,2051,2036
2047,2041,2026,2013,2032,2049,2072,2039
2042,2039,2028,2006,2021,2034,2054,2046
2041,2039,2044,2016,2023,2041,2050,2051
2041,2059,2082,2041,2051,2053,2061,2059
2051,2079,2110,2053,2071,2058,2067,2064
2058,2089,2111,2063,2075,2059,2075,2070
2056,2081,2090,2058,2079,2060,2062,2072
2050,2065,2073,2047,2069,2054,2046,2076
2051,2058,2062,2055,2085,2063,2043,2080
2045,2069,2063,2067,2086,2068,2084,2088
2050,2062,2051,2062,2067,2064,2057,2092
2052,2052,2042,2054,2050,2059,2054,2093
2045,2051,2030,2046,2047,2060,2068,2098
2051,2050,2035,2052,2065,2076,2045,2088
2050,2050,2028,2044,2056,2074,2035,2078
2038,2031,2024,2036,2047,2061,2038,2075
2034,2036,2046,2050,2051,2068,2050,2080
2038,2044,2054,2062,2049,2069,2058,2081
2035,2044,2063,2062,2053,2062,2060,2085
2041,2039,2054,2069,2058,2061,2061,2077
2045,2042,2055,2072,2057,2056,2059,2071
2043,2049,2049,2064,2057,2050,2055,2068
2038,2054,2054,2064,2056,2044,2055,2064
2051,2057,2057,2051,2052,2036,2051,2063
2056,2060,2054,2046,2048,2040,2050,2054
2053,2060,2063,2044,2051,2049,2069,2044
2049,2057,2062,2047,2054,2047,2067,2047
2045,2058,2060,2046,2044,2040,2063,2055
2048,2051,2064,2038,2035,2033,2053,2054
2050,2057,2067,2035,2022,2020,2040,2058
2052,2057,2064,2026,2016,2000,2050,2056
2052,2052,2054,2021,2020,1999,2036,2050
2050,2043,2050,2017,2029,2011,2038,2058
2054,2054,2052,2015,2035,2028,2029,2060
2049,2055,2053,2025,2029,2040,2039,2048
2058,2058,2051,2030,2018,2040,2046,2044
2046,2052,2047,2019,2004,2034,2044,2040
2030,2042,2033,2009,1989,2032,2042,2046
2039,2045,2038,2030,2013,2055,2055,2064
2046,2049,2049,2043,2034,2069,2059,2072
2044,2049,2041,2032,2041,2073,2076,2073
2046,2050,2048,2045,2066,2069,2087,2084
2048,2052,2047,2052,2101,2058,2076,2091
2047,2054,2049,2054,2113,2062,2077,2096
2053,2053,2051,2060,2109,2071,2072,2097
2047,2051,2043,2054,2085,2059,2044,2097
2051,2048,2039,2049,2067,2044,2049,2096
2046,2030,2026,2043,2042,2030,2041,2091
2045,2025,2031,2035,2040,2036,2045,2091
2048,2039,2041,2039,2042,2044,2040,2081
2048,2041,2041,2040,2035,2050,2041,2076
2047,2044,2047,2047,2039,2076,2060,2076
2048,2041,2050,2049,2053,2105,2066,2066
2056,2044,2050,2051,2039,2111,2048,2055
2050,2044,2047,2043,2020,2088,2037,2034
2042,2036,2041,2034,2008,2080,2017,2028
2031,2030,2046,2033,1999,2065,2024,2024
2039,2038,2037,2032,1997,2054,2029,2032
2044,2032,2037,2026,1998,2066,2044,2032
2037,2025,2029,2022,1992,2055,2037,2030
2041,2021,2029,2022,2005,2027,2042,2036
2040,2030,2041,2036,2047,2024,2038,2044
2046,2036,2049,2052,2071,2028,2065,2037
2047,2033,2059,2062,2074,2030,2047,2041
2051,2045,2074,2067,2081,2017,2029,2043
2059,2070,2088,2072,2077,2008,2063,2046
2054,2063,2083,2073,2070,2017,2047,2054
2057,2062,2074,2074,2071,2023,2045,2053
2054,2058,2065,2075,2072,2049,2082,2050
2046,2048,2059,2068,2077,2066,2088,2049
2042,2048,2049,2059,2073,2062,2093,2056
2040,2042,2045,2055,2066,2056,2067,2060
2048,2047,2038,2048,2061,2056,2060,2064
2039,2041,2033,2050,2059,2051,2043,2080
2044,2039,2035,2047,2058,2040,2043,2080
2051,2045,2022,2040,2054,2037,2044,2086
2044,2050,2022,2042,2050,2044,2041,2085
2043,2047,2020,2041,2053,2047,2039,2091
2047,2049,2030,2038,2046,2043,2033,2086
2048,2048,2035,2029,2041,2033,2034,2083
2039,2035,2039,2025,2038,2037,2035,2084
2039,2050,2052,2037,2041,2048,2031,2092
2049,2061,2062,2043,2053,2053,2058,2090
2049,2059,2062,2051,2057,2050,2049,2081
2048,2063,2065,2050,2052,2046,2029,2076
2051,2057,2063,2041,2044,2052,2043,2065
2044,2055,2067,2038,2043,2047,2023,2058
2046,2060,2065,2041,2041,2051,2025,2061
2049,2057,2064,2044,2045,2051,2055,2065
2047,2056,2071,2040,2042,2048,2038,2053
2049,2058,2072,2044,2041,2055,2053,2052
2048,2055,2060,2038,2050,2064,2048,2047
2042,2051,2049,2040,2036,2068,2056,2046
2046,2049,2050,2038,2043,2085,2053,2048
2050,2055,2055,2044,2047,2107,2050,2048
2057,2058,2061,2047,2053,2141,2052,2051
2056,2047,2054,2044,2062,2162,2068,2051
2048,2049,2051,2046,2051,2140,2037,2047
2059,2050,2058,2048,2051,2026,2026,2043
2057,2051,2055,2046,2044,1977,2025,2042
2050,2057,2059,2047,2050,2006,2034,2043
2048,2060,2055,2049,2050,2022,2021,2040
2042,2055,2058,2043,2050,2022,2042,2042
2047,2052,2059,2049,2047,2020,2024,2049
2042,2053,2050,2046,2049,2009,2023,2046
2037,2054,2049,2051,2055,2019,2040,2053
2030,2048,2053,2048,2055,2030,2038,2062
2039,2054,2050,2050,2054,2025,2047,2064
2048,2049,2048,2040,2056,2031,2042,2081
2050,2044,2045,2045,2050,2032,2052,2082
2051,2046,2058,2046,2055,2034,2059,2080
2054,2052,2054,2044,2058,2045,2054,2087
2047,2043,2054,2041,2052,2052,2067,2083
2042,2041,2050,2036,2050,2079,2059,2081
2040,2047,2060,2042,2046,2094,2067,2082
2041,2048,2051,2038,2034,2081,2073,2075
2039,2054,2053,2032,2024,2073,2052,2075
2044,2057,2053,2040,2037,2035,2046,2078
2050,2062,2063,2046,2041,2023,2041,2069
2046,2059,2063,2049,2035,2029,2040,2066
2050,2063,2059,2049,2042,2037,2044,2062
2048,2055,2056,2052,2058,2071,2064,2055
2045,2051,2053,2046,2065,2080,2080,2044
2045,2057,2054,2047,2064,2072,2072,2051
2043,2056,2055,2041,2069,2054,2062,2045
2040,2053,2051,2043,2058,2033,2039,2042
2044,2050,2048,2036,2056,2026,2044,2039
2045,2055,2059,2049,2052,2022,2059,2055
2051,2051,2052,2038,2046,2019,2047,2040
2042,2044,2040,2036,2038,2025,2048,2038
2041,2042,2043,2042,2036,2033,2047,2037
2041,2048,2040,2036,2033,2042,2053,2039
2049,2049,2036,2039,2040,2045,2051,2049
2049,2053,2041,2044,2053,2049,2046,2054
2048,2059,2046,2052,2060,2051,2060,2051
2048,2059,2051,2055,2063,2050,2051,2058
2049,2065,2050,2052,2057,2047,2033,2061
2058,2059,2052,2051,2057,2044,2020,2066
2057,2051,2042,2046,2057,2040,2049,2067
2049,2045,2042,2049,2053,2036,2044,2068
2038,2046,2047,2047,2057,2040,2049,2077
2040,2046,2044,2047,2056,2041,2056,2077
2036,2046,2046,2050,2056,2043,2056,2078
2028,2045,2042,2046,2061,2049,2027,2081
2028,2045,2039,2046,2050,2041,2026,2074
2023,2037,2037,2036,2040,2030,2013,2081
2031,2038,2045,2038,2036,2038,2031,2082
2045,2055,2059,2044,2034,2042,2046,2086
2039,2054,2062,2038,2035,2037,2049,2081
2042,2052,2057,2044,2034,2040,2066,2085
2050,2057,2055,2047,2038,2047,2071,2079
2055,2057,2058,2049,2042,2052,2061,2072
2053,2061,2054,2046,2040,2057,2058,2065
2047,2063,2059,2048,2046,2059,2068,2067
2049,2064,2064,2054,2051,2060,2060,2059
2050,2064,2058,2053,2058,2065,2067,2057
2055,2064,2054,2049,2061,2069,2078,2054
2054,2063,2048,2052,2058,2062,2058,2046
2052,2061,2052,2048,2055,2056,2068,2045
2054,2060,2054,2050,2059,2052,2070,2049
2053,2054,2057,2053,2058,2062,2052,2042
2051,2050,2054,2041,2047,2060,2053,2034
2039,2042,2042,2040,2039,2064,2054,2023
2037,2044,2047,2045,2042,2069,2037,2033
2042,2052,2051,2045,2043,2071,2030,2039
2037,2053,2049,2047,2052,2041,2045,2047
2046,2058,2055,2055,2064,2013,2034,2050
2050,2055,2053,2059,2074,2021,2028,2056
2048,2058,2050,2055,2077,2039,2031,2059
2042,2058,2055,2056,2064,2058,2028,2064
2045,2059,2048,2055,2065,2067,2024,2066
2051,2058,2050,2045,2057,2069,2035,2068
2048,2056,2049,2049,2057,2071,2048,2069
2042,2052,2051,2044,2056,2067,2042,2074
2047,2053,2050,2046,2047,2024,2040,2075
2037,2050,2050,2039,2054,1982,2031,2078
2038,2048,2047,2043,2049,1982,2039,2082
2035,2046,2050,2046,2047,1998,2033,2081
2030,2040,2039,2041,2035,2008,2029,2077
2036,2032,2036,2036,2042,2028,2047,2076
2036,2043,2042,2043,2046,2042,2018,2072
2042,2048,2043,2047,2049,2050,2027,2073
2041,2051,2045,2041,2044,2045,2033,2081
2046,2050,2049,2045,2052,2040,2040,2081
2054,2052,2053,2045,2058,2037,2045,2072
2053,2049,2051,2043,2054,2025,2051,2063
2050,2047,2055,2043,2061,2026,2041,2060
2054,2046,2048,2045,2065,2028,2048,2051
2051,2046,2045,2047,2064,2025,2043,2045
2052,2044,2042,2049,2066,2021,2036,2043
2049,2043,2046,2044,2065,2027,2027,2039
2044,2041,2042,2049,2067,2026,2025,2039
2049,2038,2038,2040,2066,2028,2032,2037
2052,2041,2042,2043,2067,2041,2048,2031
2052,2041,2037,2041,2057,2056,2050,2031
2045,2034,2032,2035,2048,2057,2022,2030
2037,2034,2035,2033,2051,2065,2042,2028
2040,2042,2044,2044,2051,2065,2042,2038
2042,2038,2044,2043,2054,2054,2027,2036
2045,2043,2046,2045,2054,2058,2055,2040
2047,2047,2042,2044,2055,2064,2048,2039
2043,2046,2044,2036,2052,2058,2043,2034
2040,2044,2044,2035,2040,2059,2034,2036
2051,2043,2046,2033,2032,2050,2044,2051
2051,2043,2042,2044,2042,2050,2058,2057
2049,2044,2043,2039,2046,2055,2051,2069
2052,2045,2045,2038,2040,2057,2053,2065
2050,2048,2042,2039,2045,2061,2060,2067
2049,2047,2048,2043,2045,2061,2063,2080
2051,2054,2047,2041,2045,2059,2057,2081
2061,2054,2048,2038,2044,2059,2064,2082
2064,2053,2049,2039,2041,2047,2038,2075
2055,2039,2041,2035,2029,2049,2045,2077
2051,2035,2040,2035,2038,2039,2041,2076
2057,2050,2044,2039,2040,2029,2051,2083
2061,2049,2054,2038,2025,2016,2070,2077
2051,2055,2055,2035,2017,2022,2072,2072
2054,2055,2053,2041,2018,2022,2054,2067
2055,2053,2045,2029,2020,2022,2038,2054
2045,2047,2042,2031,2030,2040,2053,2053
2049,2048,2048,2047,2056,2058,2046,2050
2048,2050,2054,2050,2062,2060,2035,2040
2036,2043,2050,2047,2058,2076,2045,2038
2036,2041,2040,2034,2061,2092,2048,2023
2039,2036,2038,2033,2044,2100,2030,2029
2032,2034,2029,2030,2038,2087,2023,2024
2031,2032,2038,2023,2036,2047,2034,2037
2038,2036,2044,2041,2056,1993,2050,2045
2046,2038,2040,2045,2070,1978,2048,2044
2044,2033,2036,2050,2076,2011,2041,2040
2045,2039,2043,2051,2078,2040,2065,2043
2054,2042,2045,2047,2085,2050,2057,2046
2053,2039,2041,2048,2078,2050,2073,2041
2047,2038,2043,2051,2080,2053,2050,2041
2047,2048,2046,2056,2084,2059,2032,2042
2049,2051,2044,2055,2074,2061,2045,2042
2048,2054,2042,2041,2047,2066,2047,2042
2047,2047,2039,2039,2024,2061,2066,2045
2041,2040,2043,2033,2009,2066,2072,2061
2043,2045,2046,2033,1997,2061,2067,2065
2047,2046,2047,2036,2000,2038,2078,2080
2057,2054,2056,2048,2040,2030,2079,2091
2059,2055,2058,2056,2079,2051,2042,2091
2054,2054,2055,2054,2099,2064,2067,2091
2047,2041,2049,2060,2105,2089,2067,2081
2039,2032,2038,2045,2090,2086,2074,2083
2030,2018,2028,2042,2074,2080,2054,2086
2034,2027,2038,2037,2055,2075,2062,2075
2033,2024,2030,2036,2052,2070,2042,2070
2038,2026,2031,2035,2051,2060,2037,2069
2041,2029,2036,2041,2052,2060,2043,2063
2047,2037,2036,2051,2053,2071,2056,2068
2047,2037,2039,2039,2044,2082,2039,2061
2059,2040,2034,2037,2041,2080,2028,2055
2051,2046,2038,2029,2037,2061,2046,2053
2048,2045,2036,2036,2013,2036,2022,2053
2045,2044,2036,2034,1993,2012,2007,2047
2051,2046,2040,2024,1974,2011,2015,2044
2051,2036,2032,2009,1977,2019,2022,2039
2046,2027,2026,2005,1979,2044,2011,2028
2049,2032,2033,2017,2008,2088,2021,2031
2055,2055,2065,2045,2054,2096,2050,2025
2051,2055,2063,2057,2079,2082,2037,2031
2049,2055,2067,2064,2104,2079,2043,2043
2054,2066,2081,2078,2113,2058,2044,2054
2061,2068,2076,2073,2084,2031,2044,2051
2061,2068,2079,2067,2053,2034,2042,2049
2060,2064,2074,2061,2035,2039,2044,2055
2066,2060,2073,2055,2028,2050,2029,2048
2058,2051,2068,2044,2034,2064,2023,2046
2058,2052,2068,2056,2076,2096,2045,2049
2057,2055,2071,2072,2108,2112,2052,2057
2064,2058,2070,2063,2102,2106,2037,2072
2064,2056,2067,2050,2100,2098,2030,2074
2059,2053,2063,2049,2088,2078,2024,2073
2050,2051,2067,2050,2082,2046,2017,2076
2055,2053,2063,2046,2058,2007,2004,2088
2056,2057,2061,2042,2058,1998,2012,2084
2056,2057,2055,2038,2051,1994,1994,2079
2042,2043,2050,2034,2042,2003,1998,2080
2044,2041,2057,2045,2045,2012,1999,2076
2045,2059,2061,2050,2055,2030,2011,2081
2054,2059,2068,2046,2052,2033,2042,2077
2046,2060,2064,2045,2041,2033,2027,2072
2046,2058,2066,2044,2040,2044,2049,2057
2045,2055,2060,2039,2041,2056,2074,2055
2026,2045,2056,2036,2036,2070,2080,2043
2022,2039,2057,2035,2030,2088,2088,2043
2028,2041,2052,2036,2031,2088,2071,2044
2034,2038,2048,2037,2035,2104,2080,2041
2031,2036,2054,2041,2046,2128,2062,2040
2038,2040,2050,2039,2042,2138,2054,2034
2043,2043,2052,2046,2050,2105,2066,2036
2090,2059,2059,2044,2052,2008,2057,2032
2099,2056,2052,2043,2042,1952,2036,2032
2076,2046,2045,2041,2033,1976,2045,2027
2051,2034,2043,2037,2037,2001,2052,2023
2051,2040,2049,2044,2044,2022,2049,2029
2055,2051,2057,2045,2049,2029,2056,2037
2059,2050,2056,2054,2054,2033,2057,2032
2054,2049,2057,2051,2045,2036,2061,2032
2054,2047,2057,2041,2025,2043,2042,2027
2054,2040,2053,2031,2006,2045,2028,2026
2048,2042,2053,2032,1999,2065,2027,2033
2041,2043,2051,2026,1996,2065,2029,2042
2050,2047,2056,2034,2020,2045,2046,2060
2054,2049,2055,2050,2070,2053,2055,2074
2061,2047,2063,2069,2105,2067,2070,2084
2056,2047,2056,2070,2110,2074,2063,2088
2059,2044,2054,2065,2112,2084,2075,2096
2054,2041,2052,2059,2091,2087,2078,2096
2052,2038,2050,2052,2068,2061,2060,2085
2040,2023,2038,2030,2050,2029,2033,2069
2026,2016,2030,2030,2042,2008,2044,2074
2039,2030,2041,2033,2044,2012,2055,2073
2040,2032,2039,2033,2044,2012,2059,2074
2042,2042,2051,2034,2043,2015,2065,2069
2050,2038,2043,2033,2028,2029,2068,2063
2040,2038,2041,2031,2019,2052,2039,2060
2044,2042,2038,2036,2022,2078,2037,2053
2044,2043,2049,2043,2037,2102,2049,2052
2053,2049,2044,2044,2040,2109,2060,2054
2047,2051,2053,2044,2046,2110,2080,2050
2052,2051,2054,2046,2042,2101,2061,2041
2052,2052,2052,2046,2037,2088,2056,2042
2058,2056,2053,2040,2031,2080,2052,2046
2054,2056,2055,2039,2031,2082,2043,2044
2055,2052,2052,2046,2032,2076,2036,2032
2054,2056,2051,2043,2038,2066,2030,2017
2046,2040,2044,2035,2041,2042,2016,2016
2039,2042,2049,2042,2044,2030,2033,2024
2055,2054,2055,2054,2055,2039,2034,2032
2053,2057,2057,2056,2061,2055,2032,2026
2055,2053,2052,2051,2056,2057,2071,2032
2051,2047,2052,2047,2045,2057,2070,2037
2049,2042,2046,2040,2025,2075,2071,2047
2049,2043,2045,2032,2020,2102,2078,2039
2044,2044,2047,2028,2022,2110,2082,2052
2045,2047,2055,2042,2019,2115,2072,2061
2048,2053,2065,2045,2029,2080,2064,2073
2055,2066,2060,2057,2033,2039,2068,2079
2059,2059,2068,2063,2029,1941,2047,2088
2058,2062,2069,2057,2010,1920,2062,2087
2060,2068,2063,2054,2019,1956,2047,2086
2061,2061,2056,2044,2030,2000,2040,2076
2059,2049,2043,2028,2040,2027,2027,2068
2048,2037,2035,2034,2042,2044,2017,2063
2035,2043,2041,2037,2041,2055,2046,2061
2043,2051,2046,2043,2038,2076,2052,2060
2036,2057,2051,2039,2029,2054,2026,2057
2042,2056,2048,2038,2008,2033,2016,2046
2045,2048,2047,2033,2013,2029,2019,2047
2043,2048,2040,2033,2016,2029,2026,2037
2046,2054,2043,2042,2056,2039,2021,2036
2044,2052,2044,2048,2062,2033,2038,2033
2041,2052,2049,2044,2058,2023,2050,2031
2046,2056,2044,2044,2058,2021,2026,2033
2050,2055,2047,2047,2047,2010,2044,2029
2042,2049,2045,2039,2040,1990,2033,2027
2040,2051,2043,2041,2039,1995,2017,2025
2052,2056,2054,2044,2055,2052,2061,2030
2052,2055,2048,2047,2062,2094,2082,2035
2044,2045,2047,2042,2057,2090,2078,2032
2041,2044,2040,2035,2056,2088,2072,2041
2051,2042,2045,2041,2061,2093,2083,2042
2055,2046,2046,2041,2064,2083,2069,2043
2053,2051,2056,2037,2058,2080,2056,2045
2053,2056,2048,2042,2062,2068,2072,2044
2052,2054,2058,2045,2088,2063,2054,2048
2047,2054,2055,2044,2106,2054,2073,2038
2045,2048,2051,2035,2099,2037,2060,2044
2040,2047,2049,2031,2076,2015,2056,2055
2044,2047,2051,2034,2072,2010,2032,2053
2043,2043,2044,2024,2070,2013,2042,2046
2044,2041,2037,2023,2076,2022,2025,2053
2050,2047,2053,2038,2101,2058,2035,2066
2045,2051,2056,2049,2098,2084,2036,2067
2042,2048,2058,2057,2088,2082,2050,2080
2050,2046,2047,2050,2013,2037,2046,2076
2040,2034,2039,2026,1965,2024,2047,2072
2040,2029,2036,2021,1980,2022,2042,2076
2034,2028,2038,2029,2000,2031,2034,2058
2033,2023,2035,2021,1991,2046,2028,2060
2035,2023,2034,2012,1947,2058,2037,2050
2032,2031,2035,2011,1926,2054,1996,2050
2038,2040,2047,2011,1925,2064,1998,2049
2042,2038,2042,2000,1885,2040,2014,2046
2044,2034,2047,2000,1915,1996,2030,2060
2058,2044,2057,2034,2016,2019,2062,2073
2062,2044,2061,2051,2076,2066,2075,2066
2048,2034,2049,2044,2080,2082,2071,2049
2040,2036,2043,2044,2086,2073,2042,2041
2036,2035,2037,2037,2066,2043,2055,2043
2045,2038,2042,2026,2050,2021,2061,2035
2047,2042,2044,2034,2062,2020,2038,2044
2049,2049,2051,2035,2050,2017,2035,2040
2047,2048,2050,2030,2043,2023,2031,2038
2046,2047,2053,2037,2055,2028,2045,2050
2055,2057,2058,2041,2054,2024,2029,2050
2064,2060,2061,2046,2055,2032,2039,2050
2062,2063,2066,2046,2054,2062,2065,2050
2060,2057,2067,2041,2058,2092,2096,2048
2054,2049,2057,2033,2049,2113,2100,2040
2042,2042,2049,2026,2030,2108,2097,2051
2032,2039,2039,2023,2022,2104,2079,2054
2037,2038,2037,2024,2027,2096,2082,2059
2043,2034,2045,2025,2030,2081,2095,2076
2049,2039,2047,2045,2060,2068,2085,2081
2044,2044,2046,2042,2054,2084,2080,2084
2033,2042,2042,2037,2031,2077,2072,2086
2029,2033,2039,2038,2024,2044,2075,2086
2030,2036,2034,2038,2036,2045,2065,2082
2031,2025,2029,2032,2044,2064,2076,2078
2039,2032,2041,2042,2062,2095,2095,2096
2055,2049,2049,2048,2062,2108,2088,2090
2048,2047,2045,2042,2047,2092,2070,2072
2046,2039,2045,2041,2035,2075,2055,2065
2044,2050,2057,2047,2032,2055,2051,2068
2045,2058,2069,2046,2031,2036,2044,2058
2041,2061,2066,2044,2027,2053,2041,2053
2044,2059,2057,2032,2000,2066,2020,2047
2045,2052,2055,2026,1979,2073,2017,2040
2045,2052,2047,2016,1963,2079,2010,2029
2037,2046,2044,2010,1944,2055,2009,2029
2043,2045,2043,2006,1950,2007,2001,2029
2046,2047,2046,2018,1971,1973,2011,2038
2047,2046,2043,2021,2023,1997,2008,2030
2053,2045,2052,2039,2084,2038,2044,2038
2053,2044,2056,2054,2117,2085,2042,2038
2054,2046,2059,2056,2097,2086,2048,2041
2055,2050,2062,2059,2100,2082,2061,2043
2060,2054,2059,2052,2077,2052,2053,2038
2056,2050,2053,2051,2080,2032,2058,2039
2058,2054,2056,2050,2073,2018,2063,2036
2053,2061,2059,2046,2059,2004,2043,2046
2065,2070,2060,2045,2032,1981,2064,2054
2072,2064,2060,2036,2012,1972,2064,2058
2076,2076,2067,2045,2011,1963,2060,2067
2071,2067,2069,2054,2023,1927,2046,2078
2063,2065,2072,2056,2059,1920,2049,2080
2063,2067,2070,2057,2089,1953,2065,2093
2066,2068,2067,2057,2085,2007,2066,2094
2060,2064,2066,2045,2040,2065,2066,2095
2062,2066,2063,2040,2024,2117,2057,2100
2052,2062,2053,2031,2049,2138,2065,2081
2046,2045,2040,2024,2045,2168,2052,2081
2043,2047,2042,2031,2055,2197,2071,2080
2041,2041,2033,2031,2064,2186,2078,2069
2043,2040,2029,2022,2054,2083,2068,2063
2039,2028,2023,2022,2030,2002,2040,2065
2047,2036,2026,2027,2016,2031,2050,2058
2041,2034,2028,2026,2002,2040,2059,2047
2035,2026,2020,2018,1990,2054,2050,2045
2032,2027,2022,2019,1985,2043,2070,2042
2032,2030,2029,2010,1961,2030,2077,2045
2039,2031,2025,2021,1959,2026,2089,2050
2044,2025,2019,2015,1958,2038,2100,2040
2045,2019,2014,2013,1974,2058,2094,2041
2037,2019,2017,2027,2008,2065,2089,2045
2040,2020,2017,2030,2021,2064,2074,2040
2036,2022,2012,2021,2022,2057,2080,2029
2025,2018,2013,2027,2049,2061,2066,2035
2030,2027,2024,2049,2120,2041,2062,2027
2034,2035,2033,2058,2133,2035,2052,2024
2033,2037,2043,2056,2107,2061,2045,2025
2040,2041,2041,2054,2082,2081,2065,2027
2044,2044,2043,2047,2068,2104,2064,2029
2044,2046,2051,2048,2075,2119,2051,2032
2045,2053,2056,2047,2075,2069,2036,2027
2034,2050,2054,2046,2065,2031,2026,2030
2033,2040,2054,2033,2039,2058,2043,2043
2044,2037,2051,2029,2012,2080,2044,2050
2036,2032,2049,2024,1995,2048,2032,2050
2034,2030,2052,2031,2001,2010,2002,2051
2033,2037,2049,2036,2024,1975,2008,2068
2044,2048,2061,2051,2051,1985,2025,2060
2045,2053,2060,2053,2062,2033,2051,2054
2039,2047,2054,2050,2051,2078,2064,2061
2040,2051,2047,2045,2041,2104,2054,2067
2054,2062,2057,2040,2039,2115,2053,2072
2058,2060,2067,2055,2033,2104,2072,2079
2071,2066,2063,2052,1996,2087,2074,2078
2073,2066,2065,2049,2013,2069,2077,2079
2074,2069,2069,2057,2019,2056,2061,2065
2071,2069,2062,2040,1993,2046,2067,2055
2060,2054,2044,2031,1996,2018,2050,2050
2046,2036,2023,2019,1974,1977,2025,2029
2031,2036,2024,2015,1961,1969,2034,2028
2037,2044,2032,2026,2006,1969,2042,2038
2044,2054,2039,2042,2059,1975,2045,2033
2049,2058,2045,2052,2069,1990,2047,2021
2039,2050,2041,2048,2129,2008,2056,2020
2046,2044,2040,2053,2186,2031,2062,2019
2045,2032,2031,2053,2204,2062,2077,2022
2049,2036,2030,2053,2206,2095,2090,2026
2058,2049,2037,2056,2214,2107,2081,2036
2061,2054,2038,2060,2195,2101,2063,2032
2058,2057,2033,2059,2209,2105,2071,2036
2055,2056,2033,2055,2193,2117,2071,2038
2057,2059,2037,2060,2151,2118,2054,2031
2048,2055,2039,2060,2034,2098,2035,2036
2034,2051,2035,2010,1865,2059,2033,2031
2029,2043,2031,1989,1836,2039,2052,2043
2035,2038,2031,2008,1895,2041,2053,2044
2045,2039,2049,2036,1963,2060,2069,2062
2052,2047,2057,2045,2026,2083,2052,2068
2054,2042,2065,2057,2084,2100,2051,2074
2065,2050,2066,2052,2116,2091,2061,2087
2058,2039,2058,2039,2097,2073,2047,2073
2047,2032,2050,2022,2032,2065,2052,2063
2045,2028,2051,2023,1996,2093,2050,2056
2039,2033,2049,2028,1982,2097,2052,2049
2038,2022,2050,2031,1968,2078,2043,2053
2034,2032,2055,2034,1952,2032,2045,2050
2037,2039,2057,2042,1948,1945,2025,2044
2035,2050,2058,2039,1939,1908,2012,2041
2035,2052,2055,2032,1949,1963,2034,2032
2045,2059,2047,2031,1993,2009,2027,2040
2054,2058,2041,2037,2039,2048,2061,2036
2053,2049,2038,2041,2052,2054,2062,2022
2046,2045,2035,2037,2052,2046,2051,2019
2042,2044,2033,2037,2025,2038,2049,2019
2043,2042,2024,2040,2018,2058,2019,2013
2045,2039,2026,2036,1992,2076,2046,2000
2031,2028,2021,2014,1943,2071,2027,1983
2028,2020,2020,2001,1912,2060,2018,1988
2028,2023,2021,2001,1930,2067,2042,2004
2054,2050,2037,2018,1954,2000,2038,2011
2061,2059,2043,2040,2043,1980,2034,2044
2063,2062,2049,2059,2128,2028,2040,2038
2062,2061,2050,2068,2142,2057,2049,2041
2054,2061,2048,2064,2133,2074,2066,2048
2057,2071,2049,2060,2104,2070,2052,2058
2059,2062,2045,2054,2100,2071,2064,2056
2063,2054,2031,2038,2126,2089,2056,2059
2057,2045,2026,2029,2113,2098,2048,2062
2041,2045,2034,2020,2065,2080,2042,2060
2048,2055,2055,2028,2059,2075,2045,2067
2049,2056,2057,2028,2072,2074,2037,2061
2041,2049,2058,2034,2072,2073,2043,2055
2045,2043,2059,2032,2065,2064,2062,2062
2041,2036,2049,2024,2057,2045,2051,2065
2037,2031,2051,2021,2058,2046,2053,2078
2036,2042,2050,2033,2070,2057,2050,2066
2041,2038,2046,2035,2070,2059,2052,2064
2041,2057,2033,2032,2049,2052,2051,2056
2049,2052,2037,2029,2031,2050,2041,2053
2049,2044,2031,2027,2026,2057,2044,2055
2045,2046,2025,2024,2042,2042,2034,2033
2037,2049,2020,2026,2045,2040,2029,2027
2038,2045,2012,2027,2040,2058,2044,2025
2044,2043,2012,2026,2038,2079,2034,2018
2050,2049,2012,2018,2031,2096,2045,2017
2046,2047,2014,2031,2056,2075,2055,2026
2052,2053,2017,2034,2090,2043,2048,2031
2053,2050,2016,2041,2093,2023,2039,2029
2042,2048,2013,2033,2075,1994,2026,2015
2033,2027,2006,2033,2076,1999,2023,2014
2034,2028,2014,2062,2097,2033,2046,2025
2042,2041,2046,2082,2098,2052,2058,2025
2047,2046,2060,2084,2082,2063,2040,2022
2053,2042,2057,2074,2076,2050,2051,2025
2051,2036,2057,2074,2054,2048,2050,2028
2041,2037,2041,2053,1942,2047,2032,2028
2044,2040,2045,2052,1949,2069,2052,2030
2047,2037,2043,2061,1996,2068,2053,2037
2041,2035,2044,2065,2038,2076,2051,2040
2048,2041,2044,2067,2062,2078,2046,2053
2048,2049,2046,2075,2074,2074,2030,2049
2050,2050,2049,2070,2063,2061,2023,2054
2044,2046,2042,2054,2056,2036,2021,2054
2039,2034,2034,2034,2050,2050,2023,2057
2045,2033,2026,2005,2064,2068,2037,2063
2039,2031,2028,1993,2058,2066,2059,2068
2048,2054,2065,2003,2036,2062,2059,2080
2060,2067,2077,1997,2016,2057,2053,2068
2059,2061,2065,1984,2007,2056,2044,2064
2045,2054,2057,1985,2003,2049,2051,2053
2044,2061,2063,1997,2011,2027,2052,2053
2064,2080,2076,2014,2012,2013,2054,2054
2073,2080,2076,2033,2026,2012,2060,2036
2059,2071,2069,2041,2110,2030,2055,2027
2046,2065,2069,2054,2123,2044,2060,2032
2049,2063,2063,2055,2090,2034,2068,2038
2060,2068,2052,2057,2056,2001,2055,2027
2046,2067,2046,2060,2035,1989,2055,2021
2045,2062,2041,2049,2076,2016,2058,2026
2044,2053,2034,2040,2142,2054,2068,2029
2045,2041,2025,2026,2136,2062,2039,2023
2035,2024,2019,2017,2115,2090,2042,2017
2041,2024,2022,2026,2132,2170,2043,2003
2029,2006,2008,2012,2111,2184,2021,2000
2015,2000,2007,2000,2081,2142,2001,1989
2007,1998,1995,1991,2060,2042,1992,1992
2021,2015,2024,2029,2113,2057,2033,2026
2046,2043,2069,2081,2125,2115,2079,2061
2060,2044,2077,2090,2060,2118,2101,2078
2062,2042,2063,2078,2072,2080,2094,2090
2066,2036,2051,2066,2058,2032,2065,2071
2049,2045,2049,2046,2035,2037,2066,2040
2031,2053,2047,2043,2017,2062,2063,2042
2042,2049,2049,2039,2005,2067,2061,2055
2055,2038,2049,2033,1994,2036,2048,2062
2058,2042,2046,2029,1977,1974,2043,2065
2057,2045,2041,2022,1971,1951,2024,2052
2046,2049,2042,2032,1976,2000,2039,2064
2040,2060,2058,2046,2011,2037,2056,2069
2048,2067,2065,2047,1975,2019,2050,2057
2047,2075,2069,2046,1950,1983,2039,2059
2045,2067,2064,2032,1974,1969,2012,2046
2032,2053,2056,2034,1983,1969,2042,2044
2031,2050,2053,2044,1937,1954,2030,2044
2040,2053,2049,2044,1968,1983,2044,2038
2049,2052,2045,2046,1997,2028,2057,2041
2056,2057,2060,2061,1966,2046,2058,2060
2068,2071,2066,2067,1952,2057,2061,2050
2064,2061,2056,2062,1942,2064,2041,2028
2041,2068,2054,2059,1962,2034,2035,2031
2048,2067,2051,2040,1992,2004,2021,2036
2058,2065,2051,2025,1977,2008,2056,2034
2059,2049,2041,1994,1856,2024,2043,2026
2051,2019,2018,1985,1907,2088,2047,2022
2032,2004,2012,1996,2040,2133,2077,2029
2038,2017,2024,2041,2201,2151,2089,2022
2041,2024,2028,2050,2268,2125,2071,2026
2053,2023,2029,2043,2255,2104,2074,2024
2054,2023,2029,2045,2234,2098,2070,2022
2057,2032,2040,2055,2232,2075,2062,2037
2048,2031,2032,2062,2201,2034,2028,2027
2025,2026,2027,2056,2162,2024,2020,2021
2021,2024,2030,2079,2252,2059,2020,2030
2028,2031,2032,2100,2239,2082,2032,2023
2029,2036,2036,2093,2181,2073,2020,2017
2022,2041,2043,2097,2116,2064,2029,2040
2028,2051,2047,2085,2109,2028,2024,2056
2040,2054,2043,2074,2108,1993,2019,2073
2049,2055,2038,2043,1988,1968,2003,2062
2043,2041,2024,1976,1776,1942,2007,2060
2044,2031,2021,1971,1772,1963,2016,2063
2072,2034,2031,1999,1939,2019,2024,2082
2093,2039,2033,2024,2044,2042,2021,2074
2084,2028,2025,2029,2103,2060,2048,2048
2065,2024,2021,2033,2159,2074,2039,2048
2076,2013,2037,2054,2214,2094,2064,2039
2065,2019,2048,2063,2250,2110,2049,2019
2045,2024,2052,2076,2269,2096,2054,2020
2025,2029,2053,2077,2220,2046,2036,2024
1994,2017,2036,2056,2163,2019,2020,2018
1980,2027,2034,2051,2130,2008,2002,2022
2003,2044,2032,2037,2061,1992,2005,2019
2021,2047,2030,2021,1997,2008,2022,2024
2040,2051,2038,2041,1956,2042,2063,2026
2063,2072,2059,2052,1866,2050,2064,2031
2075,2080,2057,2057,1922,2059,2068,2025
2061,2056,2044,2052,1987,2066,2073,2015
2055,2046,2038,2045,2003,2076,2065,2022
2072,2063,2046,2046,2017,2074,2057,2044
2091,2077,2054,2048,2021,2057,2054,2056
2101,2079,2060,2050,2028,2056,2075,2061
2108,2070,2051,2049,2032,2040,2048,2048
2099,2063,2052,2053,2023,2030,2056,2042
2094,2056,2053,2055,2041,2033,2042,2024
2078,2039,2043,2059,2062,2045,2035,2017
2056,2026,2037,2073,2088,2065,2014,2011
2044,2017,2036,2069,2098,2094,2014,2020
2019,2018,2031,2066,2097,2101,2036,2029
2002,2012,2022,2050,2064,2083,2043,2044
2013,2014,2018,2053,2039,2060,2033,2069
2024,2023,2017,2047,2035,2045,2030,2089
2038,2033,2029,2057,2047,2033,2032,2081
2029,2051,2038,2056,2037,2012,2022,2061
2007,2042,2027,2055,2027,2000,2011,2064
2031,2048,2028,2036,1962,1991,2028,2059
2041,2044,2036,2028,1898,2002,2029,2062
2053,2051,2049,2044,1929,2034,2062,2067
2059,2064,2061,2065,1972,2090,2086,2067
2055,2061,2051,2081,2055,2114,2098,2074
2066,2054,2039,2088,2111,2105,2078,2073
2075,2031,2030,2073,2117,2081,2064,2055
2078,2022,2022,2054,2077,2055,2060,2029
2055,2017,2018,2042,2053,2051,2035,2016
2022,2014,2017,2042,2054,2052,2033,2020
2015,2029,2026,2045,2098,2058,2045,2026
2012,2054,2041,2046,2107,2064,2051,2032
2014,2054,2035,2035,2085,2068,2066,2033
2031,2056,2036,2043,2080,2070,2070,2040
2043,2047,2031,2050,2060,2090,2070,2030
2052,2044,2029,2041,2072,2088,2051,2022
2051,2042,2026,2049,2097,2092,2050,2031
2051,2040,2031,2047,2049,2080,2058,2039
2064,2045,2031,2039,2002,2061,2074,2044
2058,2025,2011,2031,2016,2055,2072,2047
2035,2013,1997,2044,2071,2094,2089,2039
2030,2025,2008,2054,2108,2116,2086,2015
2028,2044,2030,2052,2081,2116,2080,2022
2054,2065,2049,2052,2064,2111,2077,2041
2067,2073,2043,2035,2051,2093,2071,2049
2047,2062,2041,2034,2049,2093,2060,2048
2041,2063,2043,2044,2062,2089,2069,2062
2029,2058,2047,2046,2057,2087,2056,2057
2013,2052,2047,2045,2086,2091,2034,2047
2004,2048,2054,2048,2097,2116,2056,2049
2003,2047,2061,2058,2129,2155,2048,2061
2015,2050,2051,2066,2129,2118,2080,2065
2033,2047,2049,2051,2052,2019,2072,2076
2053,2063,2057,2049,2022,1981,2059,2087
2070,2091,2079,2061,2026,1975,2046,2075
2058,2092,2072,2054,2014,2020,2060,2065
2049,2083,2063,2048,1996,2061,2062,2087
2051,2061,2047,2037,1976,2105,2046,2077
2058,2048,2036,2031,1960,2088,2025,2043
2041,2021,2017,2008,1913,2039,1994,2040
2036,2005,2004,1993,1898,2023,2001,2042
2027,2000,1999,2005,1951,2016,2017,2019
2038,2013,2022,2030,2041,2004,2031,2010
2049,2050,2065,2080,2110,2030,2051,2042
2076,2062,2076,2097,2127,2035,2060,2046
2065,2064,2072,2097,2090,2033,2054,2037
2042,2069,2062,2098,2067,2039,2057,2031
2048,2073,2063,2087,2046,2032,2057,2022
2044,2062,2050,2053,2019,2024,2026,2004
2018,2031,2012,2006,1934,2017,2002,1999
2016,2010,1990,1995,1973,2054,2020,2000
2015,1993,1986,2013,2015,2067,2027,1999
2013,1998,2001,2019,1997,2044,2040,2016
2037,2014,2004,2021,2027,2004,2047,2054
2065,2032,2017,2043,2116,1988,2040,2076
2069,2042,2035,2064,2212,2045,2066,2048
2069,2055,2059,2088,2267,2093,2082,2039
2065,2051,2073,2103,2299,2121,2055,2045
2056,2063,2092,2099,2257,2105,2053,2047
2049,2073,2099,2074,2173,2074,2049,2045
2046,2067,2098,2057,2112,2046,2038,2055
2037,2070,2085,2031,2044,2010,2020,2067
2055,2066,2083,2027,2054,2013,2022,2074
2066,2071,2084,2051,2072,2027,2019,2055
2054,2056,2068,2033,1933,2006,2024,2043
2064,2054,2053,2035,1900,1989,2022,2054
2064,2053,2038,2040,1920,1975,2035,2056
2040,2033,2038,2060,1945,1974,2039,2026
2001,2016,2035,2074,1990,2005,2031,2024
1999,2026,2049,2127,2111,2053,2051,2047
2035,2063,2076,2165,2208,2098,2061,2056
2060,2076,2085,2175,2222,2133,2079,2056
2049,2072,2058,2162,2170,2150,2085,2052
2041,2057,2036,2132,2129,2153,2080,2044
2041,2046,2013,2120,2091,2132,2065,2039
2040,2042,1985,2075,2004,2060,2017,2018
2026,2046,1979,2050,1909,1992,2022,2006
2021,2053,1983,2039,1951,1963,2018,2002
2024,2038,1967,2031,1982,1933,2017,2010
2028,2010,1957,2014,1997,1943,2024,2011
2031,2010,1963,2023,2080,1979,2022,2004
2033,2005,1965,2020,2131,2009,2026,2021
2030,1988,1954,2014,2138,2022,2038,2029
2038,1997,1972,1987,2098,2028,2029,2025
2029,2000,2003,1976,2041,2037,2021,2009
2034,2034,2059,1993,2029,2040,2005,2005
2028,2062,2090,2013,2070,2030,2018,1990
2011,2069,2111,2040,2119,2023,2047,2024
2042,2085,2128,2053,2154,2049,2066,2047
2058,2093,2123,2043,2171,2061,2058,2046
2060,2091,2116,2047,2193,2078,2055,2057
2056,2088,2093,2049,2207,2081,2073,2060
2052,2075,2082,2044,2196,2079,2091,2064
2048,2067,2065,2036,2135,2065,2084,2064
2046,2058,2059,2009,2006,2039,2071,2067
2049,2067,2066,2006,1988,1999,2061,2071
2044,2069,2078,2016,2029,2013,2059,2070
2043,2060,2075,2016,2012,2032,2045,2064
2033,2048,2055,2012,2024,2097,2060,2072
2043,2057,2067,2050,2134,2169,2071,2072
2048,2060,2080,2058,2145,2183,2062,2054
2036,2064,2074,2050,2123,2110,2057,2043
2034,2063,2072,2055,2135,1978,2043,2034
2037,2066,2064,2047,2122,1942,2020,2033
2038,2065,2053,2054,2114,1957,1997,2034
2043,2060,2055,2054,2025,1958,1993,2026
2043,2058,2049,2037,1921,1948,1996,2027
2059,2069,2063,2044,1846,2005,2040,2035
2069,2060,2053,2039,1884,2091,2061,2029
2062,2041,2041,2034,1969,2143,2067,2027
2051,2025,2031,2044,2005,2130,2064,2018
2048,2020,2023,2047,2017,2092,2064,2022
2064,2025,2026,2053,2020,2075,2045,2029
2077,2017,2017,2040,2025,2056,2052,2026
2071,2014,1991,2024,2043,2020,2027,2033
2061,1996,1966,2008,2067,2012,2026,2026
2034,1991,1969,1995,2043,2028,2039,1987
2036,2033,2014,2014,1977,2041,2036,1983
2063,2070,2043,2047,2009,2087,2059,2025
2060,2066,2030,2069,2110,2113,2058,2024
2042,2050,2027,2096,2179,2117,2055,2036
2046,2046,2039,2105,2213,2135,2054,2045
2038,2048,2034,2098,2192,2143,2072,2048
2032,2049,2022,2083,2128,2098,2055,2056
2028,2034,1999,2064,2105,2066,2025,2038
2012,2022,1988,2071,2108,2044,2027,2030
2012,2030,1999,2083,2110,2051,2025,2049
2024,2042,2004,2084,2042,2046,2037,2058
2019,2038,2008,2077,2000,2047,2032,2058
2004,2024,2000,2070,2030,2036,2006,2054
2003,2020,2013,2081,2064,2046,2012,2060
2016,2034,2042,2098,2088,2061,2026,2060
2027,2052,2065,2108,2109,2055,2022,2056
2026,2048,2065,2097,2107,2040,2012,2044
2029,2040,2078,2081,2086,2017,1998,2033
2028,2040,2080,2062,2068,1980,2001,2031
2031,2046,2078,2044,2060,1981,2006,2026
2035,2047,2071,2035,2057,1996,2028,2028
2038,2043,2056,2023,2055,2024,2049,2028
2034,2030,2048,2017,2058,2042,2059,2035
2034,2032,2049,2039,2073,2067,2076,2050
2047,2044,2054,2049,2060,2078,2083,2052
2046,2033,2048,2042,2015,2074,2073,2043
2055,2028,2040,2033,2006,2075,2064,2048
2055,2030,2044,2026,2012,2073,2072,2024
2028,2032,2043,2043,2027,2079,2052,2016
2043,2048,2071,2067,2046,2074,2053,2015
2041,2045,2081,2086,2057,2064,2025,1995
2022,2042,2074,2080,2046,2043,2035,2010
2040,2052,2070,2083,2027,2024,2016,2021
2051,2045,2063,2085,2012,2010,2006,2023
2029,2035,2066,2074,2036,2043,2026,2026
2028,2048,2080,2088,2078,2079,2038,2038
2035,2060,2085,2102,2094,2081,2020,2045
2034,2044,2076,2088,2086,2099,2053,2040
2020,2017,2066,2063,2046,2092,2046,2030
2015,2022,2070,2061,2038,2093,2039,2033
2032,2040,2076,2066,2008,2082,2044,2066
2050,2042,2060,2054,1978,2010,2006,2054
2043,2035,2042,2072,2047,1971,2031,2074
2061,2054,2061,2118,2093,2005,2044,2072
2059,2055,2057,2111,2074,2035,2034,2068
2056,2059,2063,2110,2102,2073,2049,2082
2076,2075,2075,2109,2097,2083,2039,2067
2071,2078,2065,2104,2086,2071,2029,2056
2052,2070,2052,2083,2103,2052,2031,2054
2039,2064,2035,2064,2108,2044,2037,2049
2032,2062,2021,2042,2087,2044,2033,2037
2024,2060,2031,2030,2066,2062,2024,2029
2037,2069,2050,2010,2059,2095,2026,2024
2038,2075,2061,2009,2059,2117,2024,2029
2044,2071,2056,1995,2044,2111,2042,2037
2048,2059,2032,1986,2043,2071,2037,2030
2046,2050,2020,2012,2066,2023,2035,2031
2050,2046,2006,2038,2092,2010,2047,2032
2057,2040,1993,2044,2106,2025,2046,2038
2050,2031,1978,2038,2096,2034,2046,2028
2038,2023,1964,2038,2094,2041,2035,2030
2045,2021,1965,2051,2091,2047,2052,2027
2039,2020,1964,2067,2100,2050,2047,2023
2024,2006,1960,2059,2097,2062,2038,2027
2031,2014,1975,2062,2101,2065,2041,2031
2042,2021,1998,2066,2105,2067,2037,2043
2054,2045,2041,2070,2098,2066,2038,2050
2067,2073,2077,2069,2081,2064,2046,2052
2061,2078,2099,2066,2064,2053,2051,2053
2058,2077,2116,2053,2050,2047,2041,2054
2065,2073,2122,2053,2046,2049,2040,2056
2045,2062,2116,2039,2031,2031,2046,2065
2035,2054,2101,2015,2010,2019,2035,2066
2032,2045,2090,2008,2023,2012,2010,2062
2024,2046,2092,2033,2052,2018,2021,2058
2026,2069,2106,2045,2060,2038,2036,2075
2041,2068,2095,2041,2060,2044,2053,2078
2032,2055,2074,2033,2065,2049,2042,2071
2028,2048,2082,2032,2069,2067,2043,2068
2032,2055,2080,2040,2068,2065,2055,2073
2047,2064,2090,2043,2060,2067,2055,2075
2054,2071,2087,2061,2062,2055,2059,2075
2058,2064,2093,2091,2060,2047,2053,2064
2056,2064,2106,2109,2059,2031,2059,2052
2058,2043,2094,2110,2060,2025,2046,2045
2069,2033,2068,2105,2060,2008,2044,2052
2090,2028,2045,2104,2045,2009,2032,2049
2101,2023,2035,2100,2058,2012,2010,2019
2083,2026,2035,2105,2081,2018,2003,1990
2064,2024,2030,2103,2084,2024,2030,1994
2054,2037,2032,2106,2082,2053,2049,2013
2037,2049,2029,2096,2057,2076,2044,2021
1994,2046,2003,2065,2007,2082,2040,2006
1995,2061,2003,2048,1981,2070,2013,2015
2040,2070,2009,2041,1979,2044,2029,2021
2035,2046,2003,2026,1969,1990,2033,2024
2047,2055,2019,2025,2053,2012,2047,2027
2043,2048,2039,2023,2094,2052,2064,2036
2051,2056,2068,2026,2093,2089,2086,2036
2057,2064,2105,2024,2079,2094,2082,2035
2043,2051,2096,2017,2052,2078,2065,2034
2047,2058,2104,2042,2069,2083,2069,2039
2054,2077,2120,2071,2086,2085,2063,2053
2039,2074,2110,2069,2065,2061,2048,2059
2032,2065,2100,2068,2101,2068,2053,2070
2028,2066,2083,2068,2101,2063,2038,2076
2025,2059,2065,2075,2083,2059,2043,2084
2038,2058,2064,2092,2079,2056,2042,2084
2044,2066,2059,2098,2087,2046,2039,2083
2038,2052,2052,2108,2096,2057,2041,2078
2039,2052,2044,2117,2108,2068,2067,2078
2044,2052,2039,2111,2103,2082,2051,2070
2036,2046,2037,2097,2068,2088,2053,2055
2037,2046,2030,2077,2021,2066,2043,2043
2034,2047,2025,2061,1972,2050,2017,2028
2037,2048,2030,2052,1933,2007,2004,2026
2032,2049,2031,2048,1943,1972,2001,2025
2023,2048,2029,2046,1996,1959,2006,2027
2024,2048,2036,2058,2079,1976,2038,2036
2043,2059,2065,2096,2174,2041,2060,2049
2058,2072,2101,2113,2200,2083,2086,2046
2057,2070,2112,2105,2183,2100,2078,2041
2062,2069,2140,2098,2150,2101,2072,2031
2068,2070,2156,2093,2103,2079,2049,2019
2055,2062,2153,2091,2080,2044,2041,2019
2053,2056,2149,2102,2071,2015,2026,2020
2055,2060,2141,2121,2080,2026,2025,2041
2057,2088,2158,2140,2098,2046,2045,2050
2052,2093,2152,2148,2107,2069,2050,2039
2041,2082,2130,2144,2109,2077,2058,2038
2032,2068,2095,2134,2099,2083,2056,2036
2032,2061,2068,2129,2102,2087,2081,2038
2046,2065,2058,2127,2108,2085,2086,2044
2044,2045,2044,2113,2087,2065,2083,2040
2042,2038,2018,2085,2045,2030,2041,2040
2032,2015,1997,2049,2018,2005,2044,2028
2030,2009,1993,2029,2009,1984,2030,2042
2034,2018,1988,2009,1997,1977,2035,2044
2010,2009,1988,1989,2007,1992,2040,2042
2012,2020,2009,2000,2039,2037,2060,2059
2014,2045,2030,2024,2073,2062,2058,2073
2027,2039,2015,2020,2084,2064,2054,2073
2029,2029,2003,2007,2069,2062,2061,2068
2033,2038,2039,2021,2078,2063,2049,2080
2056,2074,2086,2036,2089,2064,2046,2067
2056,2089,2105,2048,2111,2066,2038,2059
2057,2091,2097,2054,2104,2090,2032,2053
2062,2082,2078,2055,2096,2106,2030,2061
2068,2072,2061,2060,2092,2088,2059,2065
2051,2056,2056,2060,2083,2070,2043,2053
2054,2048,2058,2056,2080,2066,2058,2048
2053,2053,2057,2053,2078,2058,2051,2043
2050,2042,2050,2048,2073,2050,2045,2033
2041,2049,2044,2056,2069,2042,2042,2025
2042,2051,2044,2060,2066,2035,2036,2025
2041,2055,2048,2063,2066,2042,2048,2032
2050,2058,2046,2064,2060,2057,2052,2039
2045,2054,2052,2064,2053,2046,2030,2034
2044,2043,2045,2067,2049,2052,2047,2035
2048,2034,2029,2068,2061,2060,2053,2041
2055,2045,2029,2076,2062,2073,2048,2050
2058,2052,2036,2078,2070,2064,2054,2040
2055,2065,2044,2079,2073,2045,2053,2052
2069,2075,2050,2079,2070,2040,2080,2048
2059,2074,2049,2076,2076,2055,2074,2041
2038,2064,2054,2074,2099,2070,2077,2043
2050,2070,2049,2078,2101,2074,2076,2052
2052,2064,2033,2063,2083,2079,2063,2061
2052,2050,2026,2069,2082,2072,2072,2057
2046,2045,2020,2075,2085,2060,2070,2058
2039,2039,2025,2077,2089,2052,2061,2065
2038,2038,2020,2070,2083,2054,2046,2069
2040,2035,2023,2070,2068,2006,2021,2080
2033,2027,2034,2071,2069,2005,2058,2076
2023,2016,2036,2070,2064,2025,2051,2055
2023,2025,2057,2090,2067,2053,2069,2063
2042,2062,2087,2133,2083,2067,2078,2066
2046,2062,2098,2152,2088,2055,2052,2073
2053,2055,2098,2144,2074,2022,2046,2069
2053,2041,2067,2129,2066,2011,2044,2064
2045,2034,2045,2114,2066,2022,2049,2056
2055,2046,2053,2116,2073,2034,2025,2034
2040,2044,2041,2106,2063,2034,2032,2027
2027,2031,2017,2096,2051,2026,2024,2027
2028,2026,2015,2088,2042,2033,2032,2025
2030,2029,2019,2093,2042,2026,2031,2025
2040,2044,2033,2081,2038,2023,2050,2023
2043,2061,2053,2070,2037,2028,2034,2026
2039,2067,2054,2062,2037,2029,2014,2031
2047,2070,2056,2055,2038,2030,2025,2037
2047,2067,2048,2033,2028,2024,2032,2020
2038,2058,2040,2022,2026,2023,2023,2034
2042,2064,2052,2026,2039,2025,2044,2038
2053,2078,2054,2023,2044,2025,2064,2043
2043,2080,2067,2013,2036,2027,2045,2048
2057,2089,2082,2015,2025,2022,2044,2049
2063,2089,2085,2026,2033,2027,2033,2050
2052,2081,2086,2039,2037,2024,2042,2047
2048,2081,2098,2056,2052,2028,2041,2044
2049,2089,2112,2077,2060,2031,2041,2058
2050,2093,2118,2088,2067,2033,2024,2069
2054,2077,2118,2082,2067,2032,2046,2065
2053,2080,2106,2084,2084,2045,2044,2075
2045,2084,2089,2083,2083,2037,2050,2073
2041,2073,2067,2068,2078,2033,2034,2072
2044,2065,2054,2057,2072,2031,2062,2076
2039,2061,2048,2060,2062,2027,2043,2073
2032,2047,2043,2056,2063,2020,2040,2076
2031,2048,2048,2064,2065,2026,2052,2086
2037,2052,2048,2070,2072,2041,2056,2088
2041,2062,2044,2068,2072,2050,2088,2091
2054,2067,2053,2067,2065,2051,2060,2100
2057,2070,2048,2065,2057,2066,2084,2095
2063,2066,2048,2064,2055,2081,2063,2088
2057,2069,2047,2061,2029,2108,2044,2077
2054,2066,2041,2056,2013,2065,2018,2057
2052,2062,2041,2056,2009,1993,2034,2050
2043,2061,2036,2057,2013,1936,2050,2046
2044,2057,2028,2056,2023,1981,2056,2041
2046,2060,2031,2058,2040,2068,2061,2045
2051,2055,2031,2056,2043,2130,2070,2038
2049,2055,2028,2062,2042,2132,2064,2023
2054,2053,2028,2063,2045,2114,2051,2027
2047,2053,2034,2064,2045,2088,2030,2019
2048,2042,2025,2066,2046,2073,2047,2014
2043,2041,2037,2072,2049,2075,2040,2016
2050,2046,2050,2085,2047,2060,2036,2015
2048,2049,2060,2093,2052,2035,2034,2017
2046,2050,2052,2096,2050,2019,2033,2030
2043,2046,2042,2098,2058,2013,2035,2036
2048,2037,2005,2093,2057,2002,2053,2039
2045,2025,1987,2086,2047,2003,2038,2041
2045,2030,1994,2089,2054,2009,2056,2049
2052,2042,2003,2090,2053,2017,2052,2056
2062,2057,2013,2103,2052,2030,2043,2056
2053,2052,2015,2115,2045,2040,2025,2055
2050,2060,2036,2123,2052,2047,2011,2057
2049,2059,2039,2126,2048,2043,2032,2065
2043,2060,2039,2115,2038,2032,2042,2072
2042,2059,2036,2099,2036,2033,2032,2079
2043,2040,2017,2073,2020,2020,2010,2067
2037,2019,1998,2043,2010,2005,1998,2062
2023,2024,2022,2035,2015,2010,2003,2057
2027,2028,2039,2035,2012,2018,2022,2064
2040,2041,2062,2041,2033,2038,2041,2073
2047,2053,2092,2042,2035,2042,2032,2071
2049,2056,2107,2048,2030,2031,2013,2070
2045,2055,2110,2045,2030,2030,2021,2061
2050,2070,2124,2056,2044,2035,2038,2059
2061,2081,2128,2055,2052,2038,2049,2062
2060,2082,2110,2037,2043,2042,2055,2059
2066,2085,2100,2027,2047,2045,2054,2052
2066,2081,2096,2025,2052,2048,2034,2053
2067,2082,2082,2020,2052,2044,2042,2050
2060,2074,2059,2011,2048,2046,2041,2039
2058,2074,2033,2009,2057,2048,2060,2038
2050,2062,2023,2011,2061,2051,2063,2042
2045,2052,2015,2025,2059,2051,2070,2040
2046,2046,2015,2028,2059,2050,2055,2045
2050,2049,2038,2041,2062,2038,2073,2052
2058,2064,2051,2049,2063,2021,2078,2049
2060,2065,2056,2050,2057,2011,2061,2053
2062,2066,2065,2058,2058,2001,2051,2051
2057,2066,2068,2051,2034,1995,2047,2052
2053,2062,2065,2052,2015,1991,2049,2050
2052,2059,2068,2042,2004,1990,2046,2051
2049,2052,2065,2034,1990,1982,2038,2047
2049,2052,2056,2033,2006,2001,2016,2062
2040,2056,2068,2053,2049,2018,2043,2074
2061,2059,2069,2070,2083,2037,2059,2085
2069,2064,2067,2071,2099,2064,2047,2091
2068,2058,2059,2065,2105,2112,2056,2080
2058,2049,2053,2052,2074,2123,2055,2077
2053,2036,2032,2050,2066,2125,2036,2073
2034,2022,2033,2042,2053,2116,2047,2066
2032,2032,2039,2060,2060,2088,2059,2083
2047,2046,2062,2087,2071,2057,2055,2077
2056,2047,2056,2101,2080,2051,2049,2070
2051,2035,2040,2101,2071,2062,2060,2072
2055,2037,2027,2104,2078,2065,2056,2066
2053,2036,2011,2107,2079,2066,2056,2063
2055,2035,2012,2120,2077,2062,2045,2054
2056,2033,2019,2138,2076,2062,2040,2041
2056,2039,2020,2138,2078,2056,2050,2038
2051,2024,1996,2131,2070,2051,2035,2037
2042,2014,1971,2116,2063,2041,2023,2030
2038,2017,1959,2106,2060,2039,2035,2021
2039,2030,1968,2099,2057,2042,2033,2027
2044,2041,1986,2086,2055,2045,2035,2028
2045,2054,2014,2088,2053,2038,2016,2026
2044,2064,2018,2076,2040,2040,2010,2023
2032,2043,2007,2045,2025,2036,2028,2023
2032,2040,1999,2024,2023,2035,2038,2038
2034,2043,2021,1996,2010,2029,2031,2035
2040,2046,2061,1990,2007,2030,2042,2039
2051,2070,2106,1996,2017,2038,2049,2045
2067,2089,2149,2012,2036,2041,2054,2051
2072,2100,2152,2018,2031,2058,2038,2048
2063,2104,2151,2016,2037,2071,2053,2056
2067,2110,2153,2017,2043,2074,2050,2069
2072,2112,2153,2033,2056,2074,2053,2083
2076,2102,2142,2050,2054,2054,2050,2102
2081,2099,2119,2056,2044,2011,2052,2101
2087,2078,2096,2055,2052,2003,2076,2100
2078,2057,2073,2044,2040,2019,2072,2109
2082,2056,2073,2041,2046,2037,2064,2101
2074,2054,2066,2037,2040,2047,2053,2080
2057,2050,2061,2022,2023,2036,2033,2072
2050,2047,2052,2027,2021,2037,2040,2071
2043,2038,2042,2033,2027,2035,2045,2087
2045,2050,2051,2043,2027,2040,2044,2088
2053,2055,2063,2047,2027,2042,2050,2082
2050,2065,2064,2043,2033,2040,2050,2077
2059,2070,2058,2046,2039,2039,2040,2068
2053,2062,2050,2049,2060,2039,2051,2060
2057,2061,2055,2052,2066,2038,2059,2056
2063,2067,2057,2054,2071,2039,2053,2059
2059,2061,2054,2056,2066,2044,2051,2051
2060,2050,2052,2052,2068,2037,2049,2047
2056,2047,2043,2042,2047,2032,2058,2043
2061,2046,2038,2039,2042,2025,2043,2041
2058,2046,2038,2042,2040,2027,2037,2039
2044,2043,2038,2043,2047,2036,2039,2038
2037,2047,2037,2040,2043,2037,2045,2033
2037,2032,2024,2037,2036,2041,2020,2038
2039,2024,2025,2037,2043,2049,2032,2030
2047,2039,2028,2041,2050,2050,2036,2037
2058,2042,2025,2042,2046,2054,2038,2035
2042,2025,2025,2042,2040,2057,2062,2040
2047,2029,2036,2054,2043,2061,2080,2056
2053,2043,2052,2062,2054,2062,2083,2055
2056,2056,2050,2069,2051,2054,2050,2061
2056,2052,2050,2062,2041,2046,2041,2054
2052,2046,2058,2067,2043,2041,2048,2059
2054,2044,2053,2064,2047,2040,2052,2064
2061,2048,2053,2068,2052,2041,2046,2070
2064,2051,2046,2063,2048,2046,2045,2074
2061,2047,2035,2060,2032,2043,2035,2075
2055,2047,2031,2062,2038,2051,2057,2086
2062,2043,2018,2065,2036,2055,2058,2090
2062,2045,2016,2063,2037,2051,2043,2088
2065,2042,2020,2052,2028,2035,2056,2086
2072,2042,2030,2039,2025,2040,2072,2099
2076,2062,2041,2037,2024,2036,2062,2088
2069,2075,2067,2043,2026,2036,2059,2084
2071,2080,2080,2035,2014,2032,2045,2081
2066,2072,2074,2019,2012,2038,2061,2065
2053,2065,2066,2009,2009,2041,2061,2058
2050,2066,2069,2010,2007,2036,2073,2054
2057,2056,2059,2015,2005,2040,2044,2049
2058,2062,2067,2024,2008,2046,2064,2050
2063,2069,2070,2029,2012,2055,2048,2050
2062,2067,2070,2036,2016,2052,2023,2046
2056,2059,2058,2028,2008,2044,2026,2050
2055,2062,2060,2023,2009,2042,2036,2044
2064,2069,2073,2029,2009,2046,2062,2040
2065,2077,2069,2034,2019,2045,2054,2036
2073,2066,2063,2038,2021,2041,2039,2038
2060,2058,2060,2038,2024,2048,2025,2044
2054,2063,2073,2057,2046,2058,2061,2052
2068,2067,2064,2054,2047,2054,2036,2051
2069,2066,2061,2057,2050,2057,2050,2050
2069,2063,2061,2055,2051,2052,2052,2055
2063,2059,2062,2062,2049,2056,2049,2055
2064,2063,2068,2064,2058,2062,2049,2068
2070,2067,2064,2059,2059,2048,2057,2072
2062,2062,2057,2065,2056,2031,2057,2067
2059,2064,2055,2062,2047,2035,2048,2063
2059,2057,2056,2063,2053,2043,2042,2072
2053,2052,2056,2059,2051,2055,2048,2080
2056,2052,2056,2062,2055,2055,2043,2089
2060,2048,2047,2052,2042,2047,2036,2087
2059,2045,2043,2045,2035,2042,2045,2095
2060,2045,2040,2036,2017,2040,2037,2091
2047,2038,2036,2021,2007,2027,2033,2088
2050,2038,2035,2012,1989,2020,2039,2085
2052,2042,2038,2021,1987,2019,2047,2085
2055,2046,2046,2033,2001,2023,2041,2082
2056,2048,2044,2039,2005,2024,2052,2075
2057,2046,2044,2040,2004,2020,2041,2070
2066,2053,2050,2037,2005,2021,2031,2061
2056,2056,2045,2034,2010,2023,2040,2059
2063,2057,2046,2043,2014,2025,2061,2060
2064,2062,2043,2042,2013,2029,2051,2064
2067,2060,2045,2043,2014,2026,2050,2056
2062,2063,2045,2041,2009,2043,2050,2047
2068,2057,2045,2040,2016,2056,2042,2049
2062,2059,2052,2048,2018,2059,2043,2050
2060,2064,2063,2043,2017,2060,2037,2054
2064,2060,2063,2056,2012,2025,2040,2055
2066,2061,2062,2053,2004,1993,2014,2054
2068,2046,2060,2055,2009,2001,2017,2055
2069,2054,2067,2064,2025,2034,2053,2070
2072,2054,2066,2067,2040,2059,2061,2069
2068,2048,2048,2066,2047,2069,2078,2051
2055,2036,2031,2067,2049,2064,2053,2042
2037,2016,2013,2059,2049,2061,2049,2036
2026,2002,1995,2057,2040,2060,2054,2037
2027,2000,2001,2056,2040,2067,2040,2035
2036,2019,2012,2070,2048,2070,2073,2046
2040,2023,2018,2067,2041,2062,2066,2044
2045,2021,2010,2063,2043,2056,2067,2061
2053,2029,2006,2052,2042,2058,2072,2064
2044,2019,2004,2041,2041,2053,2065,2067
2046,2020,1998,2038,2038,2054,2068,2076
2045,2016,2003,2028,2032,2074,2052,2069
2046,2018,1998,2011,2022,2081,2041,2065
2034,2011,1989,1999,2001,2073,2061,2070
2028,2007,1990,1989,1988,2059,2038,2073
2037,2011,2000,1990,1995,2021,2050,2081
2037,2024,2028,2008,2020,1985,2065,2082
2054,2049,2053,2016,2032,2014,2065,2081
2062,2069,2063,2018,2025,2032,2060,2076
2062,2074,2051,2030,2020,2046,2046,2076
2060,2060,2031,2023,2018,2056,2042,2074
2063,2062,2021,2026,2014,2060,2059,2078
2069,2069,2039,2039,2021,2072,2050,2082
2083,2092,2069,2054,2028,2084,2066,2083
2089,2096,2085,2056,2032,2088,2074,2074
2087,2081,2082,2050,2028,2064,2052,2071
2082,2076,2068,2037,2019,2010,2062,2061
2064,2073,2071,2034,2025,2002,2047,2055
2069,2075,2080,2035,2035,2018,2050,2061
2073,2080,2083,2033,2032,2029,2045,2058
2068,2077,2093,2026,2020,2030,2042,2052
2061,2079,2087,2028,2024,2032,2045,2061
2060,2071,2082,2016,2016,2033,2059,2061
2066,2066,2083,2022,2017,2027,2067,2070
2073,2072,2086,2032,2030,2024,2057,2079
2082,2076,2084,2040,2025,2018,2063,2086
2079,2076,2088,2033,2016,2012,2050,2087
2071,2068,2074,2026,2018,2005,2065,2077
2061,2072,2077,2027,2025,2029,2054,2068
2056,2066,2083,2034,2035,2038,2084,2080
2065,2069,2082,2042,2032,2039,2037,2084
2062,2072,2089,2045,2030,2052,2063,2100
2068,2072,2087,2042,2033,2053,2051,2104
2066,2073,2080,2038,2032,2069,2055,2107
2062,2068,2072,2041,2035,2077,2051,2105
2056,2063,2069,2047,2035,2073,2027,2084
2048,2051,2072,2052,2037,2079,2032,2093
2053,2054,2077,2051,2045,2104,2066,2102
2057,2054,2069,2058,2037,2091,2081,2094
2061,2046,2057,2055,2034,2047,2035,2090
2055,2050,2046,2048,2031,2016,2041,2091
2062,2055,2031,2043,2021,2010,2048,2077
2061,2054,2028,2038,2013,2008,2054,2079
2062,2056,2023,2045,2012,2038,2072,2074
2056,2049,2022,2045,2025,2053,2064,2057
2047,2044,2012,2040,2026,2060,2062,2051
2052,2051,2002,2040,2027,2056,2065,2050
2054,2043,2004,2037,2029,2055,2061,2058
2067,2041,2004,2036,2026,2053,2069,2061
2067,2043,2005,2030,2025,2044,2057,2060
2069,2040,1995,2020,2017,2032,2063,2049
2062,2030,1979,2005,2008,2021,2014,2037
2042,2015,1956,1985,2000,2018,2013,2033
2048,2023,1982,1996,2009,2028,2046,2041
2069,2053,2013,2023,2028,2030,2040,2050
2065,2050,2023,2026,2027,2015,2024,2046
2051,2044,2015,2023,2019,2005,2004,2048
2035,2039,2005,2013,2017,1996,2007,2044
2036,2028,2000,2011,2024,2006,2016,2047
2048,2035,2010,2020,2033,2017,2040,2051
2042,2043,2044,2032,2033,2020,2050,2058
2037,2050,2064,2029,2035,2023,2045,2066
2030,2053,2081,2035,2037,2045,2058,2075
2040,2066,2095,2037,2045,2079,2067,2082
2042,2066,2097,2040,2054,2100,2061,2088
2048,2069,2084,2048,2056,2085,2044,2099
2049,2058,2074,2052,2036,2069,2044,2097
2048,2055,2063,2043,2022,2046,2027,2098
2041,2045,2055,2032,2003,2031,2029,2098
2036,2039,2052,2028,1996,2023,2034,2098
2042,2046,2056,2029,2005,2040,2029,2091
2044,2045,2060,2038,2035,2049,2045,2098
2041,2050,2063,2040,2034,2052,2049,2099
2043,2046,2065,2039,2026,2049,2046,2086
2051,2053,2073,2041,2017,2062,2029,2087
2049,2054,2088,2042,2000,2071,2047,2077
2052,2070,2108,2044,1983,2067,2040,2070
2056,2076,2114,2040,1985,2064,2039,2067
2058,2073,2110,2036,1982,2044,2059,2062
2052,2059,2085,2043,1998,2019,2045,2065
2058,2061,2085,2058,2036,2026,2057,2065
2063,2074,2085,2068,2056,2038,2058,2069
2064,2063,2080,2059,2043,2040,2044,2059
2053,2051,2070,2053,2043,2042,2028,2043
2049,2043,2059,2040,2032,2042,2003,2036
2040,2037,2068,2048,2034,2039,2030,2042
2034,2042,2083,2062,2046,2047,2042,2054
2043,2050,2085,2073,2043,2049,2068,2055
2059,2052,2084,2070,2049,2055,2039,2058
2056,2055,2076,2068,2042,2050,2062,2066
2051,2063,2068,2066,2043,2054,2059,2066
2058,2059,2062,2067,2039,2045,2075,2067
2059,2057,2057,2077,2048,2038,2068,2072
2061,2056,2051,2078,2039,2036,2059,2070
2063,2060,2046,2073,2030,2032,2058,2073
2062,2055,2040,2067,2032,2041,2063,2079
2060,2059,2045,2070,2034,2046,2056,2081
2058,2052,2046,2069,2035,2046,2051,2083
2048,2039,2043,2066,2032,2051,2043,2092
2048,2024,2039,2059,2032,2056,2046,2095
2042,2016,2032,2059,2027,2051,2040,2091
2030,2005,2013,2052,2020,2044,2046,2089
2032,2011,2022,2060,2036,2046,2051,2101
2054,2028,2036,2073,2035,2054,2047,2097
2062,2038,2047,2083,2045,2066,2068,2092
2076,2053,2055,2070,2054,2069,2082,2093
2075,2061,2047,2060,2056,2078,2071,2076
2065,2055,2039,2055,2068,2079,2056,2077
2067,2045,2017,2049,2059,2083,2068,2073
2059,2034,1988,2042,2045,2072,2053,2067
2056,2017,1961,2013,1994,2039,2040,2060
2038,1993,1923,1971,1932,2013,2038,2042
2019,1978,1913,1952,1900,2002,2003,2027
2023,1998,1960,1966,1896,1999,2036,2031
2034,2033,2017,1986,1910,2002,2035,2035
2029,2033,2030,1989,1918,1985,2031,2029
2033,2037,2039,2005,1955,1988,2053,2043
2040,2044,2048,2024,2002,2024,2036,2044
2041,2050,2055,2047,2042,2043,2074,2057
2054,2056,2060,2061,2065,2066,2069,2061
2060,2056,2045,2049,2070,2076,2070,2061
2055,2047,2034,2048,2067,2063,2071,2055
2054,2042,2025,2035,2052,2057,2063,2066
2058,2033,2019,2024,2043,2058,2066,2068
2049,2035,2020,2010,2034,2066,2087,2072
2043,2030,2025,2009,2042,2067,2084,2070
2047,2031,2032,2005,2036,2065,2071,2077
2057,2043,2050,2005,2032,2055,2054,2081
2057,2049,2063,2011,2038,2055,2065,2080
2054,2046,2069,2024,2042,2047,2050,2091
2060,2044,2064,2033,2036,2039,2052,2106
2065,2046,2075,2036,2037,2048,2056,2106
2056,2053,2082,2030,2034,2059,2057,2090
2048,2053,2075,2022,2012,2044,2048,2086
2045,2044,2064,2024,1991,2055,2023,2088
2044,2055,2067,2023,1972,2060,2045,2085
2058,2067,2085,2041,1968,2039,2034,2083
2071,2081,2095,2064,1999,2026,2034,2089
2077,2080,2082,2077,2044,2031,2050,2093
2080,2076,2077,2091,2079,2024,2060,2103
2081,2084,2068,2102,2096,2045,2054,2092
2076,2073,2060,2103,2098,2058,2080,2083
2068,2064,2059,2107,2086,2060,2073,2072
2067,2064,2062,2118,2078,2054,2045,2060
2062,2061,2043,2119,2096,2052,2062,2057
2054,2050,2048,2113,2103,2056,2068,2065
2053,2056,2064,2093,2086,2045,2074,2058
2055,2046,2053,2061,2063,2040,2051,2057
2055,2044,2048,2036,2040,2033,2044,2055
2058,2042,2041,2016,2030,2033,2052,2044
2046,2022,2023,2016,2042,2041,2048,2044
2045,2021,2011,2027,2057,2058,2053,2053
2050,2037,2018,2033,2060,2062,2075,2057
2064,2061,2043,2051,2053,2073,2048,2061
2068,2076,2071,2058,1983,2064,2047,2061
2068,2076,2087,2041,1917,2044,2059,2067
2064,2070,2082,2022,1980,2041,2044,2067
2062,2061,2074,2006,2021,2035,2045,2061
2059,2058,2070,2014,2036,2041,2047,2068
2058,2058,2074,2040,2032,2035,2049,2074
2056,2055,2068,2036,2029,2028,2047,2085
2056,2052,2065,2032,2012,2024,2039,2091
2051,2049,2060,2040,2019,2019,2059,2097
2056,2051,2073,2057,2030,2032,2060,2106
2060,2061,2100,2080,2059,2039,2048,2102
2059,2060,2109,2088,2068,2035,2024,2100
2049,2047,2105,2084,2064,2042,2052,2099
2050,2051,2098,2090,2075,2060,2079,2106
2061,2060,2085,2092,2071,2057,2059,2103
2057,2058,2074,2085,2043,2044,2055,2096
2052,2058,2064,2079,2014,2032,2057,2085
2052,2054,2054,2074,1986,2037,2058,2083
2051,2054,2052,2069,1969,2054,2051,2073
2057,2051,2052,2074,1998,2053,2053,2073
2060,2058,2057,2093,2049,2045,2044,2072
2062,2058,2052,2094,2052,2045,2042,2066
2054,2055,2048,2085,2038,2054,2040,2058
2051,2051,2053,2064,2028,2059,2053,2051
2052,2047,2055,2033,2005,2066,2051,2049
2051,2042,2061,2010,1989,2081,2061,2050
2056,2049,2057,1978,1987,2077,2054,2044
2059,2047,2053,1952,1989,2049,2057,2040
2056,2034,2042,1953,1976,2023,2070,2044
2051,2032,2032,1962,1922,1994,2029,2053
2061,2042,2049,1989,1952,1983,2052,2052
2060,2044,2047,2023,2015,2009,2045,2052
2053,2043,2047,2052,2082,2040,2050,2056
2057,2039,2053,2072,2105,2059,2055,2060
2057,2036,2048,2064,2101,2052,2056,2045
2046,2023,2034,2037,2061,2046,2045,2037
2024,2010,2030,2016,2067,2043,2036,2036
2024,2003,2031,2029,2089,2059,2046,2051
2028,2010,2041,2045,2091,2044,2040,2061
2029,2012,2046,2029,2016,2022,2032,2065
2031,2012,2045,2036,2004,2014,2021,2071
2034,2005,2038,2051,2033,2003,2015,2076
2036,2005,2035,2051,2030,2021,2033,2083
2036,2006,2011,2038,2011,2018,2019,2086
2023,1983,1975,1997,1924,2007,2009,2081
2022,1979,1970,1973,1862,2016,2034,2087
2044,2019,2006,1994,1926,2038,2037,2090
2057,2051,2034,2010,1968,2050,2069,2091
2060,2059,2040,2014,2005,2051,2050,2089
2057,2061,2045,2014,2011,2051,2055,2080
2060,2062,2053,2021,2011,2065,2070,2079
2059,2061,2044,2016,2026,2070,2071,2073
2059,2059,2032,2010,2036,2071,2074,2073
2057,2053,2026,1998,2037,2054,2070,2063
2054,2046,2016,1995,2045,2050,2042,2055
2063,2045,2018,2007,2048,2055,2053,2054
2057,2040,2039,2019,2046,2058,2065,2040
2044,2056,2071,2032,2055,2046,2045,2037
2056,2067,2092,2052,2022,2026,2043,2047
2063,2066,2085,2051,1960,1989,2044,2044
2045,2046,2057,2031,1909,1959,2035,2032
2036,2042,2045,2019,1875,1961,2035,2027
2040,2049,2043,2023,1915,1997,2049,2026
2040,2046,2046,2056,2002,2039,2066,2043
2050,2060,2060,2086,2047,2053,2083,2061
2061,2071,2067,2082,2041,2056,2060,2068
2059,2069,2059,2075,2044,2078,2057,2080
2065,2073,2059,2081,2089,2113,2059,2084
2071,2068,2052,2076,2124,2141,2094,2079
2059,2053,2037,2062,2145,2171,2079,2076
2050,2032,2024,2051,2148,2158,2069,2090
2055,2030,2025,2055,2138,2104,2062,2087
2056,2032,2032,2060,2139,2003,2057,2083
2057,2044,2062,2077,2124,1993,2049,2096
2061,2059,2088,2078,2102,2032,2062,2101
2065,2062,2097,2073,2059,2040,2055,2093
2047,2045,2084,2049,2008,2031,2045,2100
2039,2043,2090,2050,1925,2025,2044,2105
2051,2057,2103,2060,1863,2025,2065,2111
2060,2069,2103,2068,1923,2008,2064,2097
2061,2069,2090,2065,1993,2007,2053,2078
2057,2058,2077,2063,2006,2024,2037,2065
2047,2045,2063,2062,1989,2039,2029,2047
2035,2035,2045,2054,1965,2036,2034,2035
2035,2028,2031,2050,1961,2036,2049,2036
2040,2032,2033,2060,2003,2018,2036,2041
2052,2043,2042,2068,2040,2024,2059,2041
2051,2040,2038,2071,2061,2050,2052,2043
2053,2049,2038,2078,2045,2080,2071,2041
2046,2045,2031,2069,2006,2103,2064,2033
2049,2039,2016,2039,1926,2089,2064,2027
2043,2036,2015,2031,1896,2083,2064,2034
2046,2037,2016,2043,1893,2068,2068,2033
2050,2034,2027,2059,1960,2027,2073,2051
2057,2048,2046,2086,2034,2013,2067,2056
2058,2053,2064,2089,2122,2033,2068,2049
2051,2054,2078,2069,2163,2029,2044,2044
2047,2053,2078,2036,2140,2016,2049,2053
2049,2050,2076,2033,2043,2015,2042,2060
2066,2059,2082,2055,2047,2022,2042,2070
2073,2063,2088,2062,2019,2020,2042,2066
2069,2051,2078,2063,2026,2023,2047,2067
2062,2054,2082,2080,2046,2033,2051,2052
2056,2064,2087,2078,2021,2028,2045,2047
2042,2046,2072,2037,1954,1999,2030,2049
2030,2034,2054,2019,1940,1992,2025,2065
2036,2037,2043,2014,1942,2012,2031,2085
2041,2037,2037,1998,1926,2026,2052,2089
2041,2038,2037,1994,1934,2038,2061,2088
2051,2044,2045,2009,2003,2052,2075,2093
2059,2053,2050,2028,2084,2093,2080,2090
2056,2051,2051,2044,2145,2158,2080,2081
2052,2050,2055,2051,2185,2188,2055,2070
2042,2052,2050,2051,2208,2191,2080,2061
2043,2050,2048,2041,2157,2152,2044,2060
2045,2046,2039,2020,2096,2051,2039,2066
2051,2054,2038,2036,2072,1946,2050,2078
2059,2054,2044,2049,2051,1948,2054,2054
2049,2040,2043,2052,2051,1988,2049,2042
2043,2029,2037,2061,2074,2006,2029,2032
2038,2028,2034,2051,2041,1991,2018,2027
2033,2028,2032,2019,1823,1963,1999,2024
2031,2030,2029,2014,1776,1956,2031,2020
2033,2035,2037,2030,1834,1977,2043,2030
2046,2039,2037,2037,1944,2017,2051,2040
2043,2032,2035,2069,2059,2037,2035,2025
2036,2034,2043,2082,2075,2058,2041,2035
2038,2033,2044,2077,2080,2068,2061,2037
2042,2031,2036,2052,2079,2067,2076,2047
2043,2036,2029,2029,2061,2069,2073,2045
2041,2034,2035,2026,2081,2086,2070,2052
2045,2040,2043,2022,2068,2080,2074,2060
2041,2039,2040,2013,2068,2073,2074,2059
2033,2028,2032,2014,2077,2062,2067,2056
2033,2029,2044,2016,2054,2040,2079,2071
2048,2033,2052,2021,1988,2031,2063,2088
2052,2043,2057,2048,2055,2044,2060,2090
2048,2041,2053,2082,2221,2066,2056,2080
2043,2048,2068,2103,2241,2078,2056,2081
2042,2055,2088,2100,2215,2075,2048,2080
2040,2054,2087,2094,2149,2069,2038,2078
2046,2065,2078,2088,2102,2071,2047,2100
2063,2068,2078,2107,2108,2079,2057,2091
2065,2069,2073,2112,2086,2059,2051,2089
2056,2064,2061,2094,1999,2034,2034,2080
2055,2050,2046,2074,1978,2001,2016,2066
2047,2050,2043,2045,1920,1981,2013,2058
2042,2044,2042,2023,1876,2001,2029,2046
2035,2037,2029,1989,1833,2028,2018,2032
2032,2022,2010,1998,1935,2029,2029,2016
2022,2014,2013,2054,2046,2063,2042,2010
2024,2018,2032,2077,2071,2065,2043,2005
2021,2026,2051,2083,2056,2022,2039,2009
2036,2038,2057,2063,2023,2008,2042,2026
2034,2038,2050,2040,2041,2053,2062,2024
2043,2036,2053,2038,2051,2080,2077,2027
2046,2042,2060,2041,2045,2082,2064,2036
2054,2050,2057,2036,2040,2076,2064,2028
2057,2044,2042,2032,2045,2074,2076,2030
2057,2042,2035,2032,2036,2054,2053,2027
2046,2034,2040,2035,2049,2042,2042,2016
2041,2026,2034,2022,2074,2041,2033,2014
2035,2028,2046,2033,2088,2024,2041,2027
2044,2046,2052,2041,2102,2032,2042,2042
2040,2040,2051,2046,2110,2033,2050,2046
2031,2030,2036,2041,2092,2045,2040,2053
2041,2026,2033,2043,2070,2067,2073,2056
2040,2019,2030,2048,2059,2068,2056,2063
2035,2022,2046,2065,2062,2065,2046,2068
2031,2040,2072,2076,2056,2056,2058,2075
2044,2049,2082,2085,2045,2016,2038,2088
2051,2055,2076,2094,2031,2004,2049,2085
2043,2037,2050,2078,2002,1997,2041,2073
2042,2035,2045,2069,2017,2006,2028,2068
2049,2032,2035,2058,2041,2028,2037,2071
2054,2032,2027,2053,2052,2027,2042,2063
2053,2035,2035,2060,2063,2042,2046,2060
2055,2042,2042,2062,2058,2049,2040,2058
2060,2044,2041,2038,2036,2066,2044,2052
2059,2036,2030,2012,2023,2059,2035,2046
2053,2021,2006,2002,2016,2043,2037,2029
2031,2006,1997,1994,2016,2031,2034,2011
2030,2010,2000,2007,2014,2029,2048,2020
2029,2014,2001,2007,2026,2028,2047,2046
2035,2006,1994,2012,2031,2035,2038,2040
2046,2013,1988,2012,2030,2022,2049,2025
2043,2008,1994,2018,2030,2014,2053,2031
2038,2015,1995,2018,2029,1994,2043,2028
2040,2004,1996,2020,2020,1983,2032,2013
2037,2003,2000,2026,2024,1987,2023,2004
2043,2017,2009,2034,2039,2013,2047,2028
2049,2026,2016,2036,2058,2049,2043,2033
2057,2032,2019,2033,2066,2090,2057,2044
2051,2034,2020,2035,2069,2113,2050,2046
2052,2030,2010,2028,2048,2088,2051,2041
2052,2025,1994,2025,2050,2074,2045,2041
2056,2025,1990,2024,2051,2058,2025,2037
2056,2026,1992,2019,2050,2054,2021,2045
2056,2025,2007,2036,2053,2050,2044,2061
2057,2035,2036,2048,2049,2050,2032,2064
2059,2043,2066,2064,2061,2058,2019,2070
2045,2060,2096,2077,2063,2064,2022,2075
2049,2071,2106,2093,2048,2070,2024,2076
2050,2074,2110,2100,2057,2068,2036,2084
2053,2068,2096,2089,2063,2067,2039,2078
2052,2052,2100,2079,2059,2067,2057,2081
2058,2050,2096,2080,2060,2070,2066,2081
2060,2048,2091,2072,2049,2051,2056,2080
2062,2037,2076,2069,2027,2038,2049,2076
2049,2033,2059,2063,2023,2042,2040,2070
2051,2053,2072,2068,2039,2061,2006,2046
2042,2064,2071,2059,2034,2058,2017,2036
2033,2054,2044,2037,2014,2046,2027,2028
2030,2042,2035,2030,2037,2062,2007,2029
2044,2047,2040,2031,2038,2082,2021,2030
2053,2050,2037,2029,2030,2085,2030,2040
2060,2044,2009,2013,2026,2072,2033,2034
2049,2037,2012,2015,2029,2043,2036,2027
2042,2044,2013,2017,2055,2030,2037,2027
2045,2040,2002,2016,2082,2048,2060,2036
2055,2037,1987,2028,2088,2054,2056,2033
2055,2026,1975,2025,2069,2056,2056,2018
2049,2016,1986,2024,2070,2059,2047,2026
2065,2038,2018,2074,2101,2068,2042,2036
2079,2047,2046,2101,2123,2085,2060,2035
2070,2039,2052,2106,2093,2093,2066,2026
2065,2035,2058,2106,2081,2095,2052,2020
2059,2032,2062,2102,2087,2078,2046,2022
2045,2021,2053,2090,2102,2069,2059,2033
2043,2030,2067,2089,2133,2060,2063,2047
2046,2052,2092,2089,2143,2053,2056,2052
2048,2055,2088,2077,2117,2031,2054,2048
2053,2041,2070,2064,2105,2013,2038,2045
2044,2026,2047,2038,2016,2001,2037,2050
2027,2006,2021,2001,1868,2001,2009,2053
2017,2009,2016,2005,1893,2025,2033,2070
2026,2023,2036,2018,1940,2030,2015,2070
2030,2042,2053,2024,1980,2045,2013,2076
2035,2052,2073,2037,2018,2064,2029,2074
2058,2072,2098,2051,2039,2069,2051,2077
2062,2078,2108,2053,2027,2056,2023,2073
2064,2072,2095,2041,2001,2016,2038,2057
2064,2068,2078,2038,1980,1980,2023,2060
2062,2061,2061,2030,1980,1982,2029,2047
2051,2049,2045,2028,1999,2013,2014,2028
2042,2044,2041,2038,2042,2049,2022,2026
2044,2046,2045,2052,2050,2061,2045,2024
2053,2049,2046,2058,2042,2059,2045,2022
2050,2053,2049,2057,2024,2038,2034,2014
2044,2047,2047,2047,2010,2009,2046,2008
2039,2038,2045,2049,2037,2018,2050,2007
2040,2033,2053,2062,2095,2053,2060,2008
2046,2051,2072,2062,2126,2088,2076,2010
2044,2051,2073,2063,2142,2125,2083,2023
2056,2055,2076,2067,2128,2142,2078,2028
2055,2058,2069,2052,2105,2158,2068,2028
2053,2054,2055,2052,2092,2173,2083,2032
2039,2055,2056,2059,2076,2160,2078,2029
2051,2046,2062,2058,2066,2073,2050,2022
2047,2049,2058,2057,2065,1973,2019,2026
2045,2040,2055,2054,2064,1979,2007,2035
2045,2042,2054,2052,2075,2031,2025,2039
2050,2043,2051,2058,2073,2055,2033,2042
2051,2043,2051,2058,2080,2061,2029,2053
2058,2047,2045,2059,2077,2053,2031,2051
2048,2038,2039,2053,2071,2045,2016,2060
2042,2029,2025,2047,2055,2038,2004,2059
2035,2019,2018,2039,2048,2039,2032,2061
2036,2025,2013,2033,2042,2043,2043,2046
2022,2018,2018,2029,2028,2053,2047,2053
2028,2025,2032,2037,2008,2053,2055,2064
2042,2034,2028,2033,1997,2052,2041,2056
2037,2036,2022,2025,1981,2067,2050,2043
2032,2044,2032,2026,1987,2078,2046,2043
2044,2060,2048,2038,2012,2093,2056,2043
2045,2054,2042,2033,2028,2093,2056,2032
2045,2047,2028,2036,2056,2066,2053,2035
2050,2045,2031,2046,2086,2037,2070,2038
2038,2051,2041,2056,2093,2068,2061,2026
2043,2049,2052,2053,2064,2079,2071,2027
2047,2055,2061,2060,2118,2076,2078,2027
2047,2053,2063,2074,2172,2095,2066,2019
2051,2061,2063,2077,2218,2128,2068,2026
2060,2064,2066,2084,2226,2120,2058,2025
2059,2060,2070,2079,2194,2073,2029,2020
2043,2052,2063,2079,2170,2032,2027,2021
2048,2054,2084,2102,2195,2029,2051,2031
2057,2070,2093,2108,2172,2040,2058,2028
2049,2060,2094,2073,2086,2038,2054,2025
2052,2054,2085,2041,1992,2013,2047,2025
2049,2051,2079,2012,1872,1979,2056,2029
2037,2044,2076,2000,1769,1968,2049,2010
2032,2051,2077,2010,1799,1973,2042,2016
2041,2054,2066,2028,1892,1989,2045,2051
2057,2044,2064,2035,1953,2021,2061,2055
2057,2052,2063,2049,1971,2032,2063,2053
2051,2054,2063,2041,1971,2031,2062,2060
2051,2055,2065,2040,2002,2033,2038,2057
2049,2050,2058,2036,1987,2048,2039,2059
2057,2051,2059,2032,1985,2074,2050,2076
2050,2053,2056,2040,1997,2084,2062,2064
2044,2037,2044,2033,2000,2076,2038,2064
2037,2031,2038,2031,2055,2055,2039,2066
2044,2049,2060,2043,2113,2032,2064,2068
2051,2043,2061,2060,2155,2057,2067,2069
2039,2035,2047,2057,2196,2086,2059,2060
2032,2032,2040,2043,2190,2073,2047,2050
2029,2028,2037,2040,2142,2035,2029,2040
2037,2027,2036,2040,2089,2011,2034,2035
2038,2038,2043,2044,2040,2009,2029,2031
2049,2035,2045,2044,2028,2010,2021,2030
2050,2043,2049,2040,2031,2002,2033,2034
2052,2044,2054,2047,2029,2011,2035,2026
2054,2042,2051,2050,2035,2027,2055,2019
2040,2048,2050,2037,2009,2032,2061,2013
2041,2041,2039,2023,1990,2032,2062,2017
2043,2045,2034,2019,1997,2045,2047,2018
2044,2036,2032,2022,1998,2037,2060,2013
2045,2031,2046,2019,1989,2044,2043,2016
2035,2036,2042,2019,1986,2060,2047,2012
2035,2037,2036,2028,1994,2066,2046,2018
2035,2029,2036,2033,2015,2066,2030,2023
2042,2029,2030,2033,2013,2043,2033,2037
2049,2028,2022,2039,2018,2030,2046,2045
2050,2022,2027,2049,2034,2039,2058,2040
2039,2024,2031,2055,2051,2056,2039,2031
2036,2018,2040,2059,2058,2063,2043,2044
2037,2017,2034,2062,2042,2053,2049,2043
2033,2013,2034,2070,2082,2064,2048,2053
2039,2023,2043,2090,2147,2073,2056,2061
2046,2029,2049,2087,2108,2054,2042,2070
2048,2027,2045,2070,2061,2032,2034,2072
2053,2029,2051,2065,2055,2039,2042,2078
2055,2029,2038,2055,2050,2042,2039,2070
2059,2027,2022,2048,2038,2037,2023,2073
2057,2030,2011,2038,2025,2031,2016,2064
2048,2022,1998,2031,2019,2034,2022,2052
2046,2019,1998,2020,2012,2023,2027,2041
2040,2020,2010,1999,2025,2012,2036,2031
2043,2017,2013,1993,2053,2000,2033,2030
2039,2025,2032,1990,2038,2012,2025,2038
2046,2052,2047,2009,2059,2040,2062,2047
2059,2060,2044,2024,2076,2052,2048,2046
2065,2065,2043,2032,2079,2048,2038,2044
2062,2058,2031,2021,2065,2033,2063,2046
2064,2053,2030,2026,2086,2035,2069,2035
2060,2055,2045,2034,2084,2048,2074,2035
2055,2061,2060,2044,2071,2043,2051,2023
2050,2059,2059,2040,2037,2038,2055,2013
2052,2049,2045,2039,2041,2055,2059,2007
2044,2037,2039,2042,2061,2090,2066,2009
2051,2053,2049,2052,2085,2155,2074,2014
2056,2062,2060,2055,2100,2159,2073,2022
2060,2063,2054,2051,2096,2127,2067,2019
2057,2052,2040,2041,2083,2101,2043,2016
2047,2046,2038,2044,2067,2044,2019,2019
2054,2043,2039,2042,2060,1991,2023,2019
2046,2053,2047,2048,2059,1976,2023,2026
2043,2048,2046,2051,2069,2000,2044,2036
2045,2045,2043,2049,2077,2013,2040,2054
2052,2047,2037,2047,2076,2031,2041,2040
2042,2044,2044,2042,2071,2039,2037,2037
2028,2038,2047,2041,2060,2037,2052,2064
2038,2043,2042,2044,2068,2043,2045,2073
2045,2047,2040,2044,2064,2046,2050,2071
2049,2034,2033,2036,2056,2042,2048,2068
2041,2028,2034,2033,2051,2052,2052,2067
2039,2038,2033,2039,2058,2056,2066,2063
2039,2043,2036,2036,2057,2055,2070,2059
2038,2042,2034,2035,2050,2052,2060,2052
2045,2037,2024,2038,2048,2044,2057,2044
2040,2034,2018,2041,2048,2041,2062,2040
2038,2031,2014,2039,2046,2041,2060,2038
2046,2028,2011,2042,2049,2044,2055,2031
2043,2029,2006,2044,2052,2042,2052,2033
2049,2026,2009,2048,2051,2040,2057,2027
2048,2032,2010,2057,2056,2041,2052,2022
2045,2037,2019,2052,2057,2046,2053,2017
2039,2035,2020,2062,2051,2038,2046,2006
2046,2023,2016,2057,2053,2037,2044,2013
2042,2032,2015,2056,2048,2039,2054,2014
2037,2027,2013,2051,2040,2030,2039,2012
2036,2025,2012,2054,2052,2030,2028,2019
2040,2032,2014,2056,2056,2037,2027,2017
2041,2030,2007,2046,2048,2033,2045,2021
2040,2024,2010,2038,2048,2032,2034,2026
2042,2025,2016,2028,2038,2033,2048,2023
2042,2035,2033,2020,2036,2038,2032,2026
2043,2038,2043,2028,2049,2040,2057,2023
2047,2042,2046,2035,2057,2043,2065,2034
2045,2043,2061,2040,2055,2051,2071,2037
2050,2048,2072,2048,2054,2071,2070,2048
2056,2054,2069,2051,2049,2069,2065,2049
2061,2051,2065,2056,2050,2071,2077,2057
2054,2052,2063,2052,2056,2063,2052,2063
2045,2041,2055,2054,2045,2055,2036,2066
2043,2037,2054,2054,2032,2051,2054,2063
2044,2036,2047,2048,2025,2044,2029,2055
2040,2036,2039,2048,2034,2041,2029,2062
2046,2049,2047,2054,2037,2049,2036,2059
2046,2048,2044,2054,2045,2046,2046,2055
2044,2045,2041,2057,2072,2048,2060,2060
2042,2044,2056,2063,2087,2065,2067,2045
2044,2047,2058,2065,2091,2062,2062,2051
2047,2047,2058,2053,2069,2059,2063,2043
2047,2048,2064,2047,2060,2051,2071,2036
2045,2041,2062,2043,2049,2047,2050,2035
2043,2042,2055,2037,2042,2047,2056,2037
2043,2041,2063,2044,2034,2059,2068,2036
2048,2040,2056,2048,2035,2076,2063,2030
2050,2035,2051,2059,2041,2096,2075,2037
2045,2039,2047,2068,2042,2108,2078,2035
2052,2044,2032,2055,2035,2108,2080,2024
2050,2044,2026,2059,2037,2083,2067,2017
2042,2042,2032,2054,2016,2030,2056,2013
2043,2041,2028,2049,2037,2027,2065,2011
2044,2041,2025,2034,2042,2020,2045,2008
2041,2037,2025,2032,2058,2023,2031,2014
2035,2044,2034,2029,2062,2055,2031,2013
2043,2047,2031,2021,2047,2036,2018,2022
2046,2044,2028,2008,2049,2014,2047,2030
2047,2042,2017,2010,2065,2009,2038,2033
2043,2036,2010,2013,2053,2013,2048,2041
2044,2037,2015,1999,2025,2022,2047,2046
2046,2044,2046,2015,2068,2051,2059,2044
2048,2056,2072,2043,2132,2080,2065,2056
2052,2067,2079,2062,2168,2087,2068,2061
2050,2061,2082,2064,2168,2083,2058,2060
2043,2048,2062,2056,2163,2072,2040,2067
2041,2050,2054,2045,2168,2072,2054,2061
2038,2037,2043,2050,2158,2069,2066,2073
2042,2040,2050,2052,2145,2071,2067,2077
2049,2047,2052,2056,2113,2064,2064,2061
2051,2050,2057,2057,2068,2051,2044,2054
2038,2048,2045,2038,1952,2029,2035,2046
2047,2043,2041,2023,1928,2024,2040,2043
2043,2042,2042,2026,1954,2033,2033,2040
2047,2048,2049,2036,1966,2047,2029,2037
2047,2047,2047,2034,1975,2053,2041,2028
2052,2043,2044,2028,1972,2058,2054,2026
2045,2040,2033,2025,1976,2056,2051,2021
2040,2033,2030,2020,1983,2068,2057,2020
2038,2034,2032,2035,2015,2081,2072,2017
2052,2042,2052,2061,2059,2092,2070,2033
2059,2051,2059,2065,2083,2096,2063,2032
2056,2044,2056,2061,2088,2080,2057,2022
2041,2031,2040,2053,2080,2050,2052,2012
2036,2030,2041,2049,2081,2035,2034,2014
2038,2035,2046,2057,2085,2022,2054,2023
2038,2038,2052,2064,2093,2022,2053,2027
2045,2048,2050,2066,2086,2025,2080,2024
2048,2046,2043,2059,2093,2039,2061,2028
2046,2039,2041,2048,2103,2047,2051,2031
2042,2040,2044,2048,2100,2055,2065,2038
2041,2043,2051,2051,2076,2062,2052,2042
2046,2052,2066,2062,2080,2082,2065,2045
2042,2057,2070,2067,2100,2084,2072,2055
2045,2050,2063,2068,2116,2082,2063,2053
2039,2047,2057,2064,2084,2078,2051,2058
2039,2041,2050,2049,2047,2068,2029,2059
2041,2039,2039,2049,2058,2068,2035,2062
2047,2044,2029,2049,2064,2077,2051,2061
2042,2036,2021,2048,2068,2127,2046,2061
2039,2040,2026,2055,2068,2142,2061,2059
2046,2058,2036,2051,2043,2073,2036,2057
2050,2050,2021,2041,2010,1960,2021,2052
2050,2048,2016,2039,1988,1951,2026,2050
2050,2039,2019,2046,1992,1996,2022,2045
2050,2039,2021,2040,1991,2002,2023,2041
2049,2035,2008,2031,2000,2010,2034,2036
2044,2032,2009,2021,2016,2021,2020,2027
2040,2041,2025,2025,2062,2033,2030,2023
2046,2041,2039,2030,2089,2037,2052,2017
2046,2025,2033,2030,2088,2031,2026,2012
2041,2026,2043,2033,2100,2030,2030,2011
2043,2041,2077,2051,2117,2042,2049,2012
2047,2058,2113,2077,2124,2048,2046,2019
2055,2070,2117,2079,2107,2048,2037,2011
2047,2055,2095,2064,2088,2044,2057,2011
2041,2039,2070,2049,2051,2046,2057,2008
2036,2027,2050,2019,1923,2038,2053,2003
2039,2029,2046,2026,1933,2056,2052,2012
2048,2047,2063,2048,1986,2068,2068,2023
2058,2049,2066,2053,1997,2072,2069,2027
2061,2049,2057,2047,1989,2069,2065,2035
2058,2053,2058,2040,1990,2063,2033,2035
2053,2052,2052,2030,1988,2050,2055,2029
2046,2049,2042,2029,2011,2047,2048,2041
2044,2048,2049,2016,2013,2044,2042,2044
2046,2052,2054,2031,2047,2064,2061,2055
2053,2055,2058,2035,2067,2060,2042,2066
2050,2054,2046,2037,2050,2042,2036,2069
2051,2045,2046,2038,2062,2020,2041,2062
2041,2035,2046,2047,2108,2014,2026,2052
2033,2025,2044,2036,2132,2007,2023,2048
2030,2023,2041,2033,2122,2023,2025,2044
2033,2036,2048,2026,2055,2034,2031,2051
2044,2051,2063,2049,2054,2055,2047,2062
2056,2060,2072,2063,2069,2054,2044,2061
2061,2063,2079,2061,2055,2060,2050,2054
2054,2058,2073,2043,2021,2048,2053,2033
2048,2054,2074,2027,1994,2053,2060,2030
2050,2056,2073,2031,2004,2051,2053,2035
2056,2056,2071,2040,2022,2054,2066,2034
2064,2064,2068,2045,2040,2054,2057,2030
2066,2060,2069,2046,2058,2050,2035,2030
2057,2058,2060,2041,2045,2045,2059,2026
2057,2052,2049,2039,2044,2046,2046,2023
2055,2050,2044,2041,2044,2057,2033,2018
2046,2049,2044,2037,2038,2061,2036,2012
2039,2034,2030,2033,2029,2050,2006,2002
2039,2035,2028,2031,2030,2047,2016,2007
2044,2051,2045,2038,2038,2058,2023,2012
2045,2057,2060,2048,2034,2043,2034,2025
2051,2064,2057,2048,2052,2024,2023,2024
2054,2064,2059,2048,2065,2028,2030,2029
2056,2052,2058,2054,2055,2032,2016,2026
2052,2049,2053,2052,2049,2047,2025,2038
2047,2050,2055,2051,2044,2052,2039,2034
2040,2054,2051,2046,2061,2056,2037,2037
2049,2056,2053,2042,2053,2049,2052,2053
2047,2053,2054,2042,2045,2047,2065,2056
2044,2048,2054,2044,2035,2045,2064,2060
2046,2043,2057,2049,2036,2042,2050,2057
2039,2039,2069,2053,2032,2040,2041,2059
2038,2041,2072,2056,2022,2043,2023,2062
2036,2033,2061,2050,2018,2039,2025,2065
2037,2031,2054,2050,2055,2043,2038,2074
2047,2038,2057,2055,2098,2046,2035,2081
2057,2052,2062,2063,2099,2043,2042,2076
2067,2064,2067,2075,2079,2039,2051,2067
2070,2066,2059,2077,2069,2042,2052,2067
2068,2064,2046,2075,2058,2040,2046,2054
2066,2055,2038,2064,2053,2033,2024,2047
2055,2047,2036,2062,2054,2035,2021,2035
2040,2042,2035,2057,2053,2040,2026,2030
2045,2042,2042,2052,2050,2050,2055,2026
2045,2045,2041,2032,2009,2020,2051,2023
2036,2037,2037,2030,1981,2000,2033,2017
2031,2035,2037,2034,1992,1995,2036,2024
2035,2040,2031,2035,2019,2006,2021,2035
2050,2046,2028,2044,2053,2032,2039,2032
2046,2044,2025,2039,2051,2064,2032,2027
2046,2044,2034,2042,2074,2116,2028,2016
2049,2045,2044,2053,2096,2127,2022,2018
2049,2037,2045,2044,2092,2104,2043,2022
2046,2039,2052,2037,2101,2076,2047,2017
2028,2030,2045,2016,2119,2051,2041,2006
2018,2032,2051,2010,2078,2050,2051,2014
2034,2040,2057,2029,2074,2059,2069,2036
2046,2047,2056,2036,2065,2050,2065,2048
2047,2063,2072,2040,2047,2054,2076,2055
2053,2071,2074,2053,2023,2055,2063,2058
2052,2063,2073,2053,2006,2052,2061,2056
2044,2064,2078,2056,2016,2059,2058,2062
2041,2063,2094,2068,2047,2063,2065,2068
2045,2054,2091,2047,2003,2045,2051,2056
2042,2051,2082,2022,1922,2030,2051,2053
2043,2038,2077,2013,1932,2022,2035,2061
2042,2041,2074,2022,2010,2028,2040,2072
2045,2052,2076,2043,2078,2050,2044,2069
2043,2048,2068,2056,2091,2055,2037,2055
2038,2039,2073,2065,2093,2062,2026,2047
2036,2055,2068,2074,2113,2064,2057,2046
2038,2052,2068,2089,2120,2069,2034,2049
2045,2056,2062,2086,2106,2072,2066,2041
2039,2054,2042,2072,2084,2062,2045,2025
2028,2042,2016,2049,2060,2049,2044,2025
2036,2031,1997,2019,2038,2033,2031,2032
2042,2029,1986,1993,2006,2023,2018,2026
2037,2034,1996,1993,2021,2038,2033,2023
2045,2045,2028,2022,2092,2060,2057,2018
2040,2050,2042,2025,2100,2068,2062,2022
2044,2044,2041,2019,2078,2053,2045,2014
2040,2037,2038,2007,2046,2037,2043,2004
2031,2030,2042,2005,2023,2021,2043,2008
2032,2037,2053,2019,2024,2027,2048,2017
2039,2042,2054,2029,2022,2035,2042,2021
2042,2045,2057,2033,2035,2044,2068,2023
2041,2044,2060,2043,2042,2051,2052,2026
2035,2045,2067,2042,2049,2056,2046,2032
2039,2045,2064,2050,2054,2059,2058,2029
2044,2047,2066,2048,2056,2056,2042,2038
2045,2046,2064,2050,2059,2065,2056,2039
2044,2040,2061,2049,2060,2064,2071,2046
2044,2043,2058,2046,2073,2067,2061,2056
2044,2040,2058,2042,2080,2064,2049,2058
2036,2034,2054,2042,2089,2057,2048,2064
