CH1,CH2,CH3,CH4,CH5,CH6,CH7,CH8
2050,2046,2013,2029,2020,2042,2057,2018
2045,2036,2007,2026,2034,2060,2069,2018
2051,2034,2012,2037,2067,2079,2075,2034
2052,2036,2020,2046,2074,2073,2053,2041
2042,2032,2025,2048,2063,2066,2045,2044
2045,2026,2026,2050,2065,2066,2048,2060
2048,2038,2035,2052,2058,2061,2040,2070
2056,2052,2043,2058,2059,2061,2038,2082
2052,2056,2046,2057,2059,2058,2060,2087
2053,2042,2040,2062,2053,2058,2065,2093
2044,2035,2028,2052,2045,2048,2062,2085
2040,2019,2017,2041,2029,2043,2046,2088
2037,2019,2021,2036,2025,2041,2064,2094
2045,2035,2042,2037,2040,2046,2068,2083
2046,2047,2062,2044,2038,2045,2058,2089
2050,2053,2077,2044,2041,2047,2059,2089
2054,2060,2069,2044,2041,2051,2055,2074
2058,2060,2071,2050,2042,2045,2056,2071
2062,2073,2081,2055,2047,2047,2052,2068
2068,2073,2081,2053,2044,2056,2066,2054
2060,2068,2075,2048,2035,2053,2021,2046
2053,2055,2067,2036,2030,2050,2033,2040
2046,2056,2070,2039,2030,2048,2065,2034
2048,2064,2085,2044,2042,2042,2033,2027
2054,2056,2075,2045,2036,2044,2044,2024
2051,2054,2064,2054,2040,2047,2052,2028
2045,2048,2060,2057,2042,2048,2049,2016
2044,2038,2056,2052,2041,2056,2048,2015
2039,2043,2057,2051,2040,2067,2051,2012
2043,2055,2066,2058,2047,2077,2064,2018
2046,2061,2060,2065,2049,2081,2059,2017
2044,2053,2057,2064,2055,2061,2053,2029
2055,2064,2056,2073,2058,2035,2074,2038
2055,2057,2058,2066,2061,2041,2057,2038
2056,2053,2052,2059,2064,2046,2058,2043
2052,2056,2041,2059,2048,2043,2053,2047
2053,2049,2034,2062,2040,2040,2036,2044
2052,2045,2038,2065,2048,2041,2042,2054
2047,2048,2032,2054,2053,2045,2051,2067
2046,2052,2029,2054,2061,2049,2059,2067
2040,2048,2027,2046,2060,2045,2058,2077
2043,2047,2025,2033,2046,2041,2045,2080
2043,2047,2028,2031,2047,2042,2052,2096
2045,2042,2030,2025,2041,2042,2047,2093
2045,2043,2033,2036,2039,2041,2047,2092
2044,2052,2047,2045,2041,2040,2057,2093
2055,2058,2045,2045,2042,2040,2062,2089
2054,2050,2046,2045,2042,2049,2031,2076
2050,2053,2049,2053,2038,2049,2046,2074
2042,2047,2047,2057,2043,2055,2046,2065
2049,2045,2051,2056,2037,2050,2048,2055
2053,2045,2058,2053,2035,2046,2057,2047
2046,2042,2060,2056,2042,2047,2060,2036
2051,2048,2066,2055,2041,2041,2053,2030
2049,2047,2058,2062,2043,2045,2060,2023
2042,2044,2050,2058,2038,2045,2057,2018
2047,2045,2045,2064,2039,2047,2032,2017
2043,2047,2044,2057,2046,2051,2050,2012
2040,2042,2032,2059,2046,2053,2040,2010
2036,2036,2029,2058,2039,2049,2030,2004
2033,2033,2028,2054,2038,2057,2025,2002
2039,2037,2031,2049,2047,2062,2039,2017
2042,2048,2030,2041,2047,2057,2029,2012
2044,2047,2033,2039,2047,2053,2045,2020
2041,2049,2038,2034,2047,2046,2046,2020
2042,2039,2022,2028,2044,2044,2055,2032
2042,2037,2012,2024,2047,2038,2054,2040
2041,2035,2014,2022,2053,2041,2053,2035
2048,2029,2015,2024,2054,2041,2062,2044
2044,2031,2010,2030,2056,2040,2055,2052
2032,2027,2010,2031,2056,2038,2060,2054
2040,2026,2016,2034,2068,2046,2066,2063
2039,2022,2011,2037,2063,2047,2059,2078
2036,2022,2013,2043,2062,2042,2042,2084
2038,2019,2015,2039,2063,2041,2037,2084
2041,2025,2011,2036,2048,2026,2037,2082
2037,2017,2015,2033,2042,2025,2035,2089
2043,2025,2019,2030,2038,2032,2045,2084
2051,2039,2017,2027,2038,2032,2046,2086
2052,2041,2025,2031,2043,2035,2049,2076
2052,2038,2030,2036,2038,2041,2046,2061
2039,2035,2036,2040,2038,2041,2035,2048
2035,2040,2043,2046,2048,2039,2059,2048
2039,2046,2058,2051,2052,2037,2063,2041
2045,2054,2059,2049,2049,2036,2047,2034
2042,2053,2064,2050,2039,2036,2047,2030
2043,2056,2062,2043,2043,2035,2055,2036
2042,2060,2059,2040,2032,2039,2016,2037
2049,2050,2057,2044,2043,2041,2043,2030
2058,2053,2061,2050,2045,2041,2043,2025
2059,2057,2064,2060,2046,2046,2044,2021
2058,2050,2049,2053,2038,2045,2043,2017
2046,2039,2036,2049,2038,2050,2042,2015
2044,2034,2030,2053,2042,2066,2054,2019
2043,2046,2040,2059,2054,2081,2057,2014
2046,2046,2046,2065,2058,2095,2064,2016
2043,2046,2041,2062,2049,2106,2070,2026
2047,2037,2037,2068,2053,2112,2070,2021
2051,2039,2041,2063,2053,2113,2054,2032
2050,2041,2041,2064,2053,2084,2031,2029
2048,2048,2040,2068,2056,2031,2014,2032
2045,2045,2036,2068,2057,2017,2038,2035
2048,2038,2021,2067,2056,2035,2032,2044
2044,2035,2017,2068,2057,2038,2048,2057
2047,2037,2019,2068,2057,2034,2037,2058
2047,2039,2015,2054,2044,2017,2040,2068
2040,2043,2016,2051,2040,2014,2047,2066
2041,2043,2018,2052,2038,2019,2040,2072
2035,2037,2012,2030,2022,2014,2036,2076
2026,2035,2033,2033,2023,2017,2034,2084
2040,2056,2059,2049,2040,2028,2017,2083
2047,2059,2059,2049,2029,2033,2015,2073
2050,2052,2051,2047,2031,2029,2027,2068
2053,2049,2042,2040,2026,2035,2034,2064
2051,2053,2046,2047,2034,2032,2039,2048
2046,2055,2054,2058,2035,2040,2039,2046
2049,2058,2070,2059,2045,2038,2034,2040
2052,2060,2075,2057,2046,2042,2036,2038
2050,2056,2075,2053,2060,2047,2036,2040
2049,2056,2074,2056,2065,2047,2054,2028
2048,2062,2081,2058,2055,2040,2034,2026
2054,2056,2071,2056,2045,2042,2032,2017
2056,2060,2057,2050,2046,2042,2041,2021
2054,2053,2049,2042,2046,2040,2047,2019
2041,2041,2041,2014,2035,2028,2037,2012
2043,2034,2038,2008,2033,2030,2037,2009
2043,2047,2045,2012,2031,2037,2043,2010
2050,2040,2036,2011,2005,2037,2034,2018
2046,2037,2031,2004,1990,2038,2037,2015
2049,2043,2037,2020,1960,2042,2049,2018
2049,2047,2045,2031,1990,2046,2048,2014
2057,2046,2052,2041,2020,2042,2052,2022
2055,2049,2050,2051,2038,2049,2041,2028
2046,2052,2046,2058,2055,2052,2056,2035
2043,2052,2041,2059,2063,2052,2048,2049
2047,2046,2041,2055,2063,2046,2033,2058
2041,2048,2036,2070,2039,2050,2035,2069
2041,2050,2038,2090,2072,2054,2042,2083
2043,2048,2043,2093,2090,2060,2027,2093
2043,2049,2050,2105,2077,2060,2052,2098
2047,2055,2052,2107,2079,2054,2050,2096
2049,2052,2059,2101,2065,2050,2047,2102
2048,2066,2065,2101,2052,2059,2046,2093
2048,2063,2059,2091,2062,2056,2043,2087
2041,2061,2060,2070,2046,2050,2041,2077
2048,2052,2050,2054,2018,2037,2046,2066
2043,2050,2043,2032,2026,2034,2039,2051
2042,2048,2042,2034,2031,2040,2024,2053
2043,2049,2044,2034,2035,2045,2047,2042
2044,2052,2036,2040,2045,2040,2040,2034
2047,2052,2034,2038,2055,2043,2040,2027
2047,2048,2031,2022,2055,2044,2039,2020
2044,2045,2031,1995,2027,2052,2047,2016
2049,2039,2021,1983,1993,2048,2027,2014
2040,2034,2008,1973,1988,2052,2022,2004
2044,2028,2006,1979,1982,2064,2027,2008
2045,2033,2010,1988,1983,2048,2019,2013
2047,2033,2016,2009,2012,2036,2032,2013
2047,2045,2029,2041,2056,2041,2045,2017
2054,2056,2029,2061,2080,2024,2048,2026
2054,2056,2036,2067,2099,2027,2038,2030
2056,2057,2043,2066,2102,2046,2043,2031
2052,2063,2044,2063,2086,2044,2042,2029
2058,2061,2046,2059,2077,2052,2037,2034
2055,2058,2039,2049,2070,2054,2056,2044
2056,2057,2033,2047,2073,2048,2033,2045
2059,2060,2054,2052,2070,2050,2043,2058
2061,2070,2071,2059,2070,2047,2042,2067
2056,2068,2066,2054,2063,2043,2041,2067
2051,2056,2050,2053,2058,2042,2046,2078
2050,2048,2042,2058,2065,2047,2052,2089
2051,2052,2040,2063,2064,2051,2061,2093
2052,2045,2042,2061,2061,2042,2032,2090
2045,2030,2021,2052,2042,2036,2013,2093
2041,2029,2010,2047,2045,2032,2026,2089
2044,2044,2016,2056,2091,2042,2043,2089
2053,2042,2018,2060,2112,2046,2047,2094
2053,2047,2014,2064,2121,2048,2055,2086
2050,2044,2018,2058,2116,2052,2046,2072
2052,2045,2017,2051,2116,2045,2056,2066
2043,2042,2019,2056,2099,2045,2050,2056
2046,2042,2026,2043,2087,2045,2035,2047
2042,2036,2022,2033,2056,2041,2064,2032
2042,2030,2016,2022,2032,2038,2053,2035
2042,2034,2027,2026,2002,2036,2035,2032
2044,2040,2044,2014,1925,2022,2036,2034
2045,2049,2065,2014,1928,2031,2029,2029
2052,2061,2075,2022,1966,2042,2040,2025
2061,2076,2097,2035,1992,2042,2062,2031
2066,2067,2089,2043,2005,2043,2043,2023
2059,2056,2086,2040,2007,2043,2046,2023
2056,2058,2074,2046,2020,2041,2056,2024
2056,2051,2062,2046,2014,2040,2042,2022
2057,2046,2057,2042,2007,2035,2046,2026
2060,2050,2061,2047,1999,2025,2032,2035
2058,2058,2070,2051,1986,2023,2059,2031
2060,2064,2066,2054,1988,2015,2030,2027
2056,2061,2056,2047,1985,2015,2030,2035
2046,2058,2056,2039,2004,2037,2039,2045
2056,2057,2060,2055,2051,2064,2059,2054
2056,2057,2058,2063,2085,2075,2059,2068
2053,2050,2055,2067,2118,2091,2070,2076
2053,2046,2051,2071,2117,2091,2067,2079
2052,2049,2046,2065,2083,2073,2038,2082
2047,2053,2046,2057,2062,2061,2032,2090
2051,2055,2047,2054,2052,2047,2040,2087
2049,2047,2048,2051,2048,2049,2049,2089
2050,2055,2047,2057,2050,2053,2051,2093
2054,2064,2052,2063,2042,2054,2056,2092
2052,2061,2053,2055,2044,2052,2059,2082
2049,2059,2056,2052,2033,2039,2039,2073
2049,2054,2048,2057,2021,2040,2021,2066
2046,2054,2047,2051,2009,2029,2040,2057
2050,2052,2044,2041,1999,2024,2042,2046
2050,2046,2031,2035,2004,2035,2042,2035
2044,2040,2032,2041,2029,2042,2062,2032
2051,2048,2043,2057,2053,2053,2051,2033
2056,2044,2040,2055,2052,2060,2050,2025
2054,2045,2040,2054,2050,2065,2052,2020
2054,2047,2037,2050,2038,2050,2049,2009
2047,2044,2029,2054,2036,2052,2053,2013
2043,2042,2020,2054,2046,2056,2042,2004
2041,2029,2014,2054,2053,2052,2052,2002
2038,2028,2019,2061,2052,2054,2029,2013
2050,2036,2024,2067,2050,2053,2034,2017
2045,2035,2031,2071,2056,2053,2046,2011
2050,2037,2043,2064,2054,2049,2064,2022
2058,2043,2039,2067,2055,2052,2053,2024
2052,2042,2041,2065,2058,2046,2040,2027
2043,2041,2039,2066,2052,2049,2051,2030
2052,2043,2045,2064,2048,2049,2049,2044
2051,2042,2054,2069,2051,2047,2041,2047
2053,2052,2060,2073,2056,2049,2035,2056
2056,2057,2074,2077,2061,2055,2031,2071
2054,2053,2077,2072,2053,2048,2042,2076
2046,2049,2073,2058,2044,2045,2052,2077
2048,2041,2065,2049,2044,2044,2052,2084
2043,2040,2043,2037,2043,2046,2037,2089
2048,2027,2032,2022,2032,2048,2031,2093
2037,2020,2020,2017,2034,2045,2032,2093
2045,2027,2037,2029,2044,2056,2044,2096
2056,2041,2050,2039,2052,2061,2067,2093
2053,2046,2054,2043,2049,2049,2066,2087
2052,2047,2050,2045,2049,2053,2059,2080
2052,2047,2048,2047,2052,2055,2052,2077
2055,2049,2046,2050,2044,2054,2051,2071
2052,2048,2054,2054,2050,2054,2058,2056
2046,2042,2048,2058,2058,2057,2026,2047
2050,2042,2051,2074,2065,2056,2054,2038
2051,2042,2061,2075,2060,2050,2032,2030
2054,2045,2062,2073,2055,2050,2042,2036
2041,2037,2059,2066,2052,2051,2033,2030
2048,2038,2053,2070,2054,2052,2027,2021
2055,2043,2048,2069,2049,2054,2043,2012
2046,2041,2050,2060,2045,2050,2035,2007
2041,2031,2046,2053,2045,2047,2039,2009
2037,2030,2043,2044,2035,2043,2049,2017
2049,2035,2053,2052,2045,2047,2057,2015
2048,2035,2066,2054,2048,2055,2050,2016
2042,2035,2066,2053,2050,2053,2044,2020
2042,2036,2055,2050,2050,2046,2043,2016
2041,2026,2049,2040,2045,2045,2055,2024
2040,2033,2044,2035,2042,2044,2042,2037
2045,2034,2036,2021,2038,2037,2047,2033
2045,2041,2037,2023,2039,2038,2043,2041
2047,2041,2041,2032,2044,2049,2045,2054
2048,2049,2046,2035,2058,2057,2067,2067
2059,2050,2043,2033,2058,2064,2060,2075
2057,2049,2049,2028,2051,2060,2054,2088
2063,2049,2047,2040,2046,2056,2058,2092
2063,2049,2048,2040,2046,2057,2057,2094
2056,2047,2048,2038,2040,2039,2059,2085
2055,2049,2046,2045,2042,2043,2033,2089
2061,2054,2049,2053,2042,2046,2031,2096
2065,2047,2052,2054,2038,2044,2041,2094
2067,2049,2046,2045,2036,2041,2040,2083
2050,2036,2037,2044,2033,2037,2046,2068
2051,2032,2042,2038,2033,2035,2050,2063
2052,2037,2048,2045,2038,2045,2037,2057
2045,2047,2056,2047,2035,2048,2036,2056
2054,2053,2056,2050,2040,2050,2057,2050
2059,2062,2058,2047,2039,2056,2063,2054
2056,2059,2047,2046,2038,2052,2053,2037
2052,2050,2035,2046,2039,2050,2056,2030
2051,2044,2020,2042,2035,2045,2039,2036
2046,2037,2020,2041,2031,2050,2033,2026
2052,2039,2015,2038,2033,2052,2036,2018
2052,2042,2015,2029,2030,2044,2024,2014
2050,2034,2013,2028,2034,2042,2047,2019
2047,2038,2019,2027,2037,2050,2038,2021
2053,2038,2021,2030,2039,2058,2060,2024
2057,2038,2026,2028,2045,2078,2059,2023
2050,2038,2028,2027,2041,2086,2064,2025
2053,2035,2028,2026,2040,2087,2058,2030
2056,2037,2030,2028,2040,2083,2048,2030
2057,2034,2035,2041,2039,2049,2058,2039
2052,2037,2045,2058,2055,2024,2052,2052
2053,2046,2052,2064,2062,2032,2052,2064
2056,2048,2064,2063,2068,2043,2049,2068
2052,2044,2060,2070,2070,2052,2064,2076
2056,2037,2055,2068,2072,2059,2058,2075
2047,2031,2046,2064,2062,2063,2077,2084
2052,2037,2047,2063,2060,2065,2079,2091
2047,2045,2039,2066,2061,2055,2065,2091
2047,2040,2031,2063,2065,2048,2056,2099
2050,2045,2040,2065,2055,2046,2038,2098
2053,2047,2045,2062,2049,2040,2033,2090
2052,2059,2072,2059,2043,2036,2055,2078
2056,2064,2084,2053,2038,2040,2041,2084
2050,2066,2088,2051,2036,2041,2046,2074
2055,2065,2082,2049,2037,2039,2033,2064
2057,2056,2071,2048,2039,2044,2054,2055
2055,2055,2055,2042,2046,2045,2044,2051
2049,2054,2046,2035,2050,2042,2057,2044
2048,2057,2049,2042,2046,2035,2056,2049
2055,2056,2057,2046,2044,2031,2056,2040
2052,2057,2062,2051,2041,2028,2057,2034
2053,2058,2063,2055,2045,2040,2060,2035
2054,2055,2072,2064,2051,2043,2050,2030
2053,2060,2067,2063,2058,2032,2052,2028
2050,2049,2061,2062,2054,2035,2055,2024
2050,2053,2054,2068,2058,2041,2045,2022
2053,2060,2061,2062,2049,2037,2032,2027
2053,2055,2051,2065,2049,2039,2048,2031
2054,2049,2046,2060,2050,2044,2043,2025
2054,2036,2033,2052,2040,2044,2046,2025
2038,2028,2018,2027,2030,2037,2043,2020
2028,2022,2010,2010,2019,2036,2047,2019
2034,2020,2008,2006,2019,2035,2046,2027
2033,2028,2030,2014,2042,2034,2057,2048
2036,2040,2053,2023,2051,2037,2061,2052
2035,2037,2048,2028,2065,2050,2051,2060
2038,2044,2038,2031,2077,2074,2067,2074
2042,2049,2051,2046,2084,2078,2065,2084
2043,2053,2059,2059,2075,2081,2065,2091
2043,2053,2055,2056,2063,2067,2067,2088
2036,2042,2050,2057,2069,2061,2059,2090
2044,2040,2055,2069,2067,2059,2054,2086
2044,2048,2066,2067,2060,2056,2053,2093
2049,2054,2069,2065,2056,2047,2045,2082
2050,2056,2061,2063,2032,2035,2037,2077
2045,2059,2054,2064,2043,2041,2034,2065
2048,2058,2051,2067,2048,2039,2027,2054
2051,2052,2050,2058,2042,2041,2054,2057
2054,2054,2048,2060,2054,2045,2050,2044
2053,2058,2046,2052,2056,2047,2056,2040
2047,2056,2048,2051,2061,2051,2041,2035
2049,2056,2040,2046,2067,2047,2044,2033
2039,2052,2029,2043,2071,2048,2045,2026
2044,2047,2026,2039,2079,2044,2045,2027
2040,2050,2023,2037,2067,2050,2046,2019
2040,2051,2029,2046,2086,2052,2039,2025
2032,2043,2039,2047,2093,2059,2037,2024
2037,2043,2050,2056,2079,2068,2058,2027
2038,2053,2047,2054,2088,2078,2080,2026
2042,2048,2038,2038,2081,2079,2060,2030
2043,2042,2033,2043,2061,2080,2060,2034
2043,2047,2032,2041,2057,2090,2064,2039
2047,2056,2041,2034,2061,2095,2079,2039
2053,2058,2043,2019,2017,2102,2068,2047
2052,2056,2036,2002,1976,2089,2054,2048
2048,2058,2045,2011,2031,2093,2069,2055
2055,2059,2057,2029,2032,2086,2065,2066
2055,2053,2047,2026,2040,2034,2060,2078
2049,2049,2041,2034,2040,2014,2048,2081
2044,2044,2042,2032,2036,2024,2057,2083
2040,2042,2037,2028,2040,2034,2038,2088
2050,2044,2038,2026,2039,2036,2047,2086
2043,2043,2042,2027,2028,2030,2044,2087
2041,2047,2039,2025,2033,2025,2039,2089
2049,2056,2047,2028,2033,2018,2016,2086
2050,2054,2041,2031,2033,2026,2018,2080
2044,2051,2040,2029,2041,2032,2037,2081
2045,2044,2036,2032,2038,2042,2051,2077
2049,2052,2038,2045,2041,2041,2040,2060
2051,2053,2052,2049,2034,2032,2038,2055
2052,2055,2058,2052,2036,2028,2047,2047
2048,2053,2068,2056,2034,2034,2046,2041
2048,2061,2078,2065,2036,2037,2038,2034
2051,2059,2074,2054,2026,2027,2048,2032
2050,2057,2069,2046,2003,2020,2043,2025
2039,2054,2064,2041,1991,2010,2039,2026
2042,2046,2064,2040,1992,2016,2042,2018
2031,2048,2072,2044,2005,2035,2017,2017
2026,2043,2069,2053,2023,2073,2038,2010
2030,2043,2074,2056,2031,2099,2066,2014
2043,2059,2077,2063,2044,2113,2067,2019
2045,2055,2067,2056,2050,2110,2053,2019
2044,2059,2061,2050,2035,2060,2037,2027
2046,2053,2068,2053,2053,2010,2038,2042
2052,2055,2074,2063,2088,2014,2059,2044
2058,2056,2074,2062,2100,2035,2069,2049
2051,2054,2066,2051,2081,2045,2050,2048
2051,2050,2066,2044,2069,2049,2045,2058
2050,2048,2065,2039,2049,2041,2064,2065
2044,2052,2054,2034,2037,2031,2035,2070
2042,2046,2047,2028,2026,2030,2057,2069
2035,2045,2045,2030,2029,2043,2060,2090
2038,2053,2056,2052,2062,2051,2054,2100
2045,2059,2055,2056,2074,2051,2070,2101
2044,2057,2050,2062,2068,2045,2039,2097
2041,2051,2035,2070,2063,2044,2041,2099
2037,2052,2043,2070,2078,2045,2054,2106
2049,2058,2044,2073,2081,2040,2043,2100
2051,2054,2039,2066,2062,2047,2047,2094
2051,2047,2037,2058,2051,2047,2063,2086
2044,2050,2035,2052,2056,2055,2058,2069
2047,2052,2039,2049,2049,2053,2068,2062
2050,2045,2041,2038,2043,2048,2050,2059
2050,2044,2043,2035,2034,2052,2063,2053
2050,2046,2049,2035,2039,2056,2057,2046
2051,2052,2055,2045,2041,2056,2045,2039
2042,2048,2058,2038,2032,2047,2034,2033
2039,2043,2065,2037,2037,2046,2044,2034
2041,2044,2075,2047,2043,2048,2039,2032
2051,2050,2076,2051,2054,2050,2055,2029
2051,2048,2081,2049,2072,2049,2030,2018
2042,2047,2064,2051,2105,2047,2046,2022
2043,2052,2062,2057,2126,2060,2053,2028
2050,2063,2066,2058,2122,2068,2057,2019
2051,2064,2058,2064,2120,2072,2060,2029
2053,2058,2051,2065,2138,2074,2064,2030
2049,2058,2042,2067,2139,2078,2069,2032
2046,2057,2042,2071,2126,2076,2045,2030
2050,2050,2045,2059,2101,2084,2050,2037
2039,2043,2043,2037,2060,2097,2066,2037
2033,2035,2037,2030,1988,2091,2067,2050
2037,2034,2031,2022,1918,2083,2048,2053
2044,2037,2035,2024,1953,2082,2038,2062
2047,2048,2050,2034,1988,2066,2040,2074
2045,2055,2061,2051,2022,2013,2030,2089
2046,2054,2058,2061,2044,1997,2032,2088
2049,2052,2057,2057,2049,2025,2040,2093
2052,2036,2045,2057,2044,2035,2049,2086
2031,2023,2050,2072,2050,2034,2039,2086
2033,2029,2060,2066,2045,2041,2057,2085
2038,2032,2065,2064,2052,2046,2055,2079
2036,2035,2064,2060,2060,2043,2054,2072
2041,2038,2054,2053,2047,2038,2034,2075
2040,2043,2052,2053,2040,2043,2039,2068
2045,2049,2045,2057,2049,2048,2037,2057
2043,2051,2031,2049,2052,2061,2063,2051
2051,2051,2032,2049,2049,2062,2058,2040
2046,2049,2025,2058,2053,2067,2069,2041
2045,2038,2018,2054,2054,2068,2072,2029
2042,2036,2013,2050,2058,2040,2062,2033
2038,2035,2019,2057,2073,2021,2060,2029
2037,2035,2019,2047,2067,2031,2064,2020
2039,2031,2029,2040,2064,2040,2064,2022
2038,2033,2040,2023,2052,2042,2056,2019
2034,2029,2045,2018,2052,2043,2032,2019
2041,2047,2066,2022,2057,2054,2058,2019
2057,2073,2097,2044,2074,2058,2056,2025
2066,2086,2097,2047,2078,2056,2057,2033
2068,2077,2084,2050,2068,2050,2030,2028
2064,2070,2066,2042,2063,2053,2052,2026
2059,2061,2059,2036,2049,2049,2053,2032
2061,2063,2059,2016,2035,2045,2058,2033
2060,2059,2058,2006,2026,2037,2053,2045
2056,2054,2056,1998,2022,2039,2043,2044
2057,2054,2051,1996,2027,2042,2033,2061
2055,2056,2055,2004,2035,2045,2052,2067
2058,2065,2060,2022,2046,2046,2037,2077
2052,2067,2066,2034,2046,2047,2055,2080
2050,2058,2058,2034,2054,2048,2047,2079
2048,2057,2051,2039,2052,2052,2056,2080
2038,2042,2045,2039,2058,2039,2044,2080
2033,2044,2040,2040,2063,2045,2047,2087
2035,2045,2046,2047,2068,2048,2047,2080
2042,2050,2047,2065,2068,2054,2053,2077
2043,2057,2050,2070,2068,2052,2052,2068
2041,2055,2052,2070,2069,2054,2050,2064
2039,2051,2050,2071,2060,2054,2025,2060
2038,2051,2040,2069,2058,2047,2027,2046
2043,2044,2039,2071,2056,2044,2044,2045
2048,2036,2030,2066,2058,2049,2053,2035
2040,2029,2024,2064,2054,2052,2027,2025
2037,2025,2019,2054,2056,2052,2044,2020
2038,2026,2017,2053,2057,2055,2037,2016
2036,2027,2019,2041,2057,2057,2058,2016
2035,2026,2005,2028,2045,2052,2028,2006
2037,2022,2007,2022,2044,2054,2038,2005
2039,2032,2022,2022,2038,2044,2023,2002
2039,2036,2024,2012,2036,2041,2027,2001
2038,2038,2029,2026,2038,2045,2054,2014
2044,2049,2037,2024,2032,2042,2051,2002
2041,2043,2053,2027,2032,2051,2055,2017
2042,2045,2061,2040,2038,2056,2055,2014
2044,2047,2062,2044,2045,2059,2050,2023
2045,2051,2068,2045,2054,2060,2056,2030
2046,2057,2071,2054,2050,2052,2049,2039
2051,2053,2070,2051,2056,2054,2039,2042
2046,2056,2070,2058,2056,2057,2044,2049
2053,2053,2065,2059,2064,2060,2048,2049
2046,2047,2050,2062,2067,2056,2063,2061
2046,2045,2034,2054,2067,2056,2061,2073
2045,2047,2025,2060,2063,2055,2040,2075
2048,2052,2028,2058,2069,2057,2050,2078
2055,2058,2034,2054,2065,2059,2054,2075
2044,2046,2018,2037,2049,2052,2046,2080
2041,2030,2006,2024,2043,2048,2060,2084
2047,2040,2016,2020,2051,2053,2074,2082
2048,2047,2012,2017,2051,2056,2069,2076
2052,2047,2020,2017,2047,2055,2045,2073
2049,2046,2023,2033,2050,2055,2037,2057
2052,2044,2021,2037,2046,2052,2067,2048
2047,2042,2025,2034,2038,2053,2050,2037
2050,2039,2032,2040,2044,2055,2042,2036
2050,2042,2030,2041,2053,2059,2049,2031
2048,2035,2036,2033,2045,2058,2037,2027
2049,2044,2042,2033,2043,2053,2040,2024
2054,2043,2054,2027,2039,2050,2040,2023
2050,2058,2072,2029,2044,2052,2032,2016
2055,2064,2089,2042,2051,2045,2045,2017
2053,2064,2075,2041,2046,2042,2056,2010
2050,2064,2068,2038,2047,2041,2031,2004
2039,2056,2063,2030,2050,2040,2020,1995
2040,2052,2066,2038,2058,2040,2016,2000
2045,2050,2071,2040,2060,2044,2033,2003
2044,2050,2070,2040,2053,2054,2044,2014
2047,2050,2066,2037,2061,2058,2046,2020
2047,2051,2066,2035,2058,2060,2053,2023
2051,2057,2062,2043,2057,2059,2058,2033
2051,2053,2064,2041,2063,2061,2066,2042
2048,2053,2062,2048,2054,2061,2074,2046
2049,2049,2062,2043,2059,2057,2065,2052
2048,2047,2065,2044,2060,2056,2057,2055
2047,2038,2065,2042,2063,2052,2059,2065
2046,2037,2055,2044,2066,2056,2047,2067
2045,2034,2055,2040,2056,2054,2057,2071
2044,2042,2045,2039,2056,2050,2054,2075
2045,2044,2047,2041,2050,2045,2033,2073
2038,2036,2024,2043,2041,2045,2036,2078
2041,2029,2018,2043,2045,2042,2019,2076
2043,2038,2025,2051,2052,2043,2032,2072
2050,2049,2029,2049,2049,2044,2029,2071
2052,2044,2032,2053,2053,2045,2035,2070
2048,2047,2024,2052,2048,2040,2048,2058
2050,2035,2019,2047,2044,2043,2036,2054
2049,2044,2020,2045,2041,2045,2052,2046
2047,2042,2020,2055,2047,2054,2049,2032
2048,2040,2019,2051,2039,2049,2036,2027
2049,2034,2026,2050,2038,2051,2038,2029
2047,2037,2035,2063,2035,2038,2042,2015
2043,2037,2052,2065,2022,2022,2029,2014
2046,2050,2064,2063,2002,2018,2038,2017
2045,2054,2065,2055,1975,2021,2033,2013
2046,2051,2060,2049,1963,2030,2028,2010
2046,2053,2057,2036,1966,2041,2017,2005
2043,2047,2055,2040,1997,2051,2027,2006
2041,2058,2074,2080,2050,2057,2052,2025
2064,2072,2092,2109,2089,2033,2058,2036
2072,2077,2094,2115,2117,2040,2074,2040
2064,2069,2094,2106,2114,2070,2077,2038
2059,2058,2076,2084,2090,2074,2056,2031
2054,2050,2059,2054,2060,2063,2044,2035
2056,2046,2050,2037,2060,2062,2045,2030
2052,2051,2052,2032,2060,2060,2060,2033
2053,2057,2069,2042,2060,2060,2059,2052
2063,2071,2086,2054,2061,2064,2067,2065
2058,2068,2096,2053,2064,2057,2066,2064
2056,2063,2091,2057,2059,2060,2062,2073
2056,2066,2077,2060,2050,2058,2054,2080
2056,2059,2074,2057,2064,2058,2057,2085
2052,2054,2068,2052,2059,2053,2066,2094
2053,2046,2056,2049,2054,2043,2060,2092
2042,2044,2051,2046,2062,2038,2041,2086
2051,2054,2063,2045,2070,2042,2040,2084
2054,2057,2060,2049,2066,2043,2027,2082
2053,2053,2058,2051,2062,2041,2022,2082
2057,2056,2062,2052,2058,2054,2024,2071
2058,2060,2061,2043,2046,2061,2031,2064
2060,2058,2059,2038,2026,2063,2054,2054
2055,2054,2049,2034,2015,2054,2058,2044
2051,2044,2042,2031,2007,2045,2040,2036
2050,2042,2037,2030,2017,2018,2019,2034
2048,2041,2030,2035,2036,2008,2039,2028
2047,2041,2042,2047,2070,2021,2041,2024
2053,2047,2052,2065,2072,2044,2049,2024
2056,2051,2045,2071,2079,2063,2067,2028
2054,2041,2034,2066,2071,2066,2050,2018
2052,2037,2024,2060,2065,2052,2052,2011
2047,2026,2002,2056,2059,2054,2043,2003
2050,2023,1996,2055,2064,2064,2065,2007
2049,2024,1996,2059,2063,2072,2057,2003
2052,2029,2010,2068,2072,2071,2066,2002
2047,2032,2013,2075,2077,2070,2050,2012
2054,2037,2018,2078,2074,2067,2072,2012
2050,2028,2013,2076,2075,2062,2053,2016
2047,2028,2022,2074,2074,2051,2046,2021
2042,2022,2021,2077,2068,2048,2054,2031
2038,2023,2025,2080,2075,2053,2054,2036
2044,2039,2038,2084,2071,2072,2058,2046
2050,2048,2063,2091,2071,2081,2062,2054
2058,2056,2069,2078,2053,2083,2058,2069
2056,2054,2075,2064,2024,2068,2037,2077
2046,2042,2077,2053,2024,2048,2045,2082
2049,2053,2118,2072,2053,2020,2035,2092
2051,2064,2127,2081,2067,2009,2056,2084
2046,2055,2110,2069,2063,2026,2066,2084
2038,2056,2097,2068,2059,2044,2057,2086
2042,2064,2086,2056,2042,2052,2049,2084
2051,2062,2068,2047,2036,2051,2059,2084
2057,2063,2055,2045,2039,2050,2063,2076
2053,2063,2049,2044,2037,2050,2046,2068
2055,2058,2039,2022,2009,2038,2043,2053
2045,2056,2043,2014,2020,2042,2049,2041
2047,2054,2041,2013,2038,2044,2039,2037
2054,2056,2044,2010,2038,2045,2062,2036
2051,2055,2034,2003,2039,2046,2054,2030
2053,2056,2033,2003,2038,2047,2032,2026
2048,2056,2026,2006,2052,2051,2042,2013
2052,2054,2032,2014,2061,2052,2064,2020
2060,2062,2038,2028,2059,2054,2048,2015
2056,2063,2046,2036,2060,2054,2054,2018
2047,2045,2036,2032,2058,2043,2034,2005
2046,2048,2033,2039,2045,2039,2032,2008
2048,2054,2041,2049,2036,2033,2032,2008
2049,2049,2039,2049,2041,2037,2049,2003
2052,2050,2046,2050,2040,2043,2047,2007
2049,2045,2037,2049,2043,2041,2039,2007
2048,2038,2031,2053,2045,2046,2044,2018
2052,2042,2038,2051,2051,2047,2050,2027
2049,2043,2037,2058,2052,2047,2034,2028
2044,2042,2037,2053,2059,2047,2048,2035
2046,2044,2038,2053,2060,2055,2051,2040
2040,2042,2037,2061,2065,2049,2040,2043
2046,2041,2044,2076,2074,2053,2056,2061
2050,2048,2050,2094,2075,2055,2055,2071
2049,2038,2049,2097,2081,2065,2067,2072
2051,2039,2040,2099,2095,2064,2037,2076
2047,2032,2037,2096,2092,2058,2041,2072
2039,2022,2030,2092,2066,2048,2015,2076
2036,2025,2035,2088,2057,2042,2014,2077
2043,2041,2036,2089,2049,2032,2038,2082
2042,2037,2029,2075,2035,2032,2046,2081
2047,2035,2013,2052,2033,2032,2033,2065
2041,2029,2010,2053,2046,2044,2039,2054
2040,2039,2023,2060,2056,2057,2039,2053
2050,2050,2033,2061,2060,2061,2031,2046
2052,2060,2038,2058,2061,2062,2040,2040
2051,2053,2033,2042,2060,2057,2040,2032
2047,2044,2029,2028,2049,2049,2065,2023
2049,2045,2039,2015,2046,2048,2051,2025
2049,2050,2041,2008,2049,2045,2038,2024
2049,2052,2037,1992,2042,2038,2046,2019
2050,2049,2027,1984,2047,2039,2043,2016
2043,2047,2018,1990,2044,2044,2041,2015
2042,2047,2021,2006,2040,2043,2044,2008
2043,2051,2026,2018,2050,2051,2043,2012
2045,2050,2034,2034,2084,2061,2052,2016
2054,2057,2039,2044,2114,2062,2048,2017
2049,2053,2041,2050,2137,2065,2031,2018
2056,2061,2056,2056,2134,2071,2054,2021
2054,2066,2062,2061,2140,2072,2052,2022
2053,2061,2060,2064,2146,2068,2063,2026
2055,2057,2052,2061,2131,2066,2046,2034
2052,2060,2045,2063,2112,2055,2051,2031
2050,2056,2042,2063,2095,2052,2055,2037
2048,2052,2040,2056,2066,2052,2059,2052
2048,2052,2043,2057,2021,2053,2060,2051
2048,2052,2042,2043,1952,2041,2060,2053
2045,2052,2033,2049,1964,2040,2056,2069
2047,2048,2031,2051,2002,2053,2069,2075
2052,2052,2043,2054,2032,2055,2062,2075
2056,2050,2056,2046,2027,2048,2047,2074
2050,2045,2052,2016,2002,2052,2028,2068
2049,2054,2056,2007,1992,2064,2041,2071
2048,2058,2048,2005,1994,2080,2049,2067
2047,2056,2045,2005,2000,2081,2033,2057
2041,2048,2038,2001,1993,2072,2047,2064
2047,2058,2053,2034,2005,2042,2054,2065
2056,2066,2062,2056,2024,2058,2058,2059
2051,2064,2059,2059,2051,2070,2064,2050
2054,2065,2044,2062,2061,2040,2046,2034
2059,2061,2052,2062,2058,2016,2052,2023
2052,2053,2050,2062,2052,2018,2053,2019
2056,2051,2042,2059,2058,2029,2042,2017
2044,2058,2042,2059,2049,2039,2053,2021
2046,2049,2045,2056,2048,2040,2049,2018
2052,2051,2049,2053,2050,2043,2069,2015
2048,2050,2046,2049,2046,2042,2032,2005
2045,2042,2025,2033,2023,2018,2011,2002
2039,2030,2015,2015,2000,2009,2021,2008
2046,2030,2013,2007,1981,2003,2033,1998
2043,2027,2008,1998,1973,2006,2038,1997
2044,2026,2011,2003,1988,2019,2033,1997
2041,2030,2013,2016,2031,2046,2058,2016
2046,2035,2015,2027,2060,2064,2060,2020
2041,2037,2022,2032,2081,2073,2071,2029
2044,2044,2034,2040,2094,2088,2059,2038
2044,2048,2046,2041,2087,2091,2062,2043
2050,2050,2047,2040,2063,2076,2054,2044
2050,2052,2047,2036,2053,2071,2066,2051
2042,2051,2052,2043,2054,2046,2042,2071
2050,2052,2062,2045,2054,2022,2045,2078
2050,2059,2056,2046,2051,2019,2036,2077
2042,2047,2050,2032,2049,2036,2042,2083
2041,2050,2050,2031,2044,2056,2047,2082
2034,2053,2055,2036,2049,2075,2046,2081
2046,2061,2071,2049,2061,2085,2072,2078
2060,2075,2084,2058,2059,2080,2078,2084
2053,2068,2079,2058,2070,2039,2072,2087
2057,2068,2072,2062,2080,2037,2068,2077
2054,2064,2066,2057,2080,2049,2056,2061
2041,2058,2062,2058,2079,2050,2048,2058
2044,2062,2056,2049,2061,2042,2051,2048
2045,2054,2054,2047,2060,2031,2047,2043
2053,2056,2054,2039,2033,2034,2059,2033
2048,2059,2056,2033,2011,2036,2054,2034
2046,2055,2056,2028,1983,2043,2057,2028
2050,2059,2052,2021,1962,2039,2048,2022
2051,2059,2047,2016,1956,2028,2022,2020
2044,2059,2043,2015,1953,2030,2033,2006
2045,2056,2040,2022,1967,2031,2050,2005
2048,2049,2037,2028,1992,2006,2048,2009
2047,2047,2039,2034,2033,2015,2045,2004
2046,2052,2043,2042,2060,2058,2073,2008
2048,2058,2048,2053,2077,2063,2054,2021
2055,2063,2061,2060,2085,2053,2052,2022
2056,2069,2058,2057,2072,2050,2049,2030
2056,2066,2056,2058,2069,2049,2050,2027
2052,2065,2053,2051,2061,2056,2060,2026
2047,2057,2053,2047,2053,2071,2067,2028
2044,2053,2044,2037,2038,2074,2070,2026
2039,2049,2042,2034,2034,2081,2035,2033
2037,2041,2037,2037,2028,2080,2052,2043
2040,2045,2045,2039,2030,2070,2067,2061
2042,2054,2048,2044,2063,2054,2080,2075
2050,2064,2058,2055,2093,2047,2065,2089
2055,2061,2052,2065,2116,2057,2064,2092
2051,2061,2049,2069,2129,2074,2064,2093
2046,2049,2042,2059,2120,2092,2070,2094
2045,2041,2033,2045,2072,2077,2068,2093
2046,2050,2038,2038,2044,2066,2060,2096
2054,2045,2036,2039,2025,2064,2073,2089
2050,2043,2032,2028,2003,2038,2042,2080
2049,2041,2030,2027,1995,2002,2035,2055
2045,2039,2032,2031,2016,1993,2036,2047
2048,2040,2042,2035,2068,2015,2055,2047
2054,2049,2052,2055,2091,2029,2065,2036
2056,2048,2048,2059,2089,2030,2054,2031
2059,2046,2047,2053,2076,2031,2042,2018
2054,2043,2035,2052,2066,2028,2031,2016
2047,2038,2030,2039,2057,2024,2007,2011
2047,2043,2031,2045,2055,2022,2004,2012
2044,2046,2035,2048,2054,2025,2016,2016
2047,2047,2040,2050,2050,2028,2020,2014
2046,2046,2040,2045,2045,2037,2044,2011
2045,2039,2031,2044,2045,2042,2036,2001
2039,2033,2027,2039,2051,2041,2041,2003
2048,2041,2032,2045,2054,2042,2039,1999
2046,2044,2035,2051,2056,2047,2047,2010
2049,2046,2041,2052,2062,2049,2047,2017
2055,2043,2041,2051,2066,2046,2050,2024
2053,2043,2043,2054,2065,2036,2043,2026
2053,2042,2042,2055,2067,2040,2037,2033
2053,2042,2047,2054,2066,2044,2047,2033
2052,2041,2046,2052,2067,2052,2053,2042
2052,2042,2046,2060,2072,2048,2029,2051
2051,2042,2054,2061,2065,2051,1996,2050
2053,2044,2053,2061,2064,2056,2019,2062
2055,2043,2053,2052,2031,2083,2010,2072
2050,2039,2040,2046,1996,2083,1996,2076
2047,2035,2036,2036,1969,2078,2012,2076
2047,2034,2028,2030,1971,2068,2004,2074
2033,2028,2027,2022,1967,2026,1989,2074
2042,2029,2032,2031,1982,1980,2003,2085
2040,2040,2040,2052,2043,1970,2015,2073
2035,2039,2033,2051,2085,1984,2055,2069
2029,2040,2038,2048,2084,1995,2065,2068
2027,2044,2043,2055,2082,2015,2053,2053
2025,2045,2041,2052,2053,2019,2047,2046
2022,2047,2049,2054,2083,2014,2038,2035
2021,2049,2046,2062,2109,2015,2047,2021
2009,2049,2049,2059,2088,2006,2032,2004
2011,2044,2039,2051,2049,1975,2018,1993
2008,2037,2035,2039,2014,1987,2017,1991
2010,2032,2032,2033,2003,2032,2034,1998
2014,2028,2027,2026,2021,2068,2042,1985
2014,2030,2029,2032,2052,2076,2060,1987
2031,2037,2031,2039,2044,2068,2032,1986
2038,2039,2027,2031,2029,2068,2033,1994
2070,2044,2034,2030,2052,2077,2041,1992
2077,2052,2034,2043,2056,2079,2053,1997
2067,2053,2031,2039,2034,2053,2060,1993
2053,2043,2024,2032,2006,2037,2059,1994
2048,2042,2028,2026,1993,2025,2040,1998
2049,2044,2026,2021,1981,2014,2045,2003
2048,2048,2027,2032,2012,2050,2064,2025
2055,2060,2041,2045,2046,2059,2065,2042
2058,2052,2045,2058,2068,2046,2040,2063
2053,2050,2035,2059,2089,2034,2008,2074
2044,2045,2040,2064,2088,2022,1992,2085
2035,2043,2036,2049,2067,2010,2000,2083
2037,2036,2031,2046,2044,2008,1998,2081
2024,2041,2034,2043,2030,1993,2016,2086
2022,2040,2034,2039,2022,1987,2035,2067
2022,2036,2035,2034,2019,1986,2042,2053
2021,2026,2024,2028,2028,1999,2045,2044
2010,2024,2023,2028,2056,2034,2069,2060
2015,2035,2025,2027,2061,2058,2072,2068
2029,2036,2030,2024,2068,2054,2064,2066
2036,2043,2039,2039,2079,2001,2052,2064
2041,2051,2047,2045,2075,2017,2056,2056
2050,2049,2044,2044,2074,2067,2046,2058
2052,2054,2043,2043,2067,2059,2071,2047
2058,2054,2043,2045,2060,2066,2097,2040
2056,2049,2046,2050,2066,2080,2089,2026
2045,2045,2045,2046,2068,2081,2051,2017
2048,2046,2046,2044,2060,2092,2058,2020
2057,2047,2051,2043,2056,2104,2054,2032
2062,2049,2048,2038,2054,2094,2039,2029
2061,2046,2046,2032,2053,2081,2037,2033
2064,2047,2046,2038,2060,2063,2030,2053
2076,2056,2054,2050,2078,2061,2044,2052
2072,2047,2052,2045,2076,2071,2063,2052
2059,2045,2053,2053,2068,2064,2067,2042
2066,2056,2062,2053,2078,2049,2064,2044
2067,2059,2058,2049,2088,2057,2068,2033
2067,2061,2057,2050,2122,2066,2062,2036
2066,2061,2054,2054,2136,2079,2089,2036
2071,2060,2053,2046,2147,2094,2077,2042
2070,2063,2049,2054,2164,2102,2067,2046
2069,2066,2055,2065,2177,2125,2049,2049
2072,2071,2060,2076,2180,2156,2058,2058
2070,2073,2067,2072,2172,2168,2065,2060
2066,2067,2064,2065,2149,2151,2042,2071
2061,2061,2059,2064,2112,2146,2038,2074
2050,2057,2050,2054,2065,2068,2044,2072
2039,2050,2053,2044,1977,1988,2030,2074
2045,2052,2053,2032,1934,2000,2007,2082
2052,2057,2047,2029,1972,2010,2039,2083
2048,2043,2048,2026,1976,2012,2025,2080
2038,2034,2049,2023,1953,2016,2047,2078
2055,2044,2047,2024,1973,2009,2064,2070
2052,2046,2055,2030,2008,2013,2048,2079
2055,2046,2056,2028,2023,2009,2047,2071
2064,2056,2050,2025,2027,2013,2049,2076
2073,2054,2054,2033,2030,2020,2080,2074
2083,2058,2051,2035,2031,2033,2062,2069
2080,2057,2050,2040,2032,2039,2067,2062
2064,2052,2050,2038,2024,2042,2071,2043
2057,2046,2043,2033,2010,2039,2040,2035
2059,2047,2040,2020,1989,2030,2073,2034
2055,2049,2043,2023,1970,2025,2055,2027
2056,2041,2037,2021,1968,2023,2084,2020
2060,2040,2040,2015,1970,2009,2073,2032
2061,2042,2042,2033,2004,1996,2109,2021
2057,2033,2039,2036,2029,2020,2101,2007
2049,2028,2045,2042,2048,2058,2100,2004
2049,2037,2045,2046,2069,2093,2128,2002
2047,2040,2047,2045,2066,2089,2143,1999
2047,2036,2044,2045,2045,2078,2140,2012
2047,2025,2044,2038,2043,2074,2142,2023
2049,2034,2044,2042,2046,2086,2113,2022
2045,2036,2045,2042,2047,2093,2045,2016
2042,2039,2046,2040,2057,2095,2011,2010
2044,2042,2044,2046,2064,2088,1964,2006
2038,2043,2043,2043,2063,2072,1925,2016
2040,2045,2043,2044,2065,2052,1968,2020
2041,2046,2045,2048,2070,2029,1998,2033
2041,2046,2047,2043,2066,2031,2021,2040
2044,2051,2052,2050,2055,2040,2026,2046
2037,2052,2053,2052,2058,2043,2028,2050
2026,2052,2056,2059,2063,2033,2012,2051
2023,2042,2051,2040,2047,2019,2010,2048
2021,2039,2044,2036,2037,2019,2018,2050
2028,2055,2055,2044,2026,2024,2020,2053
2031,2059,2054,2042,2017,2023,2024,2051
2031,2055,2055,2038,2018,2026,2030,2050
2038,2054,2052,2039,2031,2045,2034,2045
2039,2050,2054,2039,2029,2056,2041,2024
2039,2050,2045,2038,2032,2074,2048,2003
2036,2049,2048,2039,2038,2104,2032,1994
2037,2049,2054,2039,2037,2116,2037,2002
2045,2054,2050,2039,2036,2106,2046,1999
2053,2051,2044,2039,2026,2064,2020,1991
2056,2052,2048,2038,2031,1968,2003,1995
2055,2045,2047,2037,2039,1967,2007,2006
2058,2047,2049,2044,2044,2008,2017,2019
2064,2054,2049,2048,2054,2053,2026,2028
2059,2054,2052,2044,2064,2072,2017,2031
2051,2047,2040,2044,2060,2076,2038,2026
2055,2037,2040,2042,2056,2076,2040,2030
2059,2050,2042,2038,2058,2076,2032,2022
2058,2048,2037,2040,2060,2076,2024,2027
2057,2054,2042,2052,2064,2066,2031,2029
2060,2048,2044,2057,2067,2055,2027,2033
2065,2048,2049,2050,2069,2054,2030,2031
2054,2055,2046,2055,2071,2060,2035,2032
2053,2048,2037,2050,2066,2049,2039,2024
2047,2042,2039,2051,2064,2048,2050,2040
2045,2045,2042,2047,2062,2054,2042,2052
2056,2051,2043,2047,2059,2049,2048,2059
2047,2055,2042,2043,2055,2056,2041,2066
2054,2055,2039,2038,2055,2052,2057,2077
2051,2054,2043,2038,2044,2048,2056,2089
2052,2058,2040,2041,2040,2050,2071,2091
2049,2049,2035,2036,2037,2048,2058,2088
2046,2042,2027,2033,2036,2044,2065,2085
2049,2043,2036,2038,2039,2048,2065,2082
2047,2045,2035,2037,2033,2045,2066,2078
2044,2043,2031,2041,2034,2043,2060,2079
2046,2044,2032,2041,2035,2041,2055,2058
2047,2045,2032,2033,2034,2038,2060,2057
2049,2048,2036,2040,2029,2038,2048,2048
2041,2051,2039,2035,2034,2040,2026,2044
2044,2046,2031,2038,2044,2039,2050,2033
2044,2046,2026,2037,2043,2049,2045,2022
2034,2041,2028,2035,2044,2048,2041,2022
2038,2037,2023,2035,2041,2043,2047,2016
2036,2033,2023,2031,2040,2037,2039,2013
2036,2039,2021,2036,2050,2044,2043,2012
2040,2031,2024,2039,2067,2037,2036,2005
2038,2031,2024,2047,2067,2030,2060,1999
2034,2021,2017,2037,2054,2034,2039,2004
2040,2031,2022,2037,2045,2032,2060,2011
2048,2039,2018,2041,2052,2043,2075,2010
2045,2033,2016,2040,2053,2050,2059,2012
2050,2036,2015,2042,2055,2056,2064,2012
2046,2029,2020,2040,2058,2058,2050,2011
2039,2028,2024,2047,2062,2062,2046,2017
2042,2030,2020,2048,2065,2069,2054,2032
2046,2032,2024,2046,2065,2070,2052,2039
2049,2037,2025,2041,2061,2074,2054,2043
2048,2046,2024,2042,2038,2067,2037,2041
2047,2043,2021,2033,2014,2077,2034,2046
2046,2036,2020,2025,2007,2073,2059,2061
2044,2034,2021,2022,2005,2070,2045,2062
2038,2033,2023,2027,2019,2049,2047,2066
2045,2032,2030,2040,2032,2027,2058,2080
2048,2039,2037,2049,2060,2019,2053,2085
2042,2035,2039,2063,2077,2030,2034,2090
2044,2037,2044,2062,2076,2051,2064,2096
2045,2055,2052,2057,2077,2059,2058,2095
2051,2054,2053,2055,2073,2054,2058,2086
2051,2059,2053,2049,2061,2053,2066,2082
2057,2060,2051,2045,2049,2049,2073,2069
2055,2058,2049,2044,2045,2059,2074,2059
2054,2048,2051,2043,2040,2057,2065,2052
2055,2044,2043,2041,2039,2053,2063,2039
2048,2045,2034,2045,2043,2049,2074,2041
2060,2051,2042,2050,2054,2056,2064,2030
2067,2044,2044,2050,2058,2058,2083,2026
2056,2043,2045,2052,2053,2060,2076,2022
2051,2043,2036,2052,2062,2059,2076,2024
2053,2041,2035,2053,2061,2051,2083,2019
2043,2050,2038,2058,2058,2052,2069,2010
2041,2045,2042,2056,2058,2066,2070,2004
2039,2061,2048,2059,2059,2076,2071,2011
2052,2069,2057,2066,2067,2085,2069,2009
2050,2057,2045,2062,2061,2085,2067,2008
2041,2051,2032,2059,2059,2081,2075,2014
2041,2045,2023,2053,2060,2074,2075,2015
2038,2042,2022,2049,2054,2079,2073,2021
2038,2048,2033,2046,2056,2075,2069,2030
2050,2054,2041,2040,2053,2074,2046,2044
2049,2058,2054,2037,2057,2066,2063,2048
2050,2061,2062,2033,2061,2064,2042,2058
2048,2072,2085,2042,2065,2032,2070,2058
2050,2077,2100,2057,2066,1985,2064,2069
2059,2076,2096,2056,2061,1961,2048,2079
2061,2073,2085,2047,2059,1988,2040,2087
2053,2068,2072,2045,2058,2021,2057,2089
2059,2064,2069,2042,2052,2037,2050,2090
2047,2056,2063,2048,2048,2046,2070,2096
2045,2054,2069,2051,2047,2058,2052,2090
2052,2069,2073,2056,2041,2064,2048,2087
2051,2072,2071,2055,2042,2060,2052,2081
2054,2071,2062,2053,2044,2050,2039,2070
2051,2065,2061,2052,2047,2044,2038,2059
2050,2064,2056,2057,2051,2046,2032,2046
2044,2065,2055,2051,2056,2048,2041,2047
2052,2064,2064,2058,2068,2049,2053,2046
2049,2058,2062,2059,2069,2048,2051,2041
2052,2061,2062,2061,2073,2053,2058,2035
2050,2057,2073,2067,2074,2057,2052,2036
2049,2055,2070,2067,2074,2059,2046,2026
2042,2053,2068,2056,2064,2045,2042,2024
2039,2050,2054,2045,2055,2042,2056,2020
2045,2043,2050,2040,2044,2038,2028,2021
2041,2032,2044,2036,2037,2037,2044,2005
2028,2038,2048,2038,2036,2045,2061,1997
2038,2051,2059,2043,2038,2049,2073,2009
2041,2056,2063,2044,2013,2038,2078,2012
2041,2057,2062,2032,1994,2033,2046,2010
2049,2056,2057,2033,1968,2006,2063,2025
2050,2056,2055,2026,1964,1967,2052,2031
2048,2055,2052,2030,1980,1982,2058,2025
2046,2050,2045,2037,2017,2012,2056,2033
2043,2052,2052,2054,2048,2037,2057,2045
2057,2053,2047,2064,2079,2047,2064,2057
2053,2050,2045,2072,2115,2057,2072,2071
2058,2050,2036,2068,2120,2071,2075,2079
2053,2046,2032,2060,2106,2061,2071,2085
2050,2043,2026,2056,2084,2060,2070,2081
2046,2040,2020,2056,2071,2056,2083,2087
2049,2035,2011,2052,2068,2044,2077,2083
2038,2024,1998,2056,2058,2040,2053,2078
2040,2029,2004,2057,2064,2047,2057,2084
2046,2038,2001,2058,2066,2061,2042,2082
2048,2041,1998,2050,2046,2072,2065,2077
2047,2040,1993,2036,2031,2055,2041,2057
2040,2040,1991,2046,2033,2039,1995,2044
2046,2041,1988,2042,2040,2031,1998,2040
2052,2042,1991,2041,2036,2024,1991,2031
2049,2044,1996,2028,2022,2011,1999,2031
2053,2044,1991,2018,2014,1998,2004,2023
2042,2045,2005,2015,2012,2006,2001,2012
2047,2047,2023,2017,2017,2018,2021,2014
2049,2059,2049,2017,2034,2044,2041,2017
2049,2053,2050,2018,2046,2062,2048,2000
2042,2048,2038,2015,2062,2079,2053,1994
2040,2044,2043,2013,2069,2084,2057,1993
2037,2033,2054,2011,2065,2075,2042,1994
2036,2035,2061,2016,2062,2069,2045,2004
2039,2037,2074,2030,2056,2061,2031,2007
2044,2047,2080,2040,2057,2051,2053,2017
2046,2055,2101,2045,2058,2051,2065,2018
2052,2064,2107,2052,2067,2062,2063,2024
2051,2069,2104,2058,2066,2073,2052,2029
2055,2072,2097,2065,2058,2092,2059,2033
2060,2072,2092,2064,2055,2082,2074,2037
2056,2060,2084,2061,2063,2063,2074,2044
2053,2056,2073,2053,2066,2048,2072,2047
2048,2062,2074,2055,2068,2046,2074,2057
2046,2058,2069,2059,2069,2047,2062,2059
2051,2054,2065,2053,2067,2051,2059,2074
2045,2055,2066,2054,2066,2045,2045,2067
2043,2056,2069,2056,2066,2048,2062,2077
2041,2053,2065,2051,2064,2052,2038,2080
2036,2042,2061,2046,2054,2045,2028,2081
2040,2053,2061,2050,2058,2044,2039,2083
2042,2052,2059,2056,2056,2035,2035,2083
2049,2055,2059,2048,2047,2040,2040,2070
2047,2051,2052,2047,2040,2039,2022,2064
2044,2045,2046,2042,2029,2049,2037,2051
2041,2047,2048,2034,2029,2044,2027,2040
2048,2046,2047,2036,2024,2037,2027,2034
2049,2045,2041,2036,2020,2020,2031,2027
2044,2050,2034,2036,2008,2003,2016,2028
2046,2048,2040,2045,2000,1996,2036,2023
2046,2046,2046,2054,1991,1988,2005,2015
2041,2042,2050,2056,1993,2010,2020,2009
2038,2035,2049,2056,2008,2065,2031,2000
2040,2034,2055,2079,2057,2124,2057,2011
2046,2039,2061,2094,2091,2173,2059,2005
2041,2035,2045,2086,2086,2192,2063,1997
2039,2032,2044,2085,2088,2184,2084,2011
2043,2038,2049,2091,2100,2152,2077,2015
2052,2039,2050,2094,2098,2083,2055,2004
2042,2034,2054,2092,2075,1985,2028,2010
2037,2039,2058,2087,2057,1981,2040,2007
2036,2039,2054,2082,2056,2012,2045,2010
2036,2035,2060,2084,2060,2026,2050,2026
2031,2030,2054,2068,2049,2028,2052,2037
2030,2026,2049,2053,2052,2037,2041,2048
2030,2030,2046,2033,2045,2032,2053,2047
2036,2028,2041,2030,2042,2029,2044,2061
2032,2035,2040,2028,2045,2031,2052,2064
2032,2035,2038,2029,2049,2045,2056,2073
2043,2041,2043,2039,2064,2060,2061,2078
2050,2042,2033,2038,2065,2052,2060,2077
2039,2036,2020,2033,2061,2052,2040,2081
2046,2038,2009,2009,2053,2048,2047,2079
2044,2041,2000,2002,2050,2046,2048,2071
2041,2039,2015,2007,2038,2048,2040,2077
2045,2044,2033,2014,2046,2045,2049,2073
2055,2053,2043,2000,2050,2053,2047,2065
2058,2061,2039,2007,2046,2054,2047,2058
2064,2062,2039,2006,2055,2056,2042,2060
2066,2051,2038,2014,2051,2052,2051,2049
2059,2048,2038,2022,2051,2052,2050,2047
2065,2053,2036,2023,2045,2053,2056,2042
2054,2059,2050,2024,2044,2048,2061,2035
2050,2057,2062,2031,2043,2047,2060,2024
2054,2060,2067,2031,2038,2038,2065,2017
2052,2064,2069,2032,2038,2030,2037,2016
2050,2059,2057,2025,2031,2033,2039,2015
2048,2049,2045,2022,2036,2046,2047,2009
2047,2055,2044,2032,2037,2068,2047,2010
2050,2060,2054,2033,2037,2079,2067,2012
2058,2066,2063,2037,2044,2086,2054,2007
2054,2069,2071,2034,2031,2076,2055,2015
2062,2069,2075,2041,2042,2041,2065,2033
2067,2072,2083,2047,2058,2017,2058,2038
2062,2066,2072,2048,2058,2043,2066,2034
2059,2056,2068,2045,2039,2057,2064,2034
2054,2058,2084,2054,2036,2047,2026,2056
2052,2066,2088,2058,2051,2025,2036,2059
2052,2063,2079,2058,2033,2025,2039,2068
2048,2059,2073,2056,2024,2029,2029,2078
2048,2060,2069,2050,2049,2049,2042,2077
2045,2052,2060,2044,2057,2074,2047,2073
2040,2045,2053,2035,2037,2070,2040,2068
2036,2034,2049,2033,2033,2074,2054,2064
2033,2034,2058,2044,2012,2061,2035,2072
2036,2035,2064,2044,2008,2036,2041,2071
2040,2041,2065,2058,2036,2027,2063,2074
2041,2041,2068,2066,2048,2032,2063,2076
2050,2043,2065,2056,2014,2034,2051,2059
2049,2042,2063,2056,2045,2046,2061,2054
2052,2044,2056,2062,2068,2063,2050,2047
2048,2044,2056,2065,2073,2076,2041,2040
2049,2041,2047,2066,2065,2075,2058,2038
2049,2045,2040,2061,2052,2078,2061,2036
2051,2044,2035,2054,2048,2069,2045,2030
2050,2042,2021,2056,2058,2072,2066,2021
2041,2035,2008,2038,2066,2070,2038,2005
2038,2032,2005,2030,2077,2030,2037,2005
2040,2030,2003,2038,2083,2019,2049,1998
2033,2022,2007,2024,2084,2022,2049,1998
2039,2023,2013,2014,2082,2048,2041,2006
2052,2038,2025,2015,2089,2061,2056,2012
2050,2039,2027,2004,2105,2076,2062,2007
2048,2042,2027,1998,2093,2078,2069,2016
2055,2043,2031,1998,2076,2074,2072,2023
2052,2047,2035,1986,2051,2072,2074,2020
2044,2049,2039,1989,2034,2044,2066,2026
2035,2045,2038,1999,2057,2005,2069,2032
2032,2042,2038,2014,2100,2022,2069,2047
2046,2046,2033,2044,2142,2062,2061,2059
2046,2043,2027,2075,2160,2085,2062,2077
2048,2041,2027,2093,2138,2092,2065,2092
2047,2036,2032,2091,2056,2081,2067,2094
2043,2035,2039,2080,2043,2083,2053,2094
2042,2039,2045,2087,2045,2074,2069,2081
2031,2028,2040,2089,2044,2051,2030,2069
2026,2027,2044,2090,2045,2040,2025,2081
2025,2032,2047,2093,2047,2034,2051,2076
2041,2030,2041,2078,2041,2036,2059,2077
2038,2037,2050,2067,2051,2046,2036,2076
2052,2052,2054,2062,2060,2053,2041,2074
2056,2058,2066,2056,2059,2058,2063,2057
2049,2061,2067,2050,2054,2061,2075,2057
2052,2054,2065,2039,2046,2055,2079,2046
2056,2056,2067,2036,2036,2059,2060,2042
2056,2056,2076,2019,2036,2051,2046,2033
2048,2050,2076,2003,2029,2045,2061,2024
2039,2046,2068,1997,2024,2044,2061,2015
2040,2040,2070,1997,2028,2057,2061,2015
2045,2051,2065,1999,2037,2056,2071,2013
2051,2051,2060,2003,2040,2055,2070,2003
2046,2048,2054,2012,2039,2057,2061,2008
2045,2052,2064,2018,2048,2057,2046,2009
2057,2064,2071,2031,2053,2064,2056,2017
2058,2065,2076,2034,2057,2083,2047,2018
2052,2061,2070,2038,2058,2082,2040,2023
2053,2064,2062,2043,2060,2086,2060,2022
2060,2059,2059,2039,2056,2080,2068,2029
2058,2057,2058,2044,2062,2044,2080,2040
2055,2052,2056,2049,2077,2033,2060,2043
2055,2048,2065,2054,2087,2038,2068,2044
2052,2049,2076,2061,2091,2045,2053,2050
2048,2053,2073,2064,2089,2039,2047,2056
2039,2046,2062,2060,2083,2041,2049,2068
2037,2046,2057,2060,2083,2051,2058,2082
2044,2050,2056,2064,2078,2051,2078,2096
2049,2052,2060,2058,2073,2046,2066,2092
2040,2037,2041,2051,2068,2038,2060,2083
2035,2034,2052,2051,2054,2043,2057,2081
2040,2046,2085,2059,2026,2044,2052,2084
2043,2051,2109,2074,1997,2046,2046,2087
2048,2057,2107,2079,2006,2040,2066,2084
2052,2048,2094,2084,2021,2041,2061,2073
2057,2052,2075,2086,2016,2039,2062,2065
2055,2053,2069,2100,2020,2034,2054,2061
2054,2054,2071,2101,2024,2040,2062,2060
2046,2052,2066,2099,2029,2040,2065,2050
2052,2054,2054,2101,2035,2046,2053,2047
2053,2054,2052,2092,2035,2050,2063,2045
2047,2050,2056,2090,2029,2052,2064,2043
2046,2049,2054,2093,2041,2051,2059,2030
2040,2058,2074,2104,2043,2053,2064,2020
2051,2057,2089,2086,2042,2046,2057,2012
2040,2046,2072,2063,2035,2034,2051,2010
2035,2031,2042,2034,2034,2027,2041,2015
2042,2034,2029,2019,2050,2029,2051,2018
2040,2035,2018,2019,2054,2041,2050,2016
2043,2051,2037,2042,2068,2056,2060,2027
2060,2074,2066,2061,2081,2066,2075,2038
2069,2078,2071,2074,2082,2046,2064,2044
2063,2070,2060,2067,2062,2032,2055,2054
2057,2059,2058,2054,2052,2045,2072,2057
2050,2047,2044,2038,2047,2072,2071,2057
2048,2046,2040,2024,2051,2100,2074,2059
2037,2043,2040,2001,2028,2106,2084,2069
2038,2037,2036,1977,2010,2096,2081,2074
2038,2045,2043,1965,1999,2092,2078,2088
2041,2045,2047,1964,2004,2073,2076,2097
2040,2046,2044,1983,2025,2037,2075,2095
2038,2035,2031,2005,2059,2029,2051,2096
2031,2032,2035,2024,2068,2038,2057,2102
2034,2042,2050,2018,2066,2053,2057,2090
2041,2041,2053,2019,2056,2069,2060,2084
2040,2042,2054,2005,2035,2043,2069,2071
2031,2038,2049,2003,2018,1986,2053,2062
2026,2034,2050,2010,2014,1961,2032,2054
2035,2038,2047,2017,2012,1977,2012,2043
2034,2041,2052,2032,2020,2001,1997,2041
2027,2037,2056,2039,2042,2040,2011,2031
2036,2039,2055,2036,2053,2046,2015,2030
2044,2057,2064,2037,2062,2042,2025,2036
2050,2060,2064,2037,2059,2039,2042,2043
2059,2054,2062,2039,2052,2035,2034,2031
2051,2052,2062,2040,2047,2022,2028,2029
2052,2047,2052,2038,2053,2022,2043,2016
2047,2042,2048,2038,2045,2023,2034,2021
2046,2038,2046,2037,2044,2029,2053,2016
2043,2042,2052,2042,2043,2042,2059,2021
2038,2041,2051,2042,2035,2047,2046,2026
2041,2048,2052,2045,2039,2052,2050,2026
2040,2047,2054,2050,2046,2051,2050,2036
2046,2051,2048,2053,2062,2052,2044,2039
2047,2052,2058,2056,2072,2068,2043,2041
2050,2051,2050,2056,2076,2066,2064,2051
2045,2050,2047,2053,2072,2052,2034,2053
2043,2037,2043,2052,2073,2040,2049,2061
2043,2041,2045,2066,2057,2039,2038,2064
2038,2036,2044,2077,2090,2046,2036,2067
2044,2046,2052,2080,2109,2047,2047,2077
2046,2045,2061,2085,2086,2057,2038,2085
2044,2044,2065,2084,2057,2057,2020,2096
2049,2045,2061,2066,1987,2031,2013,2081
2037,2037,2048,2047,1903,2023,1996,2075
2045,2035,2050,2062,1896,2016,2012,2073
2044,2031,2052,2078,1879,2017,2018,2065
2035,2041,2069,2074,1847,1992,2042,2051
2030,2044,2073,2078,1894,1952,2022,2061
2025,2045,2078,2097,1996,1966,2044,2067
2031,2049,2073,2103,2029,2008,2043,2068
2044,2058,2077,2098,2069,2046,2032,2066
2050,2057,2073,2092,2064,2053,2038,2062
2060,2065,2070,2084,2038,2047,2054,2055
2062,2063,2075,2081,2021,2051,2064,2048
2065,2066,2076,2082,2028,2042,2067,2038
2045,2056,2059,2069,2050,2048,2043,2018
2038,2051,2043,2036,2096,2064,2032,2002
2035,2041,2033,2024,2138,2071,2022,1997
2034,2043,2033,2023,2131,2065,2035,1993
2033,2036,2028,2030,2100,2048,2035,1995
2033,2041,2024,2032,2120,2030,2036,2017
2043,2050,2036,2063,2168,2039,2038,2025
2054,2055,2053,2066,2160,2057,2037,2026
2060,2054,2048,2035,2085,2075,2030,2029
2044,2043,2025,2001,2009,2067,2045,2032
2040,2036,2009,1985,1959,2050,2045,2033
2042,2033,2016,1980,1917,2032,2040,2040
2039,2029,2011,1978,1945,2027,2042,2049
2038,2030,2011,1976,1958,2012,2031,2050
2036,2026,2013,1978,1960,2015,2025,2060
2040,2038,2021,2008,2008,2038,2040,2069
2034,2049,2037,2022,2005,2045,2021,2074
2030,2046,2033,2013,1984,2045,2030,2076
2034,2045,2041,2027,2013,2065,2044,2084
2043,2050,2044,2039,2037,2047,2046,2088
2035,2045,2042,2054,2073,2034,2068,2095
2043,2048,2047,2068,2118,2052,2069,2103
2055,2056,2053,2080,2146,2093,2071,2116
2054,2058,2054,2085,2149,2117,2084,2104
2054,2060,2055,2086,2140,2118,2080,2095
2055,2065,2049,2083,2124,2116,2081,2085
2047,2055,2055,2074,2097,2092,2053,2070
2051,2049,2047,2063,2081,2080,2064,2056
2046,2035,2029,2077,2100,2078,2065,2046
2043,2029,2041,2133,2134,2078,2073,2035
2033,2020,2049,2163,2174,2076,2066,2027
2035,2028,2057,2191,2216,2073,2058,2023
2036,2025,2068,2223,2226,2060,2052,2012
2039,2025,2075,2246,2221,2057,2066,2012
2032,2031,2078,2247,2238,2063,2064,2014
2032,2030,2079,2227,2232,2055,2048,2007
2035,2023,2051,2205,2162,2033,2050,2011
2047,2023,2038,2171,2017,2019,2060,2017
2050,2041,2033,2144,1905,2015,2066,2024
2052,2040,2037,2133,1960,2027,2064,2023
2052,2034,2036,2111,2039,2047,2076,2026
2045,2039,2030,2083,2139,2049,2057,2024
2053,2040,2030,2060,2155,2050,2068,2034
2049,2042,2030,2011,2123,2043,2053,2034
2044,2033,2032,1966,2064,2024,2047,2036
2038,2038,2027,1966,2038,2028,2046,2056
2047,2049,2041,1980,2031,2031,2049,2067
2051,2059,2058,1995,1996,2046,2040,2082
2046,2051,2042,1966,1882,2031,2039,2090
2039,2035,2033,1922,1855,2042,2047,2085
2041,2037,2044,1934,1890,2062,2064,2090
2043,2044,2061,1954,1904,2063,2050,2092
2046,2044,2089,1977,1926,2067,2047,2093
2046,2057,2116,1995,1945,2045,2066,2101
2054,2074,2136,1994,1937,1999,2062,2099
2058,2074,2132,1984,1900,1978,2050,2092
2055,2070,2112,1969,1907,1990,2056,2086
2056,2056,2097,1972,1946,2005,2042,2074
2044,2056,2087,1975,1993,2025,2035,2063
2047,2050,2076,1990,1992,2042,2048,2053
2041,2047,2069,1989,1952,2039,2054,2034
2044,2055,2070,1996,1937,2046,2053,2035
2051,2056,2061,1997,1957,2044,2046,2044
2054,2052,2058,2013,2031,2020,2039,2057
2060,2050,2055,2029,2101,2030,2061,2057
2055,2052,2051,2031,2117,2042,2047,2040
2052,2045,2043,2033,2124,2054,2042,2032
2052,2044,2053,2050,2201,2079,2052,2021
2046,2041,2055,2055,2205,2094,2049,2015
2045,2048,2064,2072,2183,2114,2060,2026
2052,2061,2068,2077,2184,2131,2070,2020
2053,2054,2068,2085,2186,2134,2063,2029
2052,2045,2060,2062,2173,2117,2064,2019
2043,2040,2052,2032,2093,2054,2045,2021
2041,2041,2050,2015,2026,2011,2043,2028
2046,2038,2051,2026,2073,2020,2022,2033
2047,2051,2065,2050,2072,2033,2032,2046
2049,2055,2072,2058,2100,2039,2036,2050
2045,2039,2070,2071,2112,2034,2027,2055
2046,2037,2060,2058,2094,2013,2042,2076
2047,2029,2052,2038,2024,1988,2050,2079
2046,2034,2049,2033,1976,1988,2040,2087
2051,2032,2042,2020,1945,1986,2029,2084
2051,2030,2046,2025,1965,1994,2031,2082
2042,2028,2042,2030,2028,2014,2019,2084
2037,2033,2046,2044,2075,2034,2028,2089
2033,2040,2050,2047,2063,2027,2028,2086
2038,2038,2050,2038,2037,2016,2028,2071
2032,2032,2044,2029,2008,2015,2026,2062
2033,2032,2042,2030,2011,2018,2042,2066
2033,2028,2044,2035,2012,2030,2031,2065
2039,2025,2037,2032,2026,2039,2054,2055
2042,2031,2038,2037,2045,2050,2039,2046
2049,2038,2052,2048,2066,2043,2040,2044
2052,2050,2057,2054,2069,2035,2056,2045
2064,2059,2068,2060,2072,2042,2052,2037
2070,2068,2069,2068,2068,2064,2057,2036
2064,2068,2064,2062,2064,2081,2065,2028
2059,2065,2060,2052,2031,2098,2074,2025
2064,2056,2054,2024,2006,2090,2070,2023
2049,2040,2039,2018,1997,2071,2059,2008
2036,2024,2035,2026,1980,2056,2063,2010
2039,2036,2043,2042,1995,2054,2044,2004
2044,2041,2049,2056,2010,2064,2060,2016
2049,2051,2052,2060,2005,2064,2060,2028
2058,2054,2051,2053,1941,2054,2043,2029
2061,2057,2058,2057,1939,2077,2025,2028
2058,2053,2059,2050,1952,2081,2017,2023
2041,2043,2043,2035,1936,2039,1998,2018
2036,2034,2040,2021,1971,1986,1990,2026
2043,2044,2052,2036,2048,1959,2001,2053
2056,2058,2058,2073,2154,1938,2023,2085
2065,2058,2056,2096,2209,1978,2054,2085
2053,2042,2045,2080,2196,2023,2072,2081
2047,2030,2031,2065,2162,2066,2057,2073
2047,2031,2038,2050,2065,2048,2045,2053
2030,2015,2024,2000,1888,2000,2001,2057
2021,2026,2033,2018,1975,2008,2033,2070
2041,2049,2062,2064,2052,2038,2016,2078
2049,2065,2070,2089,2077,2038,2021,2074
2053,2060,2065,2093,2116,2042,2026,2061
2054,2051,2061,2094,2158,2050,2041,2059
2052,2056,2069,2096,2164,2062,2040,2057
2055,2057,2068,2085,2128,2064,2045,2048
2056,2058,2066,2061,2028,2067,2040,2030
2050,2055,2057,2026,1886,2056,2024,2019
2046,2044,2054,2028,1890,2064,2025,2016
2046,2048,2056,2031,1926,2067,2037,2022
2053,2053,2056,2030,1944,2008,2022,2026
2059,2048,2056,2033,1958,1972,2029,2027
2056,2047,2055,2043,1993,1980,2057,2027
2056,2043,2058,2050,2002,1998,2027,2010
2044,2031,2050,2049,1992,2021,2040,2002
2046,2031,2051,2056,2020,2032,2016,2009
2054,2050,2046,2055,2007,2022,2017,2009
2046,2044,2046,2051,1988,2040,2033,2011
2043,2041,2040,2039,1999,2059,2050,2017
2049,2053,2054,2036,2014,2059,2035,2024
2064,2060,2060,2028,2029,2069,2028,2038
2068,2060,2058,2049,2103,2072,2033,2044
2061,2050,2047,2078,2217,2066,2052,2058
2061,2055,2055,2114,2286,2097,2072,2071
2072,2064,2062,2131,2320,2116,2087,2087
2070,2065,2067,2113,2280,2128,2081,2082
2062,2055,2064,2093,2206,2134,2074,2088
2059,2056,2057,2063,2030,2090,2048,2081
2055,2049,2045,2029,1872,2041,2048,2074
2037,2045,2030,2012,1833,2029,2009,2068
2031,2036,2024,2011,1847,1999,2018,2068
2041,2039,2038,2024,1907,1990,2030,2084
2053,2052,2047,2045,1985,2028,2055,2085
2052,2058,2058,2048,1997,2033,2056,2088
2052,2060,2065,2043,1954,2033,2058,2080
2062,2057,2063,2036,1901,2020,2049,2078
2060,2052,2054,2036,1912,2022,2062,2063
2056,2055,2050,2058,2042,2059,2068,2044
2056,2048,2062,2102,2212,2109,2083,2048
2066,2047,2074,2123,2292,2122,2079,2037
2065,2050,2062,2115,2269,2133,2061,2040
2069,2051,2060,2124,2291,2160,2078,2043
2074,2048,2065,2124,2306,2157,2088,2044
2082,2053,2054,2100,2280,2114,2072,2044
2079,2045,2043,2076,2239,2095,2058,2046
2080,2035,2031,2078,2158,2103,2042,2028
2070,2026,2033,2054,2009,2055,2055,2016
2068,2035,2039,2026,1952,2014,2038,2010
2058,2036,2047,1985,1787,1968,2034,1996
2038,2031,2051,1994,1922,1983,2036,1996
2035,2035,2060,2037,2091,2034,2039,2010
2034,2039,2074,2079,2192,2061,2062,2021
2030,2050,2069,2075,2173,2070,2057,2032
2035,2046,2063,2070,2084,2071,2062,2042
2040,2049,2059,2063,1972,2076,2041,2048
2046,2046,2064,2059,1871,2093,2067,2064
2047,2052,2066,2070,1901,2129,2070,2075
2052,2057,2066,2064,1945,2168,2103,2086
2052,2054,2056,2044,1952,2183,2063,2074
2033,2045,2050,2035,1844,2174,2075,2085
2047,2048,2054,2043,1893,2134,2082,2100
2056,2044,2051,2066,2090,2032,2059,2092
2048,2038,2047,2070,2181,1971,2049,2094
2050,2053,2059,2084,2171,1988,2037,2096
2062,2060,2064,2070,2133,2004,2026,2092
2054,2056,2059,2065,2098,2042,2036,2082
2053,2051,2052,2084,2048,2062,2024,2067
2049,2048,2054,2100,2035,2061,2052,2055
2044,2047,2066,2120,2090,2024,2040,2048
2052,2056,2082,2149,2140,1983,2051,2058
2057,2062,2096,2156,2130,1992,2036,2053
2064,2062,2090,2131,2038,1999,2052,2042
2060,2055,2078,2106,1963,2000,2045,2020
2068,2055,2065,2085,1936,2004,2044,2023
2068,2047,2042,2053,1834,2031,2058,2033
2072,2037,2039,2064,1923,2061,2045,2031
2081,2046,2042,2064,1954,2060,2026,2031
2068,2043,2040,2040,1922,2050,2014,1997
2038,2030,2028,2039,1884,2052,2015,1979
2034,2022,2031,2049,1875,2079,2041,1994
2036,2018,2030,2056,1935,2075,2056,1998
2034,2015,2030,2066,1936,2038,2061,2023
2030,2026,2019,2054,1931,2021,2054,2038
2033,2038,2020,2038,2000,2043,2066,2044
2054,2066,2042,2050,2072,2085,2080,2056
2074,2065,2039,2044,2136,2069,2067,2056
2068,2045,2028,2036,2186,2037,2052,2061
2059,2039,2027,2016,2197,2002,2058,2059
2049,2034,2014,1968,1981,1934,2041,2051
2044,2028,2020,1961,1957,1935,2013,2061
2044,2032,2031,2004,2080,1981,2035,2079
2044,2037,2047,2043,2119,2015,2046,2094
2057,2051,2051,2046,2084,2021,2047,2099
2058,2064,2062,2041,2056,2003,2028,2094
2052,2060,2060,2031,2039,1989,2003,2088
2049,2065,2062,2049,2103,2003,2024,2088
2044,2062,2064,2059,2145,2020,2035,2080
2053,2066,2064,2068,2160,2040,2028,2079
2051,2054,2053,2073,2151,2042,2013,2067
2045,2044,2052,2082,2139,2034,2020,2062
2053,2045,2050,2075,2117,2020,2041,2074
2053,2045,2052,2055,2035,2023,2054,2074
2065,2048,2046,2036,1961,2040,2061,2077
2076,2054,2049,1997,1752,2057,2053,2055
2062,2051,2039,1947,1584,2059,2052,2016
2044,2040,2039,1968,1789,2071,2028,1988
2026,2030,2031,1991,1921,2091,2010,1990
2025,2019,2027,1993,1963,2106,2052,2009
2040,2004,2017,1998,1944,2092,2047,2011
2033,1997,2008,2018,2063,2050,2022,1986
2017,1990,2003,2048,2207,2013,2020,1987
2027,2014,2030,2090,2344,2045,2044,2008
2048,2044,2053,2104,2318,2063,2055,2015
2047,2053,2055,2095,2200,2072,2071,2019
2057,2065,2067,2088,2129,2075,2070,2034
2061,2071,2065,2078,2085,2068,2064,2036
2063,2071,2059,2067,2051,2059,2069,2042
2064,2069,2062,2059,2005,2049,2047,2043
2061,2058,2047,2045,1983,2036,2041,2049
2050,2057,2052,2053,1945,2019,2064,2050
2053,2049,2049,2056,1965,2029,2065,2067
2054,2048,2054,2070,2009,2049,2056,2079
2065,2056,2061,2079,2038,2047,2059,2088
2065,2058,2057,2075,2019,2030,2060,2101
2067,2054,2054,2063,1899,2040,2072,2108
2070,2059,2055,2069,1879,2049,2065,2108
2066,2054,2052,2089,2016,2107,2055,2109
2067,2048,2044,2119,2140,2175,2070,2111
2078,2050,2043,2136,2171,2204,2073,2100
2066,2044,2042,2134,2191,2176,2082,2092
2045,2036,2039,2137,2228,2174,2072,2078
2043,2032,2041,2142,2257,2134,2059,2076
2044,2042,2039,2104,2273,2038,2033,2069
2039,2039,2018,2081,2344,1996,2016,2042
2031,2023,2004,2029,2166,1918,1989,2027
2026,2016,1992,1991,2049,1906,1972,2018
2027,2015,1995,2022,2018,1943,1983,2026
2037,2021,2015,2028,1956,1965,2003,2022
2043,2026,2011,1993,1846,1956,2000,2009
2028,2032,2029,1978,1865,1984,1990,2000
2028,2050,2063,2031,2016,2028,2018,2023
2043,2061,2070,2061,2104,2065,2030,2020
2040,2051,2066,2065,2102,2034,2043,2017
2041,2059,2069,2068,2084,2015,2018,2010
2046,2062,2071,2067,2062,2014,2019,2014
2043,2060,2070,2069,2057,2025,2038,2018
2047,2060,2067,2067,2056,2041,2031,2021
2048,2051,2066,2066,2046,2061,2046,2027
2046,2053,2058,2062,2054,2070,2058,2037
2044,2051,2056,2061,2032,2082,2070,2041
2045,2040,2050,2040,2003,2094,2056,2036
2049,2034,2040,2045,2020,2092,2064,2042
2043,2037,2042,2044,2017,2090,2047,2055
2050,2043,2048,2048,2022,2077,2052,2072
2053,2050,2064,2068,2088,2033,2043,2088
2064,2060,2076,2083,2098,2068,2035,2091
2056,2048,2053,2069,2066,2109,2050,2087
2058,2041,2046,2052,2021,2138,2038,2069
2037,2030,2032,2041,2012,2132,2014,2061
2020,2027,2033,2044,2055,2056,2043,2090
2037,2050,2064,2079,2153,1993,2046,2116
2055,2056,2066,2087,2184,2017,2069,2107
2047,2050,2064,2086,2123,2039,2048,2091
2044,2049,2058,2072,2098,2034,2041,2074
2035,2047,2050,2054,2047,2027,2046,2053
2033,2045,2050,2042,2000,2042,2060,2056
2062,2042,2042,2030,1949,2034,2053,2055
2059,2042,2029,2017,1885,2011,2030,2038
2049,2035,2029,2040,1935,2024,2040,2030
2041,2034,2026,2061,2023,2035,2029,2023
2041,2035,2032,2066,2042,2032,2014,2008
2058,2040,2040,2061,2052,2034,2027,2008
2049,2044,2041,2063,2042,2046,2040,2009
2059,2049,2049,2058,2019,2042,2037,2010
2051,2045,2041,2044,2023,2038,2042,2012
2058,2044,2041,2042,2069,2056,2050,2027
2061,2058,2049,2056,2050,2068,2063,2030
2063,2064,2051,2071,2018,2070,2072,2031
2056,2056,2047,2070,2059,2066,2061,2023
2052,2054,2043,2069,2086,2070,2065,2030
2050,2048,2043,2076,2105,2073,2053,2037
2052,2043,2042,2071,2113,2070,2056,2038
2049,2046,2041,2068,2100,2069,2068,2039
2049,2055,2043,2068,2053,2060,2036,2043
2057,2060,2042,2058,2017,2060,2050,2062
2061,2052,2031,2050,1981,2055,2031,2063
2054,2047,2024,2033,1943,2060,2043,2054
2045,2034,2033,2047,1982,2078,2051,2052
2036,2042,2042,2065,2015,2092,2032,2064
2040,2046,2044,2067,2037,2072,2018,2072
2032,2036,2036,2063,2045,2026,2010,2081
2030,2036,2038,2077,2086,2016,2019,2084
2045,2041,2038,2085,2125,2032,2027,2083
2049,2040,2038,2084,2122,2060,2044,2080
2051,2039,2028,2076,2109,2071,2030,2080
2053,2039,2020,2069,2082,2071,2022,2072
2047,2038,2023,2070,2057,2083,2023,2050
2055,2051,2031,2060,2042,2092,2032,2036
2053,2048,2032,2069,2061,2090,2046,2026
2056,2046,2030,2069,2036,2107,2028,2017
2056,2037,2027,2060,2014,2114,2010,2018
2053,2038,2025,2054,2005,2091,2013,2020
2047,2050,2024,2057,2034,2064,2009,2027
2055,2051,2030,2070,2088,2054,2013,2023
2053,2050,2037,2073,2104,2020,2054,2028
2060,2054,2048,2073,2045,2005,2061,2024
2054,2049,2040,2055,1962,1957,2033,2017
2047,2047,2043,2042,1968,1920,2016,2010
2052,2056,2057,2030,1968,1937,2009,2007
2044,2041,2046,2020,1932,1948,2032,2000
2045,2040,2062,2028,1923,1986,2040,2011
2051,2053,2086,2041,1916,2012,2047,2029
2069,2062,2105,2063,1960,2045,2058,2045
2073,2060,2102,2097,2074,2096,2082,2049
2061,2047,2079,2109,2090,2114,2054,2039
2059,2046,2067,2080,2008,2099,2045,2036
2052,2037,2056,2050,1899,2045,2031,2029
2039,2023,2041,2028,1915,2026,2021,2025
2031,2024,2043,2047,2016,2020,2027,2042
2037,2030,2044,2066,2136,2017,2026,2051
2031,2034,2047,2092,2227,2040,2045,2072
2045,2046,2057,2109,2219,2063,2056,2087
2049,2041,2046,2098,2154,2068,2046,2081
2041,2032,2043,2086,2125,2073,2034,2079
2040,2038,2044,2096,2150,2079,2034,2072
2047,2039,2043,2092,2142,2087,2038,2063
2047,2042,2046,2084,2119,2107,2030,2059
2048,2035,2041,2065,2086,2107,2030,2051
2040,2023,2029,2050,2070,2073,2016,2043
2040,2026,2026,2043,2050,2041,2026,2044
2046,2034,2029,2038,2050,2039,2018,2036
2048,2030,2031,2035,2047,2039,2030,2037
2043,2029,2038,2028,2030,2035,2036,2029
2044,2035,2048,2038,2028,2044,2046,2030
2044,2041,2065,2048,2030,2053,2038,2031
2049,2049,2073,2053,2036,2062,2041,2030
2052,2051,2057,2050,2017,2073,2048,2025
2052,2048,2059,2047,1989,2087,2067,2027
2058,2047,2051,2064,2040,2116,2054,2011
2050,2033,2043,2066,2044,2131,2047,1998
2048,2036,2034,2073,2077,2139,2045,2003
2046,2032,2038,2072,2099,2134,2057,2006
2042,2028,2032,2076,2174,2113,2075,2013
2048,2037,2042,2080,2195,2053,2071,2025
2046,2041,2045,2068,2131,2015,2045,2018
2040,2039,2055,2091,2140,2028,2052,2036
2042,2044,2070,2103,2100,2046,2053,2030
2052,2040,2064,2097,2052,2070,2084,2049
2048,2039,2055,2070,2048,2101,2084,2069
2059,2028,2048,2050,2011,2131,2068,2085
2056,2027,2041,2057,2170,2168,2070,2099
2069,2021,2037,2057,2272,2188,2060,2104
2070,2023,2032,2055,2256,2193,2044,2081
2042,2020,2026,2059,2256,2221,2042,2073
2034,2013,2021,2078,2303,2267,2047,2073
2031,1992,2012,2077,2227,2216,2040,2080
2029,1999,2011,2006,1677,1996,2021,2073
2035,2020,2033,2025,1669,1791,1982,2080
2028,2040,2053,2056,1829,1799,1979,2058
2023,2050,2057,2082,2040,1901,1991,2053
2037,2054,2064,2112,2143,1972,1989,2029
2033,2051,2062,2075,2052,1967,1979,2025
2034,2064,2072,2027,1954,1937,1967,2032
2044,2060,2061,1997,1918,1953,2001,2016
2033,2053,2051,1995,1984,2017,2012,2007
2028,2042,2051,2016,2016,2042,2035,2013
2031,2051,2057,2042,2052,2054,2045,2013
2034,2057,2066,2055,2078,2043,2049,2004
2044,2056,2064,2049,2064,2038,2033,2001
2045,2052,2064,2057,2062,2039,2032,2001
2048,2053,2063,2051,2057,2039,2023,1996
2044,2042,2057,2053,2064,2039,2018,1994
2044,2044,2061,2057,2073,2049,2033,1999
2041,2050,2064,2058,2072,2032,2030,2001
2040,2052,2060,2064,2071,2007,2026,2005
2030,2046,2057,2050,2063,2022,2029,2006
2033,2041,2048,2052,2060,2025,2041,2010
2038,2042,2056,2056,2057,2038,2048,2024
2042,2040,2055,2054,2059,2048,2053,2035
2044,2046,2056,2057,2061,2047,2062,2041
2051,2045,2057,2051,2061,2041,2035,2048
2055,2049,2050,2045,2057,2032,2027,2047
2053,2051,2053,2051,2059,2038,2016,2061
2056,2054,2059,2059,2062,2045,2033,2075
2044,2054,2058,2057,2064,2047,2052,2090
2042,2059,2051,2055,2067,2046,2045,2091
2049,2059,2054,2051,2065,2046,2043,2077
2033,2044,2048,2050,2061,2041,2052,2077
2032,2042,2050,2049,2062,2041,2053,2078
2041,2051,2053,2055,2061,2039,2050,2079
2050,2056,2055,2057,2060,2041,2041,2079
2048,2052,2054,2047,2050,2047,2052,2067
2051,2052,2049,2040,2025,2058,2050,2053
2042,2046,2049,2036,1993,2064,2044,2038
2033,2046,2039,2035,1981,2056,2040,2027
2030,2036,2042,2036,1996,1987,2028,2036
2039,2040,2054,2059,2031,1935,2037,2040
2052,2050,2065,2074,2084,1954,2050,2049
2051,2064,2067,2084,2137,1995,2052,2043
2054,2067,2066,2078,2157,2065,2047,2035
2056,2054,2057,2072,2156,2144,2056,2020
2050,2051,2052,2061,2112,2182,2050,2006
2051,2051,2044,2060,2094,2170,2040,1998
2036,2037,2034,2052,2096,2142,2047,1995
2035,2038,2044,2064,2100,2069,2049,2019
2049,2054,2043,2052,2012,2011,2051,2018
2046,2047,2029,2032,1901,2031,2050,2011
2044,2052,2033,2023,1944,2053,2056,2015
2049,2055,2029,2012,1964,2053,2056,2010
2046,2049,2031,2021,1994,2061,2054,2018
2049,2051,2041,2061,2091,2062,2044,2027
2047,2059,2043,2085,2177,2072,2066,2053
2049,2056,2050,2086,2175,2085,2087,2069
2057,2050,2047,2061,2097,2073,2085,2071
2060,2054,2052,2050,2069,2091,2066,2076
2048,2046,2046,2045,2022,2064,2062,2067
2040,2046,2056,2029,1972,2019,2046,2062
2043,2055,2056,2027,1948,2020,2040,2058
2043,2056,2052,2024,1943,2014,2019,2055
2028,2038,2044,2022,1979,1972,2030,2058
2034,2043,2054,2056,2101,2001,2057,2077
2054,2057,2071,2083,2180,2055,2069,2077
2051,2056,2068,2097,2226,2089,2085,2069
2053,2058,2068,2094,2216,2110,2098,2065
2054,2062,2076,2089,2164,2090,2071,2055
2056,2060,2064,2069,2102,2060,2061,2050
2054,2056,2058,2058,2069,2049,2057,2042
2053,2055,2054,2061,2080,2050,2071,2030
2056,2058,2057,2065,2080,2056,2068,2033
2055,2056,2057,2063,2074,2046,2062,2029
2052,2052,2055,2059,2064,2027,2051,2020
2047,2051,2051,2062,2064,2019,2042,2012
2051,2049,2051,2060,2076,2021,2046,2013
2047,2048,2048,2062,2100,2029,2052,2007
2052,2054,2041,2065,2095,2032,2030,1998
2046,2040,2036,2057,2081,2028,2011,1996
2042,2039,2037,2059,2082,2038,2022,2005
2049,2046,2055,2061,2088,2041,2047,2010
2045,2050,2058,2061,2089,2042,2047,2005
2054,2054,2052,2060,2086,2056,2049,2020
2057,2048,2053,2071,2100,2068,2067,2028
2059,2052,2051,2080,2099,2078,2059,2027
2060,2047,2052,2077,2094,2086,2068,2031
2058,2049,2043,2076,2090,2092,2055,2031
2051,2039,2038,2074,2085,2102,2059,2032
2053,2038,2046,2078,2092,2094,2063,2032
2048,2043,2055,2090,2090,2096,2063,2043
2054,2055,2062,2088,2089,2099,2061,2062
2057,2064,2062,2092,2088,2089,2058,2072
2056,2068,2065,2093,2080,2077,2054,2070
2061,2064,2058,2087,2063,2054,2054,2075
2048,2050,2051,2073,2042,2036,2032,2067
2045,2040,2047,2071,2035,2008,2019,2067
2041,2050,2044,2061,2029,1986,2022,2054
2033,2047,2038,2064,2055,2005,2046,2062
2048,2059,2053,2075,2077,2033,2026,2061
2051,2063,2059,2061,2058,2028,2024,2054
2047,2061,2055,2044,2044,2029,2038,2037
2046,2051,2061,2032,2042,2019,2039,2036
2041,2050,2059,2029,2050,2019,2040,2033
2045,2054,2063,2030,2062,2028,2050,2037
2048,2057,2059,2027,2062,2038,2058,2030
2051,2056,2051,2021,2056,2041,2042,2029
2050,2050,2046,2023,2046,2047,2041,2029
2056,2058,2054,2020,2044,2038,2043,2021
2057,2059,2065,2022,2026,2037,2036,2016
2053,2061,2064,2031,2028,2040,2050,2013
2051,2054,2054,2034,2051,2068,2039,2007
2056,2052,2056,2040,2025,2100,2056,2019
2060,2060,2052,2047,2022,2112,2072,2015
2062,2051,2047,2046,2038,2072,2058,2011
2050,2044,2041,2035,2030,2038,2046,2005
2036,2044,2046,2043,2021,2029,2043,2019
2039,2051,2054,2054,2054,1995,2051,2027
2045,2059,2056,2047,1984,1978,2041,2044
2044,2056,2055,2041,1934,1997,2040,2040
2042,2053,2055,2051,2028,2035,2047,2039
2045,2056,2059,2061,2064,2049,2058,2060
2053,2060,2055,2069,2109,2057,2064,2074
2052,2056,2051,2062,2104,2058,2078,2078
2048,2050,2047,2050,2070,2028,2083,2077
2040,2051,2049,2059,2112,2004,2058,2081
2041,2052,2049,2056,2168,1997,2044,2080
2028,2044,2035,2060,2182,2011,2040,2070
2021,2034,2034,2061,2154,2056,2065,2070
2035,2045,2037,2060,2130,2096,2070,2071
2040,2044,2035,2058,2100,2094,2047,2070
2042,2041,2032,2045,2087,2076,2042,2057
2035,2038,2031,2034,2039,2035,2034,2057
2035,2038,2031,2033,2020,2082,2033,2049
2034,2037,2031,2048,2051,2115,2040,2045
2042,2036,2027,2043,2055,2143,2043,2028
2038,2037,2025,2045,2052,2132,2059,2032
2038,2036,2020,2044,2059,2114,2030,2017
2037,2029,2002,2044,2066,2075,2010,2016
2032,2032,2008,2057,2085,2023,2017,2011
2038,2028,2012,2058,2062,2014,2037,2007
2031,2027,2011,2049,2053,2019,2037,1998
2035,2024,2002,2055,2050,2035,2034,1994
2024,2013,2005,2051,2066,2027,2015,1970
2013,2006,2002,2054,2079,2015,2018,1977
2028,2019,2017,2070,2081,2016,2035,1994
2033,2038,2021,2084,2078,2026,2042,1994
2038,2047,2022,2077,2075,2043,2052,2006
2048,2059,2023,2084,2073,2063,2072,2024
2053,2060,2029,2095,2078,2064,2066,2034
2055,2062,2030,2094,2076,2067,2064,2035
2063,2062,2036,2094,2072,2065,2060,2040
2046,2058,2036,2084,2062,2060,2052,2042
2042,2060,2040,2074,2059,2059,2055,2053
2042,2058,2043,2063,2051,2062,2054,2056
2036,2049,2045,2049,2050,2062,2044,2068
2039,2041,2052,2035,2034,2072,2046,2070
2037,2054,2061,2034,2043,2085,2051,2084
2041,2062,2065,2037,2053,2107,2059,2085
2041,2063,2075,2042,2058,2124,2044,2080
2037,2053,2083,2043,2056,2151,2045,2088
2048,2060,2082,2042,2053,2131,2059,2080
2047,2063,2090,2045,2054,2052,2047,2083
2044,2061,2090,2044,2039,1942,2050,2070
2045,2064,2084,2050,2042,1957,2040,2066
2043,2060,2076,2052,2039,2010,2047,2063
2040,2053,2072,2051,2045,2028,2042,2049
2046,2050,2071,2049,2045,2026,2040,2041
2045,2058,2064,2057,2045,2028,2048,2035
2046,2060,2058,2054,2043,2027,2046,2032
2051,2061,2066,2057,2051,2031,2063,2034
2048,2059,2061,2055,2055,2038,2054,2027
2046,2062,2062,2061,2057,2047,2065,2026
2059,2064,2067,2064,2060,2054,2080,2029
2056,2062,2067,2059,2051,2049,2032,2014
2043,2049,2061,2052,2046,2039,2027,2008
2045,2039,2059,2047,2032,2027,2039,2012
2054,2054,2061,2053,2046,2029,2051,2013
2055,2053,2064,2058,2055,2031,2039,2020
2051,2058,2063,2055,2060,2040,2057,2021
2053,2053,2061,2062,2061,2054,2058,2023
2053,2056,2064,2065,2061,2052,2057,2025
2053,2057,2060,2066,2060,2050,2053,2035
2046,2052,2057,2062,2057,2044,2045,2037
2043,2047,2057,2063,2052,2036,2052,2035
2039,2050,2054,2062,2055,2044,2052,2046
2047,2052,2057,2064,2060,2073,2073,2058
2044,2051,2053,2057,2069,2092,2054,2066
2045,2048,2059,2060,2065,2073,2057,2075
2044,2050,2058,2060,2068,2056,2045,2082
2048,2052,2051,2055,2059,2072,2051,2081
2036,2041,2047,2044,2060,2090,2033,2081
2030,2031,2046,2048,2057,2105,2041,2080
2036,2043,2051,2049,2052,2089,2049,2073
2040,2046,2049,2050,2054,2060,2045,2077
2039,2051,2053,2049,2052,2043,2049,2075
2045,2056,2054,2049,2042,2017,2053,2070
2041,2053,2048,2045,2029,2011,2047,2053
2042,2051,2047,2036,2022,2008,2062,2045
2042,2044,2047,2040,2025,2024,2069,2043
2044,2045,2039,2037,2015,2029,2039,2034
2035,2042,2039,2041,2006,2006,2027,2035
2040,2043,2040,2040,1987,1986,2036,2034
2042,2045,2036,2040,1988,1995,2019,2034
2045,2051,2037,2032,1985,2011,2038,2025
2044,2046,2030,2026,2010,2050,2068,2028
2048,2053,2024,2040,2051,2098,2061,2011
2041,2046,2021,2046,2058,2103,2041,1996
2037,2042,2028,2043,2033,2083,2035,2000
2045,2051,2046,2050,2019,2095,2055,1997
2034,2050,2040,2035,1989,2074,2047,1997
2036,2049,2040,2032,1983,2032,2033,2012
2041,2050,2044,2042,2012,2051,2029,2014
2044,2055,2048,2051,2029,2058,2038,2020
2043,2061,2048,2061,2065,2041,2059,2036
2047,2063,2057,2076,2111,2021,2057,2040
2051,2066,2065,2075,2130,2022,2051,2052
2055,2066,2059,2078,2123,2044,2047,2061
2053,2062,2054,2068,2100,2057,2045,2072
2052,2057,2050,2072,2104,2080,2068,2080
2056,2058,2057,2069,2092,2086,2058,2079
2051,2052,2054,2062,2067,2079,2044,2080
2044,2050,2050,2059,2062,2066,2032,2083
2043,2045,2045,2046,2043,2074,2005,2080
2038,2042,2041,2030,2008,2080,1998,2085
2029,2048,2040,2029,1983,2071,1999,2079
2032,2043,2046,2022,1967,2065,1972,2071
2037,2047,2037,2026,1968,2020,1973,2069
2040,2048,2052,2045,2007,1981,1991,2084
2048,2053,2052,2058,2044,2029,2000,2065
2052,2058,2058,2052,2022,2052,2031,2047
2044,2054,2050,2041,2006,2051,2013,2034
2042,2048,2036,2026,1994,2044,2027,2026
2037,2053,2049,2037,2017,2019,2045,2035
2052,2063,2061,2064,2068,2014,2054,2038
2058,2070,2059,2078,2090,2035,2043,2025
2050,2063,2055,2064,2096,2047,2047,2017
2054,2054,2049,2059,2091,2048,2044,2009
2044,2046,2036,2053,2090,2047,2062,2016
2045,2048,2037,2058,2079,2046,2048,2017
2046,2043,2037,2052,2083,2060,2058,2017
2050,2050,2040,2049,2069,2068,2061,2019
2048,2050,2040,2048,2049,2075,2057,2010
2042,2048,2041,2038,2032,2077,2061,2014
2047,2049,2046,2038,2025,2076,2041,2024
2054,2058,2049,2047,2051,2057,2042,2034
2058,2059,2057,2053,2063,2035,2037,2042
2058,2063,2068,2071,2088,2062,2041,2061
2056,2066,2074,2095,2128,2104,2077,2062
2050,2062,2071,2097,2136,2110,2043,2067
2049,2050,2062,2089,2129,2088,2055,2071
2048,2042,2048,2084,2075,2046,2055,2079
2042,2034,2033,2064,1964,2021,2044,2072
2033,2020,2022,2077,1980,2038,2049,2084
2030,2017,2032,2103,2005,2018,2038,2080
2021,2008,2039,2109,2014,2009,2036,2077
2017,2006,2041,2104,2022,2027,2066,2082
2026,2023,2047,2110,2032,2045,2070,2078
2035,2023,2049,2109,2067,2077,2051,2083
2038,2031,2044,2103,2070,2080,2040,2068
2036,2037,2047,2087,2059,2074,2078,2057
2039,2045,2040,2085,2053,2079,2050,2054
2044,2054,2038,2086,2059,2085,2042,2048
2048,2054,2025,2075,2050,2081,2043,2049
2043,2054,2014,2056,2044,2061,2040,2044
2044,2051,2009,2040,2024,2036,2044,2031
2042,2049,1997,2016,2005,2032,2043,2033
2037,2049,2002,2002,1997,2041,2052,2038
2039,2056,2013,2001,2002,2046,2052,2036
2048,2046,2022,2003,2014,2057,2064,2031
2046,2052,2031,1980,2000,2049,2047,2020
2034,2040,2027,1956,1994,2034,2048,2016
2029,2039,2025,1951,1992,2031,2038,2014
2042,2057,2049,1970,2029,2055,2041,2026
2054,2074,2056,1989,2059,2069,2054,2024
2056,2074,2066,2001,2072,2080,2070,2026
2056,2084,2079,2011,2076,2094,2071,2035
2064,2080,2079,2022,2073,2099,2053,2037
2064,2078,2086,2025,2052,2081,2052,2040
2060,2075,2077,2021,2046,2068,2032,2044
2058,2071,2070,2023,2042,2068,2033,2056
2055,2070,2068,2035,2056,2064,2043,2058
2054,2062,2055,2033,2054,2014,2036,2070
2054,2060,2057,2035,2059,2022,2072,2074
2046,2059,2062,2037,2061,2047,2061,2085
2052,2063,2058,2037,2064,2055,2064,2096
2049,2062,2058,2041,2068,2060,2074,2101
2048,2056,2048,2035,2055,2042,2070,2105
2043,2051,2047,2036,2040,2016,2059,2102
2048,2059,2055,2035,2040,2013,2063,2099
2051,2064,2050,2031,2028,2061,2062,2088
2050,2062,2051,2028,2024,2092,2068,2073
2048,2062,2050,2028,2011,2064,2056,2072
2048,2061,2053,2029,2002,2015,2044,2066
2051,2065,2057,2039,2022,1989,2037,2066
2057,2063,2054,2043,2035,2011,2037,2054
2056,2058,2051,2040,2042,2027,2033,2043
2049,2056,2043,2040,2052,2035,2029,2034
2051,2053,2039,2035,2027,2068,2042,2036
2058,2050,2041,2038,1998,2073,2053,2032
2055,2053,2038,2035,2015,2076,2036,2027
2058,2053,2033,2032,2000,2072,2042,2029
2063,2049,2031,2026,1994,2076,2074,2013
2059,2043,2022,2023,2004,2082,2062,2017
2055,2043,2017,2024,2022,2088,2075,2020
2061,2053,2029,2033,2054,2102,2083,2030
2066,2056,2033,2024,2056,2080,2079,2028
2060,2054,2027,2035,2085,2094,2078,2019
2048,2045,2026,2038,2067,2098,2071,2019
2048,2046,2033,2040,2056,2098,2062,2018
2045,2051,2040,2044,2052,2098,2052,2030
2040,2047,2032,2035,2038,2065,2065,2027
2042,2052,2042,2035,2031,2058,2053,2051
2045,2055,2039,2039,2036,2065,2039,2067
2053,2061,2042,2043,2035,2070,2025,2068
2052,2059,2049,2034,2032,2068,2021,2072
2051,2058,2051,2029,2027,2077,2022,2063
2050,2052,2059,2034,2038,2064,2032,2066
2041,2049,2063,2027,2037,1952,2006,2065
2035,2043,2061,2018,2036,1911,2005,2068
2030,2036,2047,2023,2056,1969,2025,2076
2030,2048,2050,2031,2066,1996,2041,2089
2038,2056,2049,2030,2056,1996,2031,2078
2044,2056,2048,2033,2048,2002,2030,2081
2042,2050,2050,2034,2045,1996,2019,2074
2036,2053,2046,2030,2016,2000,2033,2070
2041,2061,2057,2034,2001,2008,2030,2058
2045,2072,2059,2036,2004,2028,2047,2056
2052,2066,2054,2038,2014,2040,2046,2058
2046,2065,2055,2038,2014,2021,2052,2050
2056,2066,2061,2045,2025,1982,2035,2053
2055,2057,2056,2036,2029,1966,2023,2036
2050,2053,2052,2034,2042,1986,2031,2039
2051,2056,2050,2040,2059,2040,2050,2037
2052,2051,2038,2036,2062,2061,2060,2032
2049,2048,2038,2027,2038,2054,2035,2033
2045,2050,2043,2026,2011,2032,2049,2043
2055,2061,2056,2032,2004,2021,2061,2056
2061,2071,2063,2037,1994,2025,2058,2060
2067,2068,2070,2049,1987,2030,2040,2055
2068,2073,2076,2046,1993,2023,2019,2062
2068,2076,2073,2050,2016,2052,2040,2071
2063,2077,2074,2054,2060,2097,2068,2077
2063,2071,2068,2049,2055,2175,2090,2076
2057,2070,2061,2047,2060,2229,2138,2064
2053,2057,2044,2031,2057,2238,2164,2044
2028,2043,2019,2011,2033,2107,2152,2030
2016,2037,2017,2020,2023,2022,2123,2051
2021,2041,2027,2019,2025,1990,2107,2086
2034,2041,2028,2025,2073,1931,2125,2118
2045,2051,2044,2046,2140,1986,2140,2136
2055,2055,2045,2051,2146,2063,2134,2121
2038,2046,2034,2051,2164,2107,2061,2097
2032,2041,2029,2046,2174,2114,2038,2090
2031,2039,2032,2045,2126,2084,1991,2070
2029,2041,2021,2013,2003,2029,1928,2049
2014,2027,2012,1986,1921,2033,1989,2050
2017,2034,2019,2007,1905,2039,2043,2065
2038,2037,2032,2023,1931,2043,2049,2060
2040,2036,2025,2032,2008,2071,2059,2058
2039,2038,2028,2044,2132,2086,2054,2055
2041,2032,2026,2043,2149,2068,2051,2042
2034,2035,2029,2043,2082,2053,2051,2039
2038,2034,2030,2039,2048,2047,2060,2037
2035,2032,2036,2037,2017,2037,2059,2033
2031,2026,2030,2027,2025,2043,2048,2025
2034,2021,2018,2018,1977,2060,2058,2012
2030,2017,2025,2004,1931,2050,2049,2008
2020,2005,2010,1992,1928,2057,2051,2002
2016,2006,2012,1999,1936,2076,2053,2009
2025,2018,2028,2018,1966,2065,2074,2020
2045,2032,2029,2024,1980,2065,2072,2030
2058,2044,2033,2028,1946,2082,2070,2037
2060,2055,2040,2030,1942,2087,2068,2030
2050,2059,2046,2033,1965,2089,2065,2031
2035,2058,2044,2037,1969,2064,2057,2044
2049,2063,2052,2055,2008,2075,2068,2061
2050,2064,2050,2053,2039,2061,2046,2062
2049,2058,2047,2048,2035,2076,2053,2082
2051,2065,2052,2054,2026,2042,2047,2093
2068,2070,2066,2062,2056,1999,2061,2102
2068,2070,2076,2068,2137,2024,2068,2107
2067,2071,2076,2072,2196,2053,2076,2111
2067,2070,2080,2077,2223,2036,2061,2121
2064,2070,2081,2079,2175,2012,2066,2122
2065,2069,2077,2055,2008,1984,2054,2114
2060,2076,2066,2035,1958,2005,2052,2103
2059,2065,2050,2048,2046,2024,2073,2099
2052,2063,2054,2058,2070,2027,2070,2086
2060,2061,2053,2063,2084,2042,2077,2077
2058,2057,2061,2074,2087,2059,2093,2080
2058,2057,2064,2069,2077,2072,2080,2069
2058,2052,2069,2071,2032,2044,2064,2052
2050,2050,2077,2063,1957,1977,2022,2038
2026,2042,2072,2029,1907,1937,2021,2022
2029,2033,2057,2024,1920,1956,2025,2010
2025,2029,2043,2013,1908,1983,2043,2004
2030,2039,2052,2036,1962,2030,2061,2022
2045,2052,2068,2071,2018,2067,2082,2033
2060,2057,2064,2080,2058,2073,2064,2033
2064,2044,2051,2097,2076,2048,2059,2044
2066,2047,2054,2111,2077,2034,2063,2055
2069,2065,2061,2113,2041,2041,2069,2039
2068,2055,2048,2100,2033,2118,2065,2016
2048,2034,2036,2072,1955,2199,2050,1977
2028,2022,2021,2023,1818,2208,2014,1964
2016,2019,2011,2006,1766,2167,2012,1984
2017,2015,1998,1998,1728,2040,1987,2012
2036,2028,1998,2006,1728,1821,1979,2061
2052,2044,2018,2045,1909,1774,2005,2100
2065,2066,2032,2067,2063,1864,2058,2103
2063,2057,2011,2045,2125,1967,2058,2098
2056,2052,2002,2039,2207,2021,2085,2106
2060,2051,2004,2039,2250,2051,2103,2103
2053,2041,2008,2053,2284,2070,2091,2107
2051,2030,2003,2033,2277,2081,2086,2099
2043,2030,2012,2015,2205,2069,2088,2102
2041,2034,2022,2005,2170,2079,2072,2104
2056,2055,2044,2006,2130,2109,2091,2109
2066,2071,2070,1992,2034,2116,2091,2108
2069,2070,2087,1957,1963,2109,2092,2103
2058,2065,2086,1949,1987,2116,2102,2084
2062,2072,2110,1980,2019,2149,2080,2061
2058,2095,2118,1987,1987,2156,2073,2066
2068,2094,2118,1983,1968,2084,2049,2057
2065,2087,2108,1980,1940,2012,2049,2070
2074,2084,2106,2011,2074,1988,2061,2084
2086,2081,2099,1997,2091,1968,2050,2071
2073,2077,2091,1991,2056,2000,2060,2060
2062,2078,2093,2003,2085,2065,2070,2047
2062,2069,2078,2021,2149,2098,2040,2038
2063,2068,2076,2039,2198,2131,2065,2035
2062,2064,2071,2050,2173,2109,2039,2032
2054,2057,2072,2025,2001,1992,2032,2021
2049,2065,2072,1983,1813,1937,2006,2005
2040,2051,2061,1971,1768,1968,2028,2005
2044,2054,2058,1985,1842,2029,2038,2019
2053,2055,2063,1990,1877,2058,2017,2017
2039,2049,2053,1981,1901,2050,2003,2033
2043,2055,2069,2000,1952,2038,2011,2049
2054,2062,2077,2028,1978,2057,2049,2053
2055,2062,2069,2034,1997,2082,2051,2064
2052,2052,2060,2025,2053,2084,2063,2060
2051,2043,2048,2021,2056,2052,2031,2068
2044,2045,2052,2023,2046,2016,2043,2075
2054,2048,2051,2023,2041,2030,2042,2083
2050,2053,2052,2032,2023,2030,2041,2082
2034,2044,2043,2019,1989,1992,2027,2079
2036,2036,2044,2026,2006,1950,2025,2098
2042,2043,2062,2036,2025,1978,2038,2102
2048,2051,2053,2031,2028,2011,2037,2084
2046,2041,2039,2027,2028,2044,2031,2078
2043,2049,2040,2020,1998,2071,2030,2061
2040,2037,2031,1997,1952,2063,2001,2052
2034,2036,2019,1992,1949,2062,2017,2050
2044,2043,2026,1997,1966,2030,2010,2047
2047,2044,2036,2012,2021,1971,2030,2044
2060,2054,2044,2043,2146,1986,2039,2036
2052,2050,2049,2064,2205,2021,2047,2042
2059,2053,2059,2078,2217,2075,2038,2049
2066,2059,2071,2079,2202,2074,2073,2051
2066,2054,2068,2046,2079,2075,2073,2040
2059,2047,2055,2013,1993,2090,2065,2021
2042,2035,2046,1989,1942,2092,2055,2016
2029,2027,2030,1960,1909,2077,2041,2005
2029,2029,2017,1920,1744,1973,2004,2024
2049,2056,2052,1947,1795,1922,2008,2061
2076,2079,2068,2020,1925,1931,2031,2053
2067,2069,2065,2046,1959,1958,2037,2041
2059,2053,2058,2064,1998,1995,2030,2036
2058,2056,2060,2092,2100,2055,2071,2048
2061,2051,2056,2095,2165,2131,2095,2056
2060,2041,2046,2069,2146,2107,2076,2060
2051,2034,2040,2050,2097,2079,2100,2068
2055,2040,2044,2044,2072,2073,2068,2076
2059,2040,2041,2032,2035,2065,2076,2081
2062,2055,2056,2044,2116,2092,2066,2102
2065,2060,2053,2056,2132,2107,2052,2102
2056,2054,2043,2031,2034,2092,2046,2083
2049,2048,2038,2006,1937,2078,2021,2084
2043,2049,2044,2005,1959,2046,2028,2102
2050,2053,2050,2020,1981,2044,2037,2099
2062,2063,2044,2000,1956,2016,2036,2095
2061,2058,2040,2006,1979,1994,2035,2077
2058,2046,2037,2014,2017,2000,2029,2068
2058,2042,2037,2030,2033,2021,2030,2063
2056,2042,2038,2046,2104,2052,2034,2057
2058,2048,2035,2061,2181,2070,2028,2040
2054,2044,2038,2055,2166,2082,2046,2037
2054,2048,2045,2055,2138,2088,2034,2028
2042,2043,2043,2049,2112,2093,2039,2020
2033,2040,2049,2051,2106,2103,2036,2020
2035,2038,2045,2042,2099,2092,2049,2030
2037,2029,2038,2041,2107,2080,2039,2025
2040,2035,2044,2036,2095,2050,2027,2018
2042,2037,2041,2025,2019,2011,2007,2018
2045,2034,2040,2024,1960,2002,2021,2025
2058,2040,2057,2034,1978,2025,2055,2046
2071,2059,2066,2038,2029,2043,2058,2038
2070,2053,2063,2041,2045,2040,2040,2043
2067,2058,2058,2033,2044,2045,2054,2032
2056,2056,2048,2038,2044,2055,2028,2025
2043,2044,2040,2034,2066,2053,2013,2029
2042,2041,2035,2032,2066,2062,2048,2042
2041,2037,2028,2038,2074,2085,2061,2048
2042,2035,2025,2043,2119,2116,2057,2057
2037,2032,2021,2045,2126,2150,2071,2069
2044,2035,2016,2050,2109,2116,2068,2064
2044,2034,2013,2053,2076,1998,2028,2070
2040,2033,2007,2044,1999,1925,2019,2065
2031,2023,1993,2025,1897,1972,2017,2078
2036,2019,1998,2025,1925,2031,2029,2082
2038,2018,1994,2026,1971,2046,2066,2082
2031,2015,1996,2027,1976,2044,2036,2083
2031,2021,2010,2034,1972,2040,2046,2081
2029,2019,2025,2041,1993,2037,2047,2077
2031,2021,2030,2044,2008,2045,2039,2068
2034,2022,2034,2048,2013,2048,2041,2061
2034,2021,2041,2044,2011,2039,2041,2057
2045,2032,2043,2052,2012,2030,2058,2050
2044,2036,2049,2056,2020,2040,2059,2045
2047,2033,2048,2040,2031,2035,2056,2034
2053,2024,2039,2044,2034,2042,2047,2028
2043,2021,2040,2048,2024,2031,2029,2026
2045,2043,2056,2053,2023,2013,2045,2026
2060,2064,2070,2059,2035,1999,2054,2029
2064,2069,2081,2062,2053,2023,2082,2032
2070,2084,2082,2075,2067,2064,2065,2023
2062,2074,2074,2066,2066,2057,2050,2010
2059,2070,2049,2052,2045,2041,2044,2017
2061,2067,2040,2042,2041,2045,2049,2022
2065,2060,2049,2048,2041,2050,2049,2025
2058,2058,2053,2051,2054,2066,2054,2022
2059,2054,2061,2052,2048,2064,2073,2032
2052,2050,2053,2047,2051,2056,2078,2031
2059,2052,2047,2045,2041,2049,2045,2040
2059,2046,2044,2043,2031,2043,2068,2042
2050,2042,2065,2050,2037,2042,2062,2050
2050,2042,2084,2068,2046,2040,2056,2056
2045,2043,2107,2079,2041,2040,2061,2058
2046,2047,2118,2083,2040,2045,2062,2072
2050,2059,2134,2096,2047,2049,2064,2076
2051,2074,2129,2098,2058,2049,2070,2081
2053,2071,2120,2093,2052,2049,2069,2081
2048,2062,2104,2076,2031,2036,2056,2082
2046,2050,2087,2060,2020,2033,2032,2079
2039,2049,2072,2047,2025,2039,2046,2083
2039,2043,2048,2039,2008,2023,2024,2077
2038,2036,2030,2015,1985,2017,2044,2074
2039,2052,2038,2012,1992,2032,2051,2065
2049,2062,2036,2014,2005,2036,2053,2064
2049,2066,2046,2025,2017,2042,2062,2051
2050,2064,2051,2029,2036,2051,2069,2045
2046,2052,2039,2024,2038,2059,2069,2041
2039,2041,2027,2028,2043,2059,2074,2049
2044,2038,2009,2017,2040,2059,2062,2042
2049,2049,2005,2013,2043,2060,2071,2033
2052,2051,2001,2007,2033,2056,2060,2026
2043,2046,1998,2007,2028,2054,2057,2019
2060,2052,1998,2017,2032,2046,2057,2013
2067,2053,2004,2018,2035,2040,2056,2016
2070,2048,2003,2034,2031,2041,2060,2015
2068,2053,2024,2043,2019,2049,2054,2028
2063,2060,2030,2052,2015,2054,2062,2028
2054,2051,2021,2036,2030,2053,2068,2029
2047,2043,2001,2036,2034,2046,2044,2028
2045,2037,2003,2042,2032,2049,2042,2028
2043,2031,2012,2046,2034,2042,2042,2023
2044,2031,2012,2049,2037,2041,2061,2028
2046,2031,2003,2046,2036,2045,2066,2038
2047,2032,2016,2058,2035,2048,2067,2044
2044,2025,2014,2059,2027,2046,2058,2050
2039,2017,1998,2057,2026,2044,2065,2050
2026,2008,1979,2041,2022,2039,2046,2051
2026,2005,1972,2033,2015,2036,2054,2068
2035,2018,1983,2029,2019,2029,2052,2077
2044,2021,1987,2020,2014,2028,2058,2086
2049,2028,1995,2023,2024,2035,2052,2098
2057,2043,2021,2028,2044,2035,2061,2100
2055,2041,2024,2030,2054,2037,2043,2090
2058,2037,2020,2024,2040,2037,2052,2088
2055,2031,2035,2031,2027,2029,2043,2075
2046,2030,2044,2021,2023,2030,2041,2069
2048,2048,2063,2031,2016,2050,2065,2063
2061,2069,2095,2047,2023,2052,2069,2061
2064,2090,2131,2050,2021,2052,2061,2054
2063,2109,2168,2057,2030,2043,2064,2055
2063,2113,2185,2053,2020,2041,2057,2044
2068,2105,2153,2023,2008,2034,2058,2039
2064,2092,2125,2010,2020,2034,2072,2038
2061,2084,2102,2021,2013,2039,2060,2029
2059,2071,2089,2031,2023,2044,2059,2026
2050,2068,2078,2032,2029,2061,2059,2009
2043,2053,2072,2036,2047,2082,2065,2008
2045,2058,2082,2051,2074,2098,2053,2016
2047,2056,2075,2053,2069,2095,2037,2021
2052,2054,2070,2053,2061,2082,2052,2022
2050,2044,2065,2053,2063,2074,2052,2014
2050,2042,2055,2050,2058,2068,2082,2028
2044,2037,2046,2042,2045,2059,2089,2031
2040,2033,2033,2037,2030,2031,2086,2042
2041,2035,2032,2026,2026,2024,2079,2051
2049,2033,2031,2025,2032,2032,2078,2060
2055,2034,2024,2027,2019,2033,2079,2076
2054,2029,2020,2023,2031,2028,2079,2081
2052,2032,2027,2025,2034,2046,2095,2091
2060,2043,2050,2031,2040,2090,2100,2085
2060,2046,2074,2044,2029,2116,2091,2083
2056,2042,2069,2043,2004,2118,2072,2090
2042,2021,2069,2041,1985,2115,2056,2084
2035,2026,2072,2050,2011,2115,2040,2080
2032,2031,2063,2052,2027,2058,2024,2064
2019,2025,2054,2049,2001,1985,2006,2065
2021,2032,2052,2050,1999,1990,2018,2074
2034,2040,2047,2059,2037,2030,2050,2069
2042,2049,2052,2065,2041,2043,2066,2068
2046,2050,2048,2070,2037,2046,2067,2064
2052,2050,2039,2084,2051,2024,2055,2054
2050,2048,2044,2097,2039,1991,2023,2051
2052,2048,2037,2095,2023,1967,2022,2046
2060,2048,2043,2082,2020,1956,2020,2044
2058,2047,2040,2094,2067,1986,2037,2043
2059,2038,2032,2104,2098,2008,2039,2028
2061,2031,2027,2099,2092,2024,2047,2021
2057,2024,2026,2095,2097,2029,2030,2018
2049,2020,2013,2087,2097,2045,2042,2019
2054,2019,2003,2091,2095,2055,2061,2028
2053,2019,1994,2086,2090,2049,2062,2009
2039,2012,1994,2096,2103,2046,2062,2001
2043,2022,2004,2091,2110,2045,2054,2003
2036,2027,2009,2090,2102,2046,2044,2006
2035,2017,2005,2070,2080,2072,2032,2021
2031,2010,2002,2055,2054,2059,2036,2029
2033,2014,1999,2044,2054,2031,2028,2038
2035,2024,1994,2035,2063,2020,2029,2045
2039,2024,1975,2023,2054,2015,2035,2052
2033,2008,1958,2009,2026,2009,2041,2063
2035,2007,1951,1989,1934,2001,2042,2071
2038,2023,1971,2003,1970,2020,2062,2084
2054,2037,1996,2029,2044,2035,2063,2085
2054,2044,2008,2029,2069,2030,2038,2084
2040,2018,2004,2012,2054,2030,2026,2095
2033,2012,2029,2006,1974,2027,2040,2104
2046,2022,2061,2016,1947,2024,2053,2112
2055,2034,2083,2016,1969,2009,2035,2119
2067,2055,2100,2011,1983,2011,2042,2110
2086,2072,2114,2023,2024,2022,2030,2086
2077,2080,2123,2025,2043,2022,2016,2051
2053,2070,2127,2029,2039,2023,2026,2023
2043,2074,2137,2061,2054,2029,2035,2030
2049,2093,2138,2076,2087,2036,2054,2036
2057,2087,2118,2078,2089,2051,2047,2041
2045,2078,2087,2065,2083,2050,2046,2049
2052,2071,2072,2064,2060,2047,2043,2044
2056,2059,2049,2043,2047,2042,2049,2040
2051,2044,2026,2015,2043,2036,2066,2038
2058,2043,2016,1989,2026,2028,2046,2019
2049,2024,1996,1962,2009,2020,2024,2014
2036,2014,1985,1940,2013,2024,2032,2027
2050,2031,2006,1961,2024,2016,2031,2036
2051,2050,2025,1992,2032,2003,2044,2037
2049,2054,2042,1996,2025,1993,2031,2033
2047,2055,2049,2012,2029,2008,2058,2036
2052,2058,2051,2024,2029,2008,2064,2040
2051,2060,2054,2030,2030,2017,2032,2040
2050,2058,2049,2021,2047,2038,2049,2053
2051,2055,2055,2039,2062,2048,2071,2054
2051,2057,2072,2051,2056,2054,2064,2054
2038,2047,2070,2043,2043,2084,2061,2061
2029,2040,2064,2028,2014,2101,2062,2062
2032,2042,2069,2026,1995,2096,2049,2068
2025,2042,2074,2035,1984,2076,2025,2071
2030,2059,2092,2036,1995,1999,2000,2082
2044,2065,2092,2043,2028,1973,2029,2102
2046,2062,2100,2051,2072,1990,2056,2108
2061,2070,2099,2053,2097,2024,2072,2102
2062,2082,2096,2052,2100,2049,2057,2100
2065,2072,2085,2049,2088,2061,2062,2103
2067,2072,2095,2046,2076,2040,2054,2087
2055,2067,2098,2048,2043,2026,2042,2068
2058,2062,2108,2048,2029,2024,2039,2056
2055,2064,2099,2045,2044,2033,2042,2051
2056,2061,2087,2044,2079,2057,2008,2053
2056,2058,2080,2049,2103,2073,2035,2050
2054,2065,2073,2059,2124,2087,2052,2046
2054,2070,2080,2059,2163,2091,2053,2037
2059,2062,2066,2065,2221,2099,2039,2028
2054,2053,2054,2065,2246,2098,2047,2028
2056,2055,2058,2061,2228,2106,2033,2010
2045,2041,2041,2042,2057,2066,2039,2008
2035,2028,2023,2019,1872,2044,2042,2004
2042,2033,2025,2007,1792,2013,2026,2001
2037,2030,2022,1990,1808,1990,2011,2001
2043,2028,2030,2011,1956,2022,2014,2013
2051,2037,2032,2025,1932,2056,2049,2020
2053,2035,2037,2050,1926,2039,2066,2039
2059,2034,2040,2085,2008,2006,2072,2050
2064,2024,2030,2093,2031,2006,2076,2054
2058,2009,2013,2068,2072,2025,2073,2069
2068,1999,2005,2062,2112,2034,2055,2071
2059,2001,1996,2069,2097,2030,2040,2070
2049,2009,2005,2074,2059,2023,2038,2081
2054,2020,2025,2094,2036,2043,2044,2097
2058,2027,2029,2112,2067,2065,2055,2090
2053,2026,2019,2108,2079,2065,2054,2094
2042,2008,1986,2096,2056,2038,2047,2078
2023,1989,1962,2075,1973,2026,2055,2055
2010,1990,1934,2060,1942,2010,2014,2034
1995,1978,1907,2054,1939,2011,1992,2022
1995,1988,1922,2055,1965,2030,2002,2042
2036,2028,1958,2098,2055,2002,2042,2068
2055,2042,1977,2140,2158,2031,2076,2061
2039,2031,2001,2154,2181,2075,2076,2064
2053,2043,2036,2162,2180,2088,2094,2067
2078,2070,2057,2150,2157,2070,2089,2049
2077,2066,2027,2118,2111,2040,2065,2033
2054,2063,2017,2094,2076,2025,2055,2019
2049,2066,2012,2059,2050,2012,2045,2007
2037,2060,2014,2033,2043,2014,2050,2004
2033,2069,2050,2043,2047,2024,2039,2016
2037,2081,2081,2039,2045,2025,2041,2012
2037,2071,2082,2012,2023,2019,2032,2015
2044,2078,2088,2005,2024,2030,2052,2021
2048,2095,2103,2020,2035,2044,2053,2036
2054,2100,2128,2035,2045,2060,2045,2044
2052,2095,2146,2033,2054,2078,2059,2048
2061,2100,2158,2031,2063,2080,2064,2061
2071,2107,2160,2012,2061,2054,2046,2066
2062,2096,2140,1991,2039,2055,2042,2055
2039,2071,2124,1982,2043,2077,2043,2053
2038,2073,2112,1980,2042,2089,2059,2066
2051,2078,2113,1986,2058,2079,2069,2081
2060,2096,2132,2026,2084,2049,2055,2107
2070,2102,2138,2057,2095,2039,2071,2120
2075,2094,2132,2067,2088,2051,2077,2110
2063,2073,2088,2073,2078,2052,2056,2116
2063,2070,2060,2073,2074,2052,2028,2110
2053,2064,2029,2068,2066,2061,2044,2104
2063,2072,2035,2082,2081,2072,2045,2101
2072,2078,2036,2089,2085,2068,2062,2096
2074,2071,2030,2098,2081,2066,2063,2094
2070,2063,2021,2088,2084,2060,2044,2087
2061,2053,2023,2083,2087,2049,2069,2074
2054,2043,2019,2067,2070,2041,2056,2064
2043,2041,2025,2067,2059,2040,2060,2053
2046,2049,2055,2067,2059,2044,2045,2056
2046,2058,2069,2056,2065,2043,2059,2043
2048,2058,2071,2045,2059,2039,2059,2038
2046,2057,2084,2031,2056,2039,2048,2031
2045,2061,2091,2018,2042,2037,2056,2035
2045,2052,2070,1994,2027,2034,2056,2032
2051,2042,2050,1980,2016,2023,2038,2024
2047,2034,2036,1977,2011,2017,2040,2016
2036,2028,2047,1986,2024,2025,2041,2007
2029,2037,2053,2006,2042,2040,2047,2020
2035,2041,2052,2014,2048,2059,2070,2033
2047,2043,2052,2020,2061,2064,2066,2038
2057,2044,2047,2020,2061,2056,2068,2041
2054,2034,2043,2029,2056,2052,2057,2034
2045,2026,2055,2033,2049,2049,2064,2042
2039,2031,2078,2044,2057,2047,2054,2049
2043,2047,2098,2062,2066,2052,2060,2057
2043,2049,2099,2061,2069,2049,2053,2071
2050,2052,2093,2074,2077,2052,2057,2075
2051,2048,2084,2081,2089,2052,2066,2084
2048,2058,2089,2095,2087,2052,2055,2088
2050,2064,2081,2094,2080,2046,2060,2085
2036,2055,2057,2078,2067,2031,2053,2099
2033,2040,2053,2065,2054,2023,2036,2096
2039,2047,2055,2055,2057,2035,2056,2095
2052,2060,2061,2050,2066,2043,2064,2096
2049,2061,2042,2030,2064,2053,2049,2090
2045,2052,2026,2023,2065,2056,2039,2089
2041,2049,2031,2017,2057,2053,2045,2070
2047,2052,2035,2001,2056,2052,2058,2071
2049,2058,2029,1990,2032,2041,2066,2065
2057,2052,2019,1965,2015,2036,2050,2066
2060,2050,2021,1959,2006,2032,2051,2058
2063,2048,2027,1975,2015,2032,2056,2046
2056,2047,2034,1994,2017,2031,2071,2047
2054,2048,2043,2011,2025,2033,2056,2038
2051,2045,2048,2031,2027,2031,2038,2018
2048,2046,2047,2036,2036,2038,2038,2005
2040,2046,2055,2040,2049,2038,2062,2012
2044,2044,2058,2045,2052,2043,2046,2008
2039,2053,2072,2062,2064,2050,2054,2014
2047,2073,2089,2089,2083,2059,2052,2028
2053,2069,2093,2094,2082,2056,2038,2026
2060,2058,2086,2093,2073,2054,2036,2024
2057,2056,2070,2089,2069,2055,2063,2032
2055,2054,2050,2085,2072,2056,2061,2035
2052,2044,2032,2077,2065,2059,2058,2045
2056,2049,2037,2085,2076,2064,2060,2056
2060,2051,2036,2088,2076,2065,2079,2058
2053,2052,2030,2080,2054,2070,2065,2057
2042,2044,2024,2057,2022,2057,2036,2065
2042,2028,2015,2037,2001,2054,2045,2064
2038,2024,2011,2015,1983,2033,2028,2070
2030,2022,2005,1995,1985,1987,2026,2076
2032,2024,2006,2004,2038,1984,2031,2090
2029,2026,2008,2003,2067,2008,2029,2102
2038,2027,2009,2008,2075,2042,2066,2108
2049,2044,2019,2009,2073,2054,2069,2105
2052,2051,2024,2009,2061,2059,2054,2103
2054,2063,2036,2025,2053,2058,2064,2093
2055,2056,2034,2042,2056,2053,2070,2089
2057,2052,2036,2052,2052,2060,2072,2077
2052,2045,2037,2063,2044,2056,2061,2062
2057,2051,2050,2069,2051,2058,2065,2064
2054,2057,2061,2081,2049,2056,2060,2054
2045,2052,2069,2086,2052,2062,2062,2039
2054,2054,2072,2086,2046,2064,2049,2036
2057,2061,2074,2076,2042,2055,2057,2034
2053,2055,2069,2062,2028,2047,2041,2020
2050,2050,2068,2061,2026,2017,2030,2025
2056,2060,2077,2074,2036,1989,2032,2033
2060,2056,2069,2080,2046,1996,2031,2038
2049,2054,2049,2080,2038,2013,2038,2037
2049,2047,2037,2084,2024,2048,2051,2034
2047,2038,2015,2083,2058,2060,2059,2033
2049,2052,2022,2091,2067,2059,2059,2032
2052,2067,2034,2101,2075,2066,2051,2038
2062,2076,2046,2112,2059,2054,2052,2036
2058,2065,2027,2099,2064,2051,2050,2037
2058,2056,2006,2082,2070,2051,2043,2053
2057,2042,1993,2055,2064,2042,2048,2056
2065,2038,1979,2052,2087,2038,2043,2070
2056,2036,1991,2068,2092,2043,2051,2078
2056,2038,2001,2074,2074,2037,2042,2083
2054,2036,2007,2057,2047,2025,2038,2082
2052,2031,2009,2046,2029,2022,2024,2073
2044,2023,2014,2040,2026,2032,2032,2069
2027,2016,2017,2052,2039,2041,2034,2078
2014,2021,2045,2062,2051,2056,2036,2098
2026,2040,2065,2038,2038,2057,2050,2107
2040,2068,2100,2033,2035,2068,2043,2107
2051,2085,2112,2047,2056,2079,2055,2096
2060,2088,2111,2039,2041,2059,2049,2086
2057,2074,2084,2023,2035,2047,2034,2086
2056,2058,2072,2041,2064,2044,2050,2081
2056,2053,2057,2048,2060,2037,2037,2071
2060,2050,2047,2023,1995,2007,2023,2066
2059,2050,2039,1993,1909,1979,2014,2055
2062,2060,2058,2006,1965,1989,2010,2050
2071,2080,2074,2036,2050,2019,2043,2040
2071,2092,2085,2052,2066,2048,2054,2036
2068,2094,2080,2037,2061,2059,2057,2017
2056,2080,2059,2014,2076,2055,2059,2004
2038,2056,2041,2011,2079,2054,2056,2014
2047,2061,2065,2029,2077,2047,2055,2032
2064,2086,2082,2072,2072,2054,2065,2038
2062,2086,2088,2100,2073,2056,2046,2036
2061,2070,2078,2094,2059,2065,2045,2032
2044,2060,2055,2110,2037,2064,2036,2017
2037,2051,2051,2126,2025,2066,2015,2008
2037,2053,2046,2134,2018,2049,2031,2015
2051,2056,2057,2135,2012,1995,1999,2035
2058,2052,2059,2122,2041,1982,2028,2058
2052,2056,2067,2118,2077,2011,2033,2071
2049,2059,2067,2133,2079,2038,2035,2077
2042,2059,2064,2139,2067,2049,2024,2078
2050,2060,2068,2175,2078,2047,2020,2088
2047,2058,2068,2198,2107,2052,2044,2094
2052,2063,2081,2204,2122,2064,2056,2090
2051,2059,2070,2189,2142,2069,2054,2096
2048,2058,2042,2174,2147,2084,2069,2096
2061,2058,2033,2154,2134,2100,2056,2100
2061,2061,2024,2139,2112,2096,2054,2100
2058,2062,2030,2115,2064,2099,2049,2077
2056,2047,2043,2085,2000,2072,2032,2066
2041,2041,2048,2090,1955,2035,2027,2063
2038,2033,2050,2116,1976,2035,2009,2052
2037,2036,2054,2128,1985,2018,2011,2049
2049,2057,2081,2145,2004,1977,2015,2046
2060,2067,2092,2138,1993,1974,2026,2034
2049,2047,2068,2073,1953,1989,2028,2020
2039,2028,2032,1995,1921,2031,2025,2019
2039,2017,2024,1959,1893,2014,2025,2017
2026,2023,2023,1919,1907,1979,2012,2013
2035,2013,1993,1850,1930,1959,2009,2016
2032,2020,1991,1855,2017,1926,2028,2037
2052,2057,2041,1918,2123,1985,2066,2055
2073,2081,2070,1953,2127,2054,2083,2049
2072,2085,2064,1963,2104,2087,2083,2050
2065,2083,2054,1968,2072,2095,2092,2048
2069,2072,2042,1979,2056,2094,2093,2053
2072,2074,2052,2007,2024,2096,2083,2056
2073,2080,2067,2010,2047,2086,2075,2064
2072,2077,2067,2009,2025,2067,2062,2067
2063,2063,2066,2018,2024,2034,2045,2072
2061,2069,2075,2030,2066,2021,2046,2079
2052,2061,2061,2055,2194,2048,2051,2079
2055,2054,2042,2073,2326,2087,2046,2078
2057,2043,2033,2067,2309,2081,2070,2085
2061,2046,2032,2069,2291,2091,2076,2103
2067,2059,2046,2068,2230,2074,2069,2106
2067,2064,2063,2059,2161,2064,2055,2106
2060,2059,2064,2045,2157,2057,2060,2106
2053,2047,2058,1995,2064,2036,2054,2099
2047,2045,2055,1966,1946,2040,2050,2084
2052,2053,2066,1948,1818,2045,2060,2071
2036,2058,2060,1947,1863,2053,2058,2060
2038,2064,2042,1965,1932,2058,2060,2078
2050,2051,2036,2012,1983,2014,2030,2083
2054,2046,2035,2041,1990,1975,2027,2072
2048,2049,2044,2043,1955,1940,2012,2061
2052,2051,2039,2064,1993,1993,2031,2058
2056,2042,2028,2091,2029,2043,2050,2050
2043,2035,2017,2088,2041,2070,2069,2034
2038,2029,2009,2089,2092,2138,2079,2029
2045,2045,2030,2103,2140,2193,2074,2022
2052,2051,2034,2097,2116,2160,2065,2021
2043,2035,2018,2072,2051,2089,2045,2016
2036,2032,2016,2050,1958,1987,2030,2018
2026,2038,2026,2034,1956,1944,2034,2028
2034,2041,2033,2040,1992,1957,2041,2030
2043,2040,2032,2024,1996,1979,2040,2027
2033,2035,2033,2025,2102,2046,2042,2016
2031,2026,2036,2036,2151,2079,2050,2020
2035,2033,2045,2054,2125,2080,2050,2032
2037,2041,2046,2051,2101,2074,2062,2033
2038,2042,2052,2037,2077,2070,2080,2039
2044,2050,2053,2026,2053,2064,2080,2045
2043,2051,2050,2015,2040,2050,2087,2056
2049,2051,2047,1994,2029,2032,2075,2067
2059,2050,2051,2001,2056,2043,2078,2072
2049,2057,2052,2016,2026,2060,2068,2089
2043,2051,2043,1984,1951,2052,2042,2088
2038,2036,2030,1974,1979,2053,2063,2094
2047,2030,2029,1994,2004,2062,2061,2108
2054,2040,2034,2010,2014,2055,2065,2128
2054,2035,2027,2016,2025,2037,2065,2125
2051,2024,2016,2017,2069,2033,2039,2115
2041,2018,2018,2030,2086,2063,2050,2098
2053,2031,2045,2043,2079,2082,2040,2074
2056,2028,2037,2041,2025,2088,2036,2056
2058,2013,2015,2030,2006,2102,2039,2054
2060,1993,1982,2032,2005,2067,2077,2050
2050,1985,1964,2051,2038,2025,2034,2027
2038,1992,1968,2070,2065,1988,2055,2020
2037,2007,1954,2085,2082,1987,2062,2027
2032,2003,1940,2080,2068,2000,2041,2021
2027,2010,1943,2082,2065,2011,2040,2011
2023,2019,1950,2098,2072,2027,2044,2003
2018,2012,1938,2089,2056,2021,2031,2006
2026,2019,1942,2079,2054,2031,2038,2018
2053,2041,1959,2081,2058,2037,2051,2029
2059,2045,1969,2072,2050,2033,2050,2033
2047,2031,1966,2057,2036,2024,2063,2023
2029,2016,1958,2045,2037,2016,2058,2018
2016,2002,1955,2029,2030,2026,2045,2031
2021,2007,1978,2023,2031,2032,2058,2044
2029,2029,2013,2042,2038,2040,2070,2053
2044,2057,2061,2042,2053,2049,2074,2078
2051,2080,2112,2052,2056,2059,2049,2090
2055,2097,2164,2048,2032,2052,2041,2092
2057,2102,2194,2036,2007,2051,2044,2085
2054,2099,2187,2023,1986,2041,2060,2077
2056,2101,2172,2002,1960,2007,2046,2088
2057,2086,2137,1972,1950,1968,2042,2100
2048,2054,2098,1956,1979,1980,2013,2084
2039,2064,2107,1987,2038,2043,2047,2083
2049,2070,2111,2008,2076,2078,2059,2070
2036,2069,2109,2035,2104,2056,2056,2086
2045,2062,2104,2053,2131,2028,2061,2089
2042,2064,2092,2044,2111,2019,2047,2078
2037,2053,2072,2031,2078,2015,2055,2061
2027,2055,2081,2032,2074,2027,2056,2053
2042,2071,2090,2042,2083,2044,2061,2043
2055,2074,2084,2045,2077,2041,2054,2049
2052,2062,2067,2037,2058,2036,2058,2045
2042,2049,2053,2033,2052,2044,2040,2033
2042,2043,2062,2044,2050,2052,2057,2033
2053,2053,2077,2053,2052,2056,2079,2026
2066,2055,2082,2056,2049,2063,2072,2028
2050,2058,2080,2055,2037,2081,2080,2044
2050,2058,2073,2050,2056,2093,2072,2041
2046,2043,2071,2048,2072,2096,2066,2037
2051,2057,2080,2058,2092,2090,2076,2035
2055,2063,2084,2075,2134,2048,2067,2041
2060,2069,2085,2091,2158,2040,2088,2043
2065,2059,2076,2084,2148,2056,2093,2051
2056,2054,2060,2088,2129,2068,2089,2054
2060,2061,2065,2106,2120,2086,2102,2039
2056,2052,2061,2102,2038,2080,2086,2022
2041,2031,2046,2065,1927,2064,2063,2024
2030,2012,2023,2059,1909,2056,2054,2030
2024,2003,2008,2052,1923,2045,2044,2035
2019,1996,1996,2047,1941,2022,2038,2050
2019,2002,1997,2065,2000,1979,2060,2073
2034,2011,1994,2092,2096,2014,2072,2089
2042,2023,2002,2106,2115,2054,2079,2092
2040,2020,2005,2100,2107,2068,2081,2086
2025,2003,1989,2079,2080,2064,2057,2086
2019,1996,1985,2059,2052,2050,2045,2080
2028,2002,1982,2040,2036,2041,2037,2083
2028,2006,1995,2030,2023,2034,2029,2081
2022,2008,1997,2005,2008,2034,2035,2071
2022,2007,1993,1976,2008,2030,2049,2051
2020,1997,1990,1955,2005,2034,2053,2050
2035,2020,2009,1964,2008,2036,2037,2049
2056,2054,2054,2002,2034,2046,2053,2044
2063,2069,2067,2016,2040,2053,2051,2035
2055,2047,2033,2009,2043,2055,2054,2028
2049,2032,2013,2013,2048,2052,2070,2034
2046,2034,2032,2016,2043,2049,2058,2032
2051,2049,2067,2035,2043,2038,2031,2026
2058,2061,2082,2034,2046,2038,2044,2032
2056,2067,2072,2039,2042,2032,2047,2029
2046,2066,2070,2042,2044,2033,2049,2036
2045,2062,2064,2052,2057,2040,2058,2042
2055,2078,2088,2063,2056,2049,2066,2052
2069,2087,2103,2074,2076,2057,2057,2051
2069,2089,2107,2076,2067,2056,2067,2061
2069,2086,2113,2069,2053,2058,2056,2062
2067,2089,2108,2062,2014,2069,2059,2063
2069,2084,2088,2054,1986,2069,2075,2058
2065,2079,2065,2044,1996,2085,2078,2070
2065,2066,2062,2043,1987,2090,2077,2091
2062,2070,2068,2065,2012,2071,2079,2102
2068,2073,2080,2077,2033,2058,2075,2112
2070,2070,2091,2078,2072,2082,2089,2118
2067,2057,2082,2078,2109,2084,2089,2118
2067,2063,2070,2073,2090,2073,2080,2112
2071,2056,2071,2045,2063,2046,2060,2108
2061,2052,2080,2057,2083,2016,2041,2106
2058,2050,2079,2066,2087,2014,2039,2099
2056,2044,2063,2046,2064,1999,2026,2102
2057,2024,2041,2030,2029,1997,2026,2090
2054,2030,2043,2019,2004,2011,2042,2073
2056,2036,2031,2025,1985,2025,2051,2064
2051,2039,2018,2022,1940,2035,2051,2061
2049,2030,2017,2040,1975,2043,2052,2049
2046,2033,2013,2035,2034,2036,2044,2047
2052,2028,2016,2020,1988,2023,2047,2046
2048,2025,2007,2009,1919,2014,2048,2030
2041,2030,1994,2028,2000,2031,2055,2036
2041,2024,1988,2034,2049,2043,2039,2034
2044,2022,1994,2036,2070,2054,2048,2035
2060,2028,2000,2040,2087,2058,2053,2041
2071,2038,2001,2038,2083,2056,2028,2026
2063,2037,1994,2035,2072,2044,2045,2029
2056,2038,1996,2031,2080,2045,2055,2031
2064,2047,2002,2046,2079,2039,2047,2028
2062,2050,2013,2057,2064,2035,2051,2029
2063,2046,2024,2068,2061,2034,2040,2029
2055,2045,2038,2082,2065,2036,2042,2040
2051,2045,2051,2087,2072,2045,2052,2040
2056,2049,2037,2089,2073,2055,2059,2057
2053,2048,2029,2102,2068,2057,2068,2061
2056,2051,2031,2117,2084,2058,2057,2071
2056,2052,2028,2129,2093,2061,2068,2079
2060,2057,2045,2134,2109,2072,2069,2095
2067,2061,2058,2139,2096,2064,2061,2094
2063,2053,2063,2133,2088,2047,2053,2094
2060,2043,2060,2105,2076,2037,2054,2102
2044,2042,2065,2084,2057,2027,2042,2098
2039,2025,2080,2068,2044,2019,2047,2097
2049,2038,2108,2082,2049,2021,2040,2101
2057,2059,2130,2082,2049,2031,2023,2100
2050,2046,2105,2067,2038,2015,2032,2090
2043,2031,2078,2043,2019,2005,2038,2082
2057,2054,2081,2017,1998,2005,2046,2088
2071,2074,2105,2005,1987,2005,2041,2088
2073,2076,2110,1991,1977,2015,2041,2072
2075,2069,2091,1994,2000,2034,2035,2061
2067,2077,2094,2017,2058,2063,2044,2047
2069,2079,2098,2035,2097,2072,2066,2045
2061,2082,2103,2051,2128,2082,2076,2061
2070,2082,2091,2046,2152,2078,2076,2051
2055,2071,2081,2042,2200,2095,2067,2047
2056,2075,2082,2047,2163,2089,2073,2049
2068,2075,2077,2036,2064,2070,2068,2040
2065,2078,2085,2051,2023,2069,2075,2041
2066,2080,2087,2066,2019,2081,2060,2044
2076,2073,2078,2055,2017,2061,2061,2051
2068,2065,2067,2044,2012,2044,2056,2045
2066,2061,2054,2045,2027,2054,2053,2040
2067,2057,2051,2044,2054,2102,2057,2035
2073,2049,2039,2026,1982,2099,2068,2046
2064,2030,2019,2010,1970,2097,2075,2062
2068,2022,2017,2011,2010,2078,2101,2076
2069,2032,2027,2041,2042,2034,2112,2094
2078,2040,2038,2066,2092,2018,2118,2106
2076,2046,2054,2081,2102,2015,2125,2091
2058,2065,2074,2093,2095,2038,2128,2084
2043,2073,2081,2099,2082,2064,2133,2087
2021,2052,2060,2078,2045,2050,2131,2101
2028,2047,2047,2081,2026,2038,2127,2101
2052,2037,2031,2069,2019,2036,2117,2114
2056,2039,2029,2089,2055,2020,2112,2130
2068,2055,2040,2114,2117,2027,2096,2126
2072,2060,2043,2123,2126,2038,2015,2101
2064,2046,2031,2116,2100,2043,2003,2080
2046,2039,2017,2109,2088,2050,1927,2060
2038,2042,2008,2105,2075,2036,1915,2060
2041,2047,2019,2104,2052,2038,1978,2056
2034,2043,2014,2065,1992,2028,1992,2046
2029,2033,2013,2036,1940,2006,1996,2025
2025,2026,2007,2013,1903,1979,1996,2021
2028,2018,2000,1995,1897,1969,2007,2008
2033,2028,2027,2027,1983,1976,2034,2023
2049,2040,2062,2084,2083,2022,2058,2025
2056,2036,2074,2104,2145,2088,2072,2028
2057,2033,2081,2094,2152,2114,2065,2022
2049,2031,2068,2071,2159,2106,2062,2016
2050,2032,2058,2066,2173,2099,2056,2019
2057,2032,2056,2086,2171,2096,2068,2019
2052,2027,2045,2088,2181,2091,2061,2015
2043,2026,2049,2084,2153,2080,2060,2020
2043,2037,2061,2077,2106,2052,2052,2025
2060,2055,2082,2072,2096,2046,2042,2027
2052,2056,2068,2057,2069,2043,2056,2022
2034,2041,2030,2014,1936,2019,2047,2029
2019,2012,2000,1957,1829,2001,2047,2040
2013,2010,2009,1954,1862,2020,2039,2056
2032,2059,2077,1989,1948,2057,2060,2080
2059,2086,2085,2037,2015,2078,2060,2086
2062,2087,2076,2062,2077,2092,2074,2091
2061,2074,2053,2053,2064,2082,2059,2104
2056,2064,2060,2050,2055,2026,2048,2113
2055,2064,2064,2057,2071,2004,2048,2113
2051,2071,2078,2063,2072,2055,2051,2104
2065,2082,2085,2049,2041,2087,2050,2104
2062,2073,2074,2033,2000,2069,2042,2104
2064,2075,2069,2006,1926,2022,2025,2101
2064,2072,2050,1984,1883,1942,2019,2102
2067,2069,2055,1996,1935,1923,2016,2091
2053,2075,2063,2020,1993,1949,2030,2070
2058,2074,2066,2029,2031,1962,2010,2058
2052,2069,2061,2029,2029,1980,2012,2042
2049,2065,2065,2024,2003,1976,2017,2039
2047,2061,2066,2039,2043,1983,2008,2043
2057,2070,2072,2051,2079,2005,2037,2045
2072,2084,2081,2061,2083,2024,2041,2053
2074,2083,2081,2064,2078,2048,2048,2046
2063,2074,2071,2060,2068,2067,2041,2033
2057,2064,2057,2051,2058,2082,2046,2026
2051,2057,2053,2050,2046,2090,2056,2023
2052,2056,2048,2056,2048,2090,2061,2011
2044,2046,2044,2061,2066,2087,2064,2009
2049,2046,2028,2057,2082,2072,2056,2014
2049,2040,2023,2047,2054,2054,2057,2019
2044,2033,2007,2028,2051,2025,2050,2032
2047,2028,1997,2017,2060,2018,2057,2041
2051,2024,1997,2028,2077,2038,2064,2052
2048,2025,1994,2039,2103,2069,2081,2053
2047,2022,1991,2042,2122,2094,2085,2058
2047,2026,1991,2043,2146,2105,2083,2065
2047,2023,1990,2052,2130,2094,2065,2079
2050,2035,1998,2039,2085,2080,2073,2084
2043,2033,1996,2039,2069,2063,2049,2081
2035,2027,1991,2027,2016,2034,2042,2079
2021,2009,1984,2004,1989,2016,2034,2076
2025,2009,1990,2014,2012,2009,2046,2091
2041,2038,2026,2028,2029,2029,2053,2098
2055,2054,2062,2017,1918,2022,2038,2091
2061,2067,2082,2024,1906,2026,2036,2089
2066,2080,2100,2051,1999,2049,2058,2089
2072,2083,2114,2084,2033,2065,2047,2066
2062,2075,2095,2086,2084,2075,2031,2045
2047,2053,2067,2075,2121,2084,2043,2044
2048,2052,2069,2070,2109,2091,2058,2044
2053,2066,2070,2068,2081,2081,2056,2034
2048,2066,2056,2055,2038,2065,2053,2019
2042,2059,2053,2047,2006,2026,2033,2006
2037,2054,2047,2042,1994,2015,2038,2013
2032,2059,2044,2046,1959,2011,2047,2021
2047,2064,2052,2044,1980,2027,2033,2021
2042,2052,2043,2043,2027,2038,2042,2008
2041,2040,2035,2045,2065,2062,2059,2020
2051,2047,2046,2062,2082,2074,2067,2021
2044,2047,2055,2064,2076,2067,2063,2019
2048,2046,2055,2055,2052,2044,2048,2020
2046,2042,2051,2048,2010,2019,2042,2024
2047,2045,2054,2045,2001,2011,2044,2031
2052,2060,2063,2036,2015,2036,2045,2035
2045,2068,2065,2037,2055,2088,2044,2042
2053,2069,2073,2055,2085,2111,2058,2059
2060,2073,2070,2048,2028,2093,2050,2058
2058,2065,2063,2047,1982,2088,2053,2067
2054,2057,2055,2059,1966,2059,2057,2082
2044,2046,2052,2064,1977,2037,2039,2089
2054,2045,2048,2089,2016,2030,2072,2112
2065,2062,2071,2116,2050,2036,2062,2114
2060,2058,2057,2114,2038,2026,2042,2104
2052,2054,2056,2113,2051,2049,2062,2102
2058,2056,2054,2098,2025,2065,2073,2090
2053,2037,2041,2078,1996,2056,2048,2080
2043,2040,2044,2064,1965,2043,2041,2077
2040,2041,2042,2055,1975,2023,2028,2070
2034,2040,2037,2048,2010,1991,2037,2060
2037,2052,2040,2059,2112,2005,2054,2063
2051,2060,2041,2056,2154,2043,2055,2063
2051,2058,2028,2041,2144,2074,2059,2052
2053,2047,2019,2027,2132,2099,2063,2039
2046,2041,2006,2035,2105,2100,2042,2032
2041,2042,2011,2049,2096,2090,2038,2023
2048,2056,2024,2056,2083,2068,2045,2031
2052,2059,2027,2061,2065,2062,2058,2028
2053,2052,2004,2047,2050,2059,2035,2021
2037,2035,1985,2039,2053,2064,2049,2021
2051,2040,2009,2057,2057,2063,2055,2022
2054,2047,2001,2050,2029,2042,2043,2016
2050,2030,2000,2039,1997,2038,2054,2021
2053,2034,2005,2058,2065,2041,2046,2017
2040,2039,2020,2065,2081,2033,2029,2023
2043,2042,2044,2068,2073,2028,2037,2036
2038,2046,2053,2064,2061,2030,2049,2046
2032,2039,2044,2046,2032,2030,2025,2046
2034,2032,2046,2032,2033,2034,2044,2041
2027,2040,2069,2038,2033,2046,2051,2049
2033,2055,2083,2033,2012,2048,2036,2065
2043,2063,2092,2051,2044,2060,2049,2086
2054,2069,2096,2057,2063,2072,2074,2096
2056,2067,2082,2059,2045,2081,2036,2100
2046,2054,2063,2055,2036,2084,2062,2093
2034,2036,2053,2054,2034,2082,2060,2092
2027,2033,2044,2063,2033,2077,2067,2090
2034,2052,2057,2067,2030,2066,2046,2085
2043,2068,2081,2072,2031,2050,2052,2078
2046,2060,2082,2074,2044,2063,2054,2076
2056,2066,2079,2081,2074,2054,2053,2072
2065,2063,2071,2082,2083,2029,2034,2072
2060,2065,2063,2079,2090,2027,2014,2057
2065,2068,2061,2078,2095,2063,2013,2041
2059,2071,2057,2088,2085,2089,2035,2047
2054,2064,2058,2092,2068,2102,2052,2034
2054,2059,2054,2093,2066,2103,2058,2020
2046,2051,2055,2094,2039,2090,2025,2016
2038,2047,2055,2083,2004,2053,2029,2014
2052,2065,2072,2075,1972,2007,2023,2023
2051,2064,2073,2062,1955,2009,1996,2010
2042,2055,2056,2050,1957,1997,2000,2000
2040,2048,2056,2055,2014,1979,2025,2025
2058,2063,2075,2085,2094,2015,2047,2032
2065,2073,2088,2085,2111,2043,2061,2039
2062,2075,2095,2078,2112,2060,2056,2038
2055,2065,2089,2062,2078,2062,2055,2025
2047,2059,2076,2043,2050,2074,2044,2018
2044,2047,2083,2040,2006,2078,2024,2019
2040,2040,2086,2045,1972,2071,2006,2021
2044,2039,2088,2054,1980,2037,1997,2039
2038,2032,2086,2067,2039,1979,2027,2061
2044,2027,2075,2087,2107,1965,2046,2079
2047,2038,2100,2112,2165,2007,2048,2079
2044,2043,2104,2125,2185,2044,2026,2081
2043,2040,2086,2129,2174,2056,2020,2086
2047,2045,2072,2129,2153,2025,2027,2088
2041,2037,2055,2122,2125,2022,2013,2099
2039,2037,2046,2112,2073,2005,2010,2097
2045,2039,2026,2094,1986,2019,2028,2076
2034,2028,2017,2050,1953,2030,2014,2064
2023,2034,2017,2010,1988,2052,2030,2051
2031,2024,2007,1989,2004,2054,2042,2051
2032,2020,2009,1979,2014,2060,2040,2038
2036,2033,2039,1985,2015,2053,2021,2036
2042,2053,2066,1991,2017,2047,2008,2048
2052,2066,2073,2002,2023,2053,2041,2047
2063,2071,2079,2014,2030,2073,2054,2052
2071,2075,2077,2018,2047,2081,2059,2052
2070,2069,2071,2013,2027,2067,2061,2036
2052,2065,2067,2003,2018,2037,2055,2023
2058,2063,2057,2010,2016,2010,2037,2016
2053,2063,2051,2026,2026,2000,2021,2016
2052,2058,2045,2031,2035,2003,2028,2025
2052,2049,2047,2030,2042,2025,2031,2028
2054,2055,2049,2039,2050,2042,2039,2023
2049,2045,2043,2033,2049,2073,2042,2022
2050,2048,2045,2042,2050,2086,2053,2025
2055,2050,2043,2033,2047,2107,2049,2026
2052,2046,2042,2030,2043,2108,2045,2028
2044,2045,2040,2031,2043,2113,2058,2026
2040,2045,2041,2038,2043,2126,2034,2035
2046,2044,2050,2041,2030,2117,2023,2044
2050,2047,2066,2047,2019,2094,2027,2058
2047,2048,2074,2047,1979,2029,2031,2070
2045,2050,2068,2035,1936,1911,2012,2063
2037,2037,2061,2024,1917,1886,2012,2061
2038,2034,2048,2018,1927,1949,2008,2066
2035,2029,2032,2029,1970,2008,2015,2073
2038,2027,2025,2051,2024,2049,2053,2077
2034,2020,2030,2063,2070,2065,2053,2086
2040,2032,2039,2082,2094,2101,2059,2075
2044,2040,2042,2067,2052,2118,2058,2063
2048,2037,2028,2029,1983,2114,2033,2048
2034,2024,2002,1996,1949,2102,2030,2049
2037,2025,2002,2004,1960,2069,2044,2062
2055,2038,2017,2038,2039,2010,2054,2066
2066,2049,2045,2081,2114,2013,2043,2057
2059,2072,2071,2097,2150,2017,2046,2058
2075,2084,2087,2107,2168,2060,2042,2055
2076,2083,2086,2120,2170,2110,2061,2048
2079,2072,2075,2136,2162,2134,2060,2036
2062,2058,2070,2136,2145,2139,2043,2017
2050,2052,2067,2131,2132,2132,2056,2006
2042,2050,2083,2132,2131,2131,2042,2004
2038,2039,2069,2120,2135,2131,2030,2002
2040,2038,2057,2107,2112,2115,2040,2004
2055,2043,2058,2076,2064,2100,2036,2004
2052,2040,2045,2047,2064,2110,2046,1998
2043,2037,2031,2028,2026,2116,2053,1995
2037,2040,2030,2024,1967,2090,2038,1997
2041,2036,2032,2018,1953,2014,2032,2004
2047,2032,2030,2004,1913,1940,2028,2015
2040,2032,2022,1994,1926,1885,2017,2036
2047,2029,2022,2005,2005,1893,2003,2056
2048,2026,2017,2011,2054,1961,2016,2058
2053,2036,2025,1994,2100,2040,2042,2067
2064,2038,2023,1976,2068,2070,2044,2068
2053,2041,2033,1975,2016,2057,2031,2066
2042,2050,2051,2010,2064,2067,2038,2079
2048,2060,2060,2043,2154,2087,2063,2087
2047,2049,2047,2035,2129,2073,2037,2085
2043,2039,2042,2019,2017,2064,2033,2085
2050,2047,2045,2020,1963,2058,2056,2085
2057,2050,2060,2043,2022,2057,2058,2076
2054,2053,2070,2048,2030,2057,2046,2075
2057,2064,2083,2046,2045,2061,2036,2079
2069,2072,2088,2064,2061,2060,2041,2070
2069,2075,2081,2056,2039,2046,2021,2058
2070,2074,2072,2050,2080,2027,2017,2049
2067,2064,2059,2041,2054,2007,2025,2038
2065,2052,2033,2017,1976,1996,2045,2029
2054,2032,2004,2005,1933,1994,2031,2028
2055,2025,2005,2019,1976,2025,2052,2021
2046,2034,1999,2037,2034,2044,2052,2013
2051,2034,1997,2033,2043,2034,2034,2022
2060,2036,1996,2026,2017,2020,2016,2014
2056,2037,2008,2026,2000,2016,2022,1990
2042,2033,2004,2025,2012,2023,2028,1990
2036,2037,2004,2033,2030,2043,2036,1987
2059,2044,2010,2032,2039,2047,2048,1999
2056,2042,1998,2022,2044,2043,2030,2004
2050,2042,2005,2023,2054,2040,2017,2006
2044,2052,2019,2041,2045,2046,2029,2016
2049,2052,2029,2054,2043,2066,2035,2025
2055,2055,2047,2062,2028,2084,2043,2028
2065,2062,2067,2052,2021,2080,2013,2033
2059,2060,2086,2050,2018,2069,2024,2039
2053,2058,2099,2056,2026,2048,1995,2036
2046,2062,2104,2049,2026,2031,2004,2036
2047,2072,2125,2054,2017,2044,2017,2024
2040,2054,2108,2046,1999,2060,2006,2031
2046,2065,2114,2046,2003,2045,2027,2053
2044,2068,2111,2054,2029,2001,2059,2073
2041,2066,2104,2066,2096,2001,2046,2076
2035,2052,2091,2065,2117,2031,2045,2080
2036,2060,2088,2062,2123,2066,2057,2087
2042,2072,2091,2064,2110,2063,2042,2090
2044,2081,2080,2057,2080,2054,2044,2084
2050,2074,2063,2056,2054,2044,2045,2074
2051,2067,2062,2052,2038,2033,2025,2070
2039,2057,2060,2059,2039,2037,2030,2060
2043,2050,2050,2054,2034,2045,2032,2046
2035,2048,2041,2050,2031,2055,2029,2035
2030,2042,2045,2042,2032,2063,2025,2028
2035,2042,2039,2043,2042,2069,2037,2026
2045,2052,2047,2057,2054,2046,2040,2030
2049,2054,2053,2072,2060,2018,2046,2023
2048,2053,2058,2063,2057,2021,2025,2019
2045,2046,2047,2062,2056,2033,2029,2012
2047,2050,2042,2061,2048,2040,2020,2011
2046,2042,2040,2051,2026,2039,2020,1996
2043,2038,2032,2042,2008,2033,2024,2001
2046,2040,2032,2038,2001,2033,2035,2000
2033,2040,2046,2032,1980,2042,2038,1996
2041,2050,2058,2036,1984,2051,2026,2011
2034,2052,2064,2031,1993,2051,2042,2016
2028,2051,2062,2026,1996,2047,2037,2008
2035,2051,2065,2022,2008,2020,2041,2021
2043,2065,2068,2040,2053,1978,2034,2032
2046,2074,2084,2073,2093,1993,2048,2046
2062,2077,2087,2085,2100,2002,2043,2055
2053,2066,2078,2071,2111,2045,2058,2052
2046,2067,2074,2073,2122,2074,2060,2063
2046,2067,2078,2074,2061,2075,2054,2064
2045,2065,2071,2067,2057,2076,2064,2078
2051,2065,2065,2078,2102,2096,2075,2080
2049,2061,2058,2074,2113,2098,2072,2083
2042,2047,2048,2057,2084,2085,2056,2080
2038,2040,2038,2056,2067,2076,2049,2077
2050,2053,2045,2055,2073,2063,2062,2080
2048,2060,2051,2060,2068,2058,2049,2083
2055,2061,2044,2055,2060,2057,2056,2088
2049,2060,2043,2050,2056,2054,2043,2076
2053,2060,2049,2052,2060,2048,2035,2061
2044,2059,2049,2054,2061,2035,2033,2058
