CH1,CH2,CH3,CH4,CH5,CH6,CH7,CH8
2052,2065,2104,2081,2034,2043,2045,2054
2048,2053,2103,2082,2029,2038,2044,2051
2047,2056,2097,2094,2030,2047,2052,2046
2047,2062,2095,2094,2025,2049,2052,2040
2052,2069,2113,2096,2016,2044,2055,2035
2043,2071,2116,2076,1997,2043,2043,2033
2047,2069,2109,2056,1988,2041,2048,2042
2043,2057,2082,2037,2006,2046,2040,2037
2045,2056,2069,2031,2012,2044,2053,2033
2049,2061,2074,2027,2017,2045,2048,2033
2044,2065,2069,2022,2027,2040,2038,2028
2050,2053,2046,2018,2035,2045,2047,2025
2050,2047,2040,2024,2053,2041,2030,2036
2041,2054,2040,2031,2055,2051,2046,2037
2051,2055,2040,2039,2059,2054,2052,2039
2052,2050,2043,2030,2045,2064,2053,2040
2060,2057,2054,2029,2045,2062,2064,2038
2053,2060,2051,2024,2043,2059,2049,2033
2052,2055,2048,2022,2063,2056,2038,2040
2054,2059,2061,2030,2075,2058,2051,2047
2052,2057,2060,2036,2080,2057,2056,2043
2051,2056,2058,2038,2072,2060,2049,2049
2053,2049,2062,2042,2075,2060,2029,2057
2051,2052,2066,2046,2075,2057,2059,2062
2052,2048,2066,2052,2070,2058,2062,2074
2052,2047,2058,2056,2072,2061,2053,2075
2049,2048,2054,2050,2072,2055,2064,2076
2050,2052,2052,2051,2064,2058,2048,2078
2043,2044,2037,2049,2052,2049,2041,2070
2041,2042,2033,2051,2052,2054,2047,2080
2056,2054,2042,2055,2056,2052,2040,2070
2050,2051,2042,2056,2028,2054,2058,2059
2050,2050,2032,2044,2018,2049,2052,2063
2054,2048,2031,2035,2025,2049,2047,2059
2052,2045,2024,2032,2026,2046,2044,2056
2061,2046,2018,2025,2022,2044,2043,2047
2053,2049,2027,2023,2029,2048,2045,2037
2057,2057,2039,2024,2044,2052,2040,2039
2052,2057,2034,2027,2042,2061,2048,2035
2058,2051,2040,2037,2051,2062,2042,2038
2055,2044,2034,2036,2046,2056,2040,2036
2049,2041,2037,2044,2055,2056,2042,2039
2051,2047,2047,2054,2072,2064,2034,2036
2066,2048,2066,2068,2087,2064,2057,2035
2058,2044,2078,2068,2087,2055,2024,2025
2046,2042,2084,2076,2093,2061,2019,2023
2049,2061,2098,2087,2101,2075,2051,2028
2057,2059,2092,2087,2091,2073,2065,2038
2055,2053,2080,2071,2072,2065,2053,2035
2055,2049,2081,2068,2060,2060,2059,2046
2060,2054,2072,2063,2023,2065,2054,2039
2061,2055,2069,2049,1967,2049,2044,2046
2051,2047,2061,2031,1951,2023,2034,2046
2055,2035,2036,2018,1955,2023,2049,2038
2049,2030,2028,2010,1959,2034,2053,2051
2036,2029,2038,2018,1961,2039,2067,2054
2041,2034,2048,2026,2000,2048,2064,2060
2031,2038,2039,2032,2045,2042,2075,2061
2037,2046,2034,2029,2032,2043,2053,2066
2047,2046,2019,2018,2034,2041,2048,2072
2042,2038,2005,2009,2030,2040,2055,2071
2039,2027,2001,2005,2062,2049,2048,2068
2042,2037,2014,2027,2084,2059,2054,2079
2049,2046,2017,2046,2082,2062,2049,2068
2047,2033,2014,2033,2065,2052,2039,2058
2050,2029,2017,2046,2078,2061,2022,2055
2053,2031,2028,2050,2056,2061,2048,2052
2045,2031,2047,2053,2057,2066,2044,2043
2047,2037,2055,2050,2063,2068,2047,2047
2050,2047,2074,2060,2071,2076,2035,2045
2046,2045,2067,2048,2061,2071,2049,2034
2045,2042,2058,2038,2061,2069,2043,2034
2055,2043,2065,2029,2058,2068,2037,2037
2063,2049,2061,2023,2044,2063,2053,2035
2054,2046,2057,2017,2013,2055,2050,2031
2052,2040,2047,2013,2002,2041,2035,2024
2049,2041,2042,2013,2001,2025,2035,2021
2047,2035,2040,2022,2020,2029,2034,2026
2045,2036,2043,2038,2025,2036,2042,2026
2048,2039,2041,2035,2039,2039,2022,2016
2044,2026,2027,2027,2078,2045,2024,2015
2034,2020,2024,2042,2108,2044,2041,2016
2029,2021,2025,2054,2116,2047,2041,2021
2026,2020,2029,2063,2096,2049,2047,2030
2029,2032,2041,2072,2086,2049,2045,2047
2042,2035,2048,2075,2076,2051,2047,2044
2045,2029,2040,2069,2062,2052,2042,2055
2047,2033,2032,2059,2034,2048,2042,2055
2054,2029,2021,2056,2016,2048,2050,2059
2054,2030,2017,2037,1914,2043,2051,2063
2052,2028,2022,2042,1909,2046,2066,2072
2051,2026,2029,2056,1967,2054,2070,2080
2054,2030,2022,2052,1982,2050,2038,2078
2043,2022,2005,2040,1993,2045,2036,2076
2047,2017,1990,2023,2011,2043,2041,2068
2048,2024,1974,2005,2038,2039,2019,2050
2040,2009,1956,1986,2037,2032,2026,2058
2039,2020,1988,1994,2065,2045,2035,2056
2053,2049,2033,2029,2146,2067,2039,2056
2058,2072,2058,2038,2154,2070,2044,2053
2062,2073,2040,2042,2124,2066,2047,2053
2072,2069,2037,2039,2098,2061,2055,2043
2071,2073,2052,2053,2087,2060,2053,2038
2067,2058,2077,2067,2077,2057,2036,2026
2062,2050,2083,2065,2070,2049,2049,2024
2062,2057,2104,2076,2062,2049,2061,2025
2060,2060,2117,2083,2081,2052,2059,2030
2055,2051,2118,2081,2087,2039,2052,2028
2043,2037,2115,2067,2074,2026,2051,2022
2056,2043,2109,2065,2067,2023,2047,2016
2046,2036,2109,2082,2076,2024,2041,2017
2038,2035,2106,2098,2093,2051,2056,2032
2056,2046,2099,2119,2105,2060,2068,2038
2061,2056,2101,2117,2090,2057,2073,2040
2068,2054,2090,2101,2046,2043,2062,2040
2058,2042,2068,2077,1949,2033,2062,2040
2058,2045,2068,2068,1950,2035,2061,2036
2053,2051,2068,2065,2028,2055,2058,2039
2056,2054,2072,2056,2070,2058,2058,2048
2058,2066,2064,2036,2069,2066,2049,2056
2057,2065,2061,2012,2054,2060,2041,2068
2063,2066,2059,2008,2046,2045,2057,2071
2063,2075,2076,2025,2057,2043,2057,2066
2060,2070,2074,2023,2058,2053,2063,2071
2065,2062,2066,2017,2044,2055,2064,2078
2066,2067,2068,2028,2043,2049,2061,2076
2059,2053,2061,2016,2036,2044,2064,2076
2052,2047,2049,2010,2052,2053,2057,2073
2056,2052,2052,2018,2056,2050,2034,2067
2058,2053,2060,2026,2053,2057,2031,2066
2062,2053,2065,2030,2046,2063,2045,2057
2070,2061,2060,2041,2073,2054,2039,2045
2060,2058,2056,2042,2083,2053,2038,2041
2053,2048,2050,2040,2079,2052,2041,2035
2055,2044,2048,2038,2075,2052,2052,2036
2057,2047,2051,2046,2071,2050,2053,2032
2059,2049,2062,2056,2078,2055,2054,2028
2058,2049,2067,2063,2083,2053,2048,2029
2058,2046,2061,2056,2076,2048,2058,2017
2053,2044,2058,2059,2050,2042,2041,2016
2049,2038,2063,2047,1976,2040,2041,2023
2048,2037,2067,2053,1988,2045,2026,2021
2037,2024,2057,2060,2012,2048,2040,2024
2045,2022,2057,2065,2022,2052,2052,2031
2059,2036,2060,2064,2046,2049,2043,2033
2054,2040,2049,2067,2061,2054,2037,2033
2061,2047,2039,2065,2064,2049,2023,2036
2057,2041,2038,2066,2071,2058,2041,2040
2066,2044,2033,2053,2064,2055,2043,2038
2057,2041,2039,2053,2063,2052,2039,2044
2050,2041,2043,2047,2056,2052,2056,2044
2049,2045,2042,2042,2045,2049,2049,2053
2056,2051,2049,2024,2033,2046,2045,2055
2060,2057,2047,2015,2017,2057,2044,2058
2064,2060,2053,2024,2036,2066,2056,2068
2065,2064,2048,2023,2044,2069,2056,2070
2064,2065,2047,2027,2053,2065,2063,2074
2054,2062,2046,2028,2047,2058,2037,2064
2059,2061,2050,2040,2052,2059,2049,2068
2062,2066,2058,2044,2048,2061,2053,2071
2062,2069,2058,2044,2034,2058,2044,2064
2057,2063,2047,2032,2017,2047,2042,2064
2056,2061,2049,2034,2020,2045,2045,2055
2058,2059,2048,2038,2022,2044,2034,2056
2057,2057,2050,2036,2014,2048,2038,2047
2060,2052,2052,2029,2025,2050,2049,2037
2066,2067,2069,2034,2034,2055,2045,2036
2066,2074,2070,2026,2040,2048,2042,2032
2058,2061,2056,2028,2029,2034,2047,2025
2054,2052,2049,2024,2015,2032,2026,2024
2059,2052,2054,2033,2023,2038,2051,2017
2060,2057,2055,2045,2046,2049,2041,2025
2055,2058,2058,2049,2028,2053,2033,2012
2063,2053,2056,2042,2017,2038,2028,2011
2047,2041,2057,2037,2016,2040,2026,2006
2049,2040,2060,2041,2026,2049,2048,2011
2057,2053,2064,2039,2030,2051,2047,2026
2057,2054,2062,2041,2031,2063,2062,2029
2064,2059,2066,2048,2037,2073,2069,2033
2065,2061,2065,2054,2059,2074,2053,2024
2061,2056,2054,2049,2074,2071,2052,2026
2057,2044,2041,2050,2082,2063,2048,2032
2057,2041,2032,2046,2076,2063,2039,2028
2056,2045,2036,2048,2072,2069,2038,2046
2066,2050,2043,2051,2061,2065,2061,2043
2063,2045,2040,2049,2049,2062,2054,2054
2060,2039,2037,2047,2027,2051,2055,2057
2058,2041,2028,2040,2002,2034,2038,2064
2043,2029,2014,2038,2012,2039,2031,2059
2039,2024,2010,2045,2054,2043,2036,2051
2041,2016,2011,2045,2058,2044,2037,2044
2039,2026,2018,2050,2061,2049,2044,2042
2046,2035,2033,2060,2056,2044,2059,2047
2047,2039,2034,2055,2041,2046,2055,2042
2039,2034,2037,2055,2047,2049,2055,2038
2049,2045,2049,2064,2041,2043,2052,2035
2057,2046,2060,2048,1998,2033,2040,2029
2060,2046,2055,2052,2025,2041,2041,2028
2064,2043,2054,2058,2037,2050,2053,2027
2060,2041,2057,2060,2037,2044,2041,2024
2050,2031,2053,2059,2037,2044,2039,2010
2053,2043,2057,2070,2055,2044,2055,2019
2068,2063,2077,2072,2079,2062,2056,2021
2075,2066,2078,2069,2067,2059,2050,2018
2066,2059,2065,2045,2027,2052,2045,2016
2063,2044,2039,2036,2043,2046,2039,2019
2050,2032,2020,2040,2059,2044,2038,2020
2052,2034,2026,2049,2065,2057,2034,2020
2057,2050,2037,2069,2069,2066,2026,2028
2057,2057,2041,2067,2072,2063,2050,2036
2063,2064,2039,2067,2069,2066,2046,2038
2066,2054,2038,2061,2074,2066,2048,2042
2062,2053,2035,2045,2060,2059,2053,2039
2061,2052,2039,2047,2051,2061,2044,2037
2053,2055,2056,2047,2051,2059,2047,2040
2062,2061,2075,2053,2052,2062,2035,2049
2061,2061,2075,2061,2062,2059,2041,2053
2059,2059,2072,2062,2058,2059,2039,2052
2058,2051,2069,2054,2053,2054,2044,2052
2051,2040,2064,2042,2038,2048,2048,2057
2042,2041,2058,2036,2029,2041,2042,2063
2051,2049,2068,2044,2022,2033,2035,2057
2041,2042,2072,2041,2031,2040,2036,2063
2050,2045,2072,2040,2050,2044,2046,2058
2047,2044,2067,2046,2046,2048,2044,2057
2047,2046,2069,2049,2056,2054,2051,2063
2051,2059,2065,2060,2066,2054,2054,2060
2057,2061,2059,2056,2065,2061,2055,2058
2060,2056,2059,2059,2069,2058,2054,2051
2058,2049,2056,2061,2070,2064,2045,2038
2053,2052,2049,2049,2069,2062,2051,2026
2052,2051,2052,2045,2064,2058,2062,2035
2063,2047,2049,2045,2061,2060,2048,2037
2056,2045,2048,2046,2050,2056,2056,2036
2059,2043,2062,2058,2034,2044,2050,2036
2059,2049,2069,2062,2024,2039,2041,2033
2062,2051,2063,2075,2026,2040,2046,2033
2064,2052,2066,2075,2019,2036,2050,2032
2057,2042,2052,2068,2010,2041,2045,2027
2059,2037,2035,2071,2019,2047,2065,2021
2054,2045,2029,2077,2035,2046,2052,2026
2053,2040,2020,2067,2033,2041,2046,2026
2051,2036,2023,2076,2034,2034,2053,2025
2052,2036,2016,2072,2036,2037,2046,2027
2050,2028,2021,2069,2051,2036,2036,2034
2047,2032,2014,2057,2039,2045,2044,2044
2049,2040,2022,2048,2006,2045,2043,2044
2047,2039,2022,2037,2002,2050,2047,2048
2049,2037,2014,2014,1988,2043,2047,2046
2044,2034,2020,1996,1978,2044,2048,2060
2050,2040,2032,2004,1992,2045,2025,2061
2058,2049,2045,2016,2003,2037,2036,2074
2059,2054,2058,2027,2027,2034,2038,2076
2063,2055,2075,2049,2044,2034,2053,2067
2054,2041,2070,2042,2022,2023,2033,2067
2044,2034,2062,2038,2024,2035,2030,2065
2048,2042,2068,2043,2031,2046,2040,2067
2054,2043,2067,2042,2042,2049,2039,2065
2056,2040,2064,2038,2051,2041,2033,2063
2055,2041,2061,2032,2065,2034,2031,2054
2053,2044,2067,2038,2055,2041,2038,2051
2057,2054,2084,2049,2051,2040,2065,2042
2060,2061,2084,2059,2050,2043,2052,2037
2062,2056,2077,2053,2017,2042,2051,2039
2056,2051,2066,2057,2034,2050,2045,2032
2058,2043,2061,2052,2064,2053,2026,2024
2057,2045,2060,2052,2056,2051,2047,2023
2048,2047,2065,2053,2055,2047,2032,2021
2049,2049,2068,2056,2054,2053,2053,2025
2056,2047,2057,2061,2061,2054,2054,2033
2055,2044,2061,2065,2061,2052,2047,2022
2045,2036,2056,2056,2044,2044,2036,2012
2045,2031,2059,2051,2039,2048,2046,2021
2046,2042,2058,2054,2033,2048,2053,2021
2047,2045,2059,2066,2039,2049,2049,2030
2054,2047,2067,2089,2079,2055,2065,2032
2056,2052,2076,2106,2104,2058,2045,2038
2060,2046,2073,2114,2109,2054,2040,2041
2057,2043,2071,2108,2098,2045,2034,2050
2057,2039,2061,2104,2081,2038,2054,2043
2049,2039,2040,2105,2120,2033,2050,2049
2048,2035,2038,2098,2126,2031,2043,2045
2041,2025,2011,2079,2127,2021,2036,2053
2038,2017,1998,2056,2116,2028,2060,2053
2038,2017,1978,2032,2041,2035,2060,2062
2042,2017,1975,2043,2075,2054,2059,2077
2053,2027,1994,2067,2155,2071,2060,2078
2045,2029,2012,2065,2161,2061,2051,2074
2049,2031,2007,2058,2112,2057,2046,2076
2047,2037,2010,2047,1985,2044,2042,2077
2055,2040,2010,2031,1965,2042,2048,2075
2054,2034,2012,2019,1979,2041,2051,2068
2053,2042,2036,2021,1990,2039,2053,2064
2059,2048,2052,2024,2000,2040,2043,2048
2062,2061,2069,2024,2026,2044,2040,2043
2061,2064,2065,2025,2005,2043,2033,2036
2053,2052,2057,2000,1896,2029,2034,2030
2042,2038,2046,1990,1875,2020,2043,2023
2039,2038,2058,2014,1930,2028,2047,2018
2036,2052,2071,2024,1944,2032,2057,2019
2038,2055,2065,2025,1971,2041,2049,2022
2043,2057,2061,2023,2012,2038,2048,2027
2045,2044,2054,2025,2050,2041,2046,2020
2040,2037,2042,2025,2061,2046,2052,2015
2041,2036,2034,2024,2038,2039,2044,2019
2036,2034,2037,2023,2034,2040,2052,2025
2044,2047,2053,2031,2036,2048,2045,2034
2064,2052,2053,2034,2033,2044,2043,2044
2063,2053,2052,2038,2032,2049,2044,2043
2067,2063,2055,2038,2034,2048,2050,2039
2060,2056,2049,2041,2048,2052,2044,2045
2054,2047,2042,2048,2064,2054,2051,2040
2055,2054,2047,2055,2067,2057,2038,2038
2052,2060,2054,2065,2071,2060,2040,2041
2047,2054,2053,2070,2067,2053,2043,2042
2056,2060,2059,2064,2050,2060,2047,2053
2059,2058,2062,2069,2056,2053,2049,2064
2060,2062,2057,2066,2070,2056,2050,2065
2050,2056,2053,2071,2068,2057,2054,2068
2046,2047,2050,2078,2100,2061,2032,2073
2043,2031,2041,2074,2112,2061,2043,2060
2035,2038,2045,2073,2108,2065,2026,2056
2039,2040,2061,2071,2097,2064,2047,2066
2040,2046,2063,2064,2060,2059,2030,2056
2044,2046,2064,2063,2038,2050,2050,2060
2044,2048,2063,2062,2036,2036,2060,2056
2038,2048,2060,2047,1993,2026,2049,2043
2044,2050,2067,2027,1922,2013,2026,2042
2049,2054,2067,2024,1940,2027,2036,2038
2054,2044,2065,2025,1976,2034,2047,2033
2052,2044,2054,2022,2000,2031,2064,2032
2049,2045,2050,2025,2016,2037,2065,2029
2051,2053,2064,2047,2039,2042,2067,2036
2053,2069,2077,2053,2046,2051,2068,2038
2057,2072,2072,2051,2040,2044,2070,2035
2058,2060,2062,2051,2044,2039,2068,2029
2058,2054,2053,2045,2042,2046,2052,2036
2058,2045,2045,2047,2031,2039,2044,2035
2060,2045,2040,2045,2034,2040,2045,2037
2069,2057,2041,2038,2039,2045,2060,2037
2060,2053,2037,2034,2031,2038,2054,2035
2053,2045,2037,2032,2035,2041,2059,2033
2053,2050,2050,2043,2050,2052,2059,2031
2054,2055,2049,2039,2043,2049,2063,2034
2050,2043,2040,2028,2046,2044,2053,2040
2042,2041,2045,2026,2049,2048,2048,2047
2039,2048,2056,2037,2043,2053,2054,2051
2032,2054,2059,2042,2053,2052,2054,2049
2038,2049,2055,2052,2053,2059,2050,2060
2045,2045,2043,2053,2057,2058,2064,2066
2041,2039,2034,2051,2052,2050,2061,2067
2036,2029,2022,2040,2039,2048,2067,2068
2040,2032,2030,2042,2039,2045,2045,2064
2034,2038,2036,2046,2046,2044,2033,2066
2037,2036,2046,2059,2053,2053,2047,2066
2042,2054,2062,2065,2054,2057,2066,2067
2048,2058,2061,2069,2052,2055,2065,2067
2050,2054,2060,2065,2055,2061,2067,2062
2055,2055,2059,2062,2053,2059,2067,2062
2054,2060,2058,2060,2045,2056,2061,2063
2062,2065,2054,2054,2038,2054,2058,2054
2056,2057,2043,2040,2029,2042,2061,2052
2054,2056,2048,2040,2008,2038,2067,2056
2061,2067,2046,2044,2008,2043,2051,2051
2065,2066,2057,2051,2022,2052,2049,2052
2072,2068,2065,2045,2028,2052,2053,2049
2065,2059,2067,2048,2024,2054,2066,2041
2060,2064,2063,2054,2022,2054,2068,2034
2060,2063,2067,2049,2026,2050,2071,2031
2064,2059,2063,2043,2026,2040,2049,2031
2064,2053,2061,2049,2041,2045,2056,2035
2064,2056,2069,2053,2056,2047,2047,2039
2070,2061,2083,2056,2063,2039,2042,2037
2058,2060,2092,2063,2073,2038,2024,2034
2055,2057,2104,2063,2069,2029,2043,2030
2049,2058,2110,2072,2062,2032,2060,2025
2054,2064,2109,2075,2063,2040,2060,2038
2050,2061,2103,2075,2061,2041,2049,2048
2049,2060,2100,2077,2060,2044,2050,2051
2049,2060,2092,2077,2064,2049,2059,2054
2044,2056,2081,2076,2067,2045,2065,2060
2048,2058,2069,2070,2060,2045,2053,2066
2043,2058,2066,2070,2052,2046,2034,2073
2045,2051,2051,2069,2043,2049,2044,2074
2044,2047,2045,2060,2042,2048,2041,2070
2041,2041,2027,2044,2032,2044,2030,2062
2032,2034,2010,2044,2040,2048,2033,2069
2037,2035,2026,2051,2029,2054,2031,2067
2054,2036,2050,2068,2033,2058,2047,2068
2048,2036,2046,2067,2039,2059,2040,2063
2049,2033,2041,2064,2038,2060,2057,2063
2047,2033,2018,2047,2034,2058,2042,2048
2043,2034,2014,2057,2054,2064,2043,2045
2043,2035,2013,2065,2070,2071,2040,2042
2055,2038,2009,2066,2070,2065,2026,2038
2043,2050,2007,2072,2052,2051,2025,2036
2052,2047,2009,2066,2026,2032,2020,2029
2043,2042,2007,2060,2022,2024,2037,2030
2048,2044,2016,2053,2024,2032,2028,2030
2045,2034,2026,2041,2038,2035,2039,2025
2042,2040,2041,2020,2032,2031,2040,2024
2044,2048,2074,2005,2016,2030,2028,2018
2036,2050,2081,1986,2013,2026,2027,2020
2044,2049,2080,1978,2001,2039,2052,2035
2059,2061,2083,1976,2009,2051,2049,2037
2061,2084,2093,2003,2020,2054,2047,2044
2066,2086,2099,2020,1997,2050,2041,2045
2063,2075,2077,2018,2000,2046,2064,2048
2057,2061,2072,2029,2008,2045,2066,2050
2053,2063,2078,2044,2004,2049,2056,2051
2054,2066,2077,2043,1986,2038,2059,2057
2057,2065,2074,2041,1987,2038,2034,2056
2056,2058,2067,2042,2024,2045,2047,2064
2060,2053,2064,2055,2042,2051,2048,2069
2056,2044,2060,2061,2055,2042,2054,2068
2041,2040,2060,2053,2072,2038,2012,2063
2039,2039,2054,2055,2091,2056,2045,2062
2031,2043,2046,2064,2124,2062,2036,2060
2031,2030,2042,2073,2122,2059,2043,2067
2039,2033,2040,2081,2124,2071,2048,2071
2050,2048,2048,2080,2102,2077,2062,2072
2055,2045,2038,2059,2060,2060,2042,2065
2043,2044,2030,2056,2057,2051,2051,2054
2047,2035,2024,2049,2049,2033,2047,2056
2042,2036,2031,2042,2031,2030,2028,2042
2043,2040,2038,2041,2034,2030,2039,2044
2051,2048,2044,2047,2062,2036,2042,2044
2056,2048,2050,2048,2081,2042,2045,2048
2049,2042,2041,2041,2073,2041,2040,2053
2056,2030,2038,2025,2050,2033,2036,2053
2056,2038,2045,2018,2030,2030,2036,2044
2057,2051,2062,2030,2042,2038,2042,2044
2061,2065,2077,2037,2054,2050,2052,2031
2059,2070,2076,2041,2060,2053,2045,2033
2058,2061,2068,2029,2082,2056,2044,2035
2050,2053,2054,2024,2108,2058,2050,2034
2058,2057,2054,2024,2120,2052,2041,2038
2057,2058,2050,2030,2118,2043,2052,2036
2055,2056,2043,2033,2122,2054,2039,2037
2055,2058,2042,2041,2118,2061,2039,2040
2055,2058,2046,2038,2100,2052,2041,2046
2056,2038,2030,2030,2076,2045,2029,2047
2046,2020,2016,2032,2038,2040,2037,2046
2048,2014,2015,2031,1941,2033,2049,2049
2050,2029,2026,2034,1918,2039,2039,2052
2054,2031,2024,2035,1985,2045,2061,2052
2053,2029,2009,2050,2034,2061,2070,2067
2043,2026,1992,2050,2058,2066,2059,2074
2048,2020,1982,2053,2062,2063,2051,2066
2039,2015,1969,2049,2062,2058,2043,2060
2028,1994,1952,2050,2050,2052,2037,2053
2032,1991,1944,2045,2056,2054,2028,2067
2032,2006,1952,2052,2046,2052,2033,2062
2031,2012,1954,2058,2037,2044,2044,2066
2032,2017,1966,2063,2032,2031,2026,2058
2033,2012,1977,2056,2020,2033,2036,2058
2030,2020,2004,2054,2010,2030,2020,2048
2030,2026,2037,2047,2006,2029,2011,2042
2035,2044,2073,2045,2007,2026,2030,2040
2045,2069,2103,2048,2014,2032,2026,2049
2057,2075,2119,2050,2028,2048,2051,2045
2053,2078,2112,2044,2030,2044,2058,2052
2057,2073,2120,2059,2042,2046,2050,2047
2065,2093,2144,2075,2054,2053,2047,2044
2063,2099,2155,2075,2051,2058,2050,2043
2056,2088,2150,2073,2043,2053,2055,2039
2054,2072,2135,2063,2035,2050,2033,2035
2052,2064,2111,2052,2025,2045,2043,2038
2053,2054,2093,2046,2029,2046,2054,2034
2047,2054,2080,2038,2017,2053,2061,2050
2051,2051,2067,2048,2064,2054,2055,2051
2049,2053,2062,2059,2096,2060,2052,2046
2056,2053,2056,2060,2098,2070,2057,2050
2054,2048,2060,2074,2098,2078,2051,2046
2052,2045,2060,2090,2118,2080,2042,2049
2056,2042,2067,2106,2143,2088,2026,2048
2045,2036,2058,2115,2129,2081,2029,2052
2039,2031,2056,2103,2069,2035,2033,2056
2039,2026,2046,2073,1967,2002,2036,2059
2040,2024,2036,2077,2016,2021,2032,2059
2035,2028,2020,2075,2049,2036,2033,2063
2039,2033,2019,2089,2074,2046,2036,2064
2042,2036,2017,2085,2108,2051,2033,2064
2039,2030,2007,2093,2121,2053,2033,2066
2041,2037,2012,2080,2098,2052,2033,2063
2042,2034,2007,2060,2077,2042,2028,2059
2034,2030,2010,2019,2022,2015,2036,2049
2031,2029,2011,1983,1914,2002,2026,2040
2039,2037,2040,1965,1829,2011,2015,2044
2044,2046,2060,1977,1928,2024,2025,2040
2041,2048,2060,1988,1980,2039,2050,2040
2045,2044,2069,1998,2014,2046,2049,2048
2044,2051,2074,2010,2022,2050,2062,2051
2050,2047,2075,2022,2023,2050,2056,2045
2050,2049,2080,2032,2028,2047,2055,2045
2052,2053,2078,2039,2032,2045,2061,2046
2058,2067,2083,2047,2038,2050,2055,2050
2062,2063,2073,2037,2033,2051,2044,2049
2059,2049,2060,2033,2030,2041,2044,2037
2051,2044,2056,2021,2024,2047,2040,2031
2048,2046,2061,2032,2029,2044,2044,2033
2053,2047,2064,2035,2028,2046,2042,2036
2056,2052,2066,2047,2028,2044,2031,2048
2054,2055,2068,2050,2024,2045,2049,2045
2050,2053,2058,2054,2022,2053,2053,2054
2049,2050,2052,2047,2033,2057,2059,2060
2056,2047,2048,2056,2026,2049,2059,2057
2055,2049,2049,2050,2023,2041,2048,2063
2058,2052,2051,2051,2022,2045,2039,2062
2053,2049,2052,2056,2029,2042,2038,2069
2049,2042,2041,2052,2034,2042,2047,2078
2044,2044,2046,2048,2039,2041,2045,2075
2045,2040,2047,2056,2035,2044,2042,2075
2041,2037,2047,2058,2039,2052,2049,2075
2045,2039,2044,2057,2034,2048,2041,2072
2044,2030,2041,2054,2034,2038,2061,2076
2049,2037,2048,2049,2028,2040,2056,2064
2046,2046,2044,2048,2021,2040,2046,2066
2047,2041,2047,2054,2039,2041,2058,2060
2044,2043,2047,2061,2059,2046,2047,2058
2044,2046,2048,2066,2053,2050,2048,2051
2041,2044,2045,2061,2039,2038,2044,2054
2044,2041,2040,2063,2041,2035,2059,2047
2043,2038,2043,2064,2049,2043,2057,2044
2039,2043,2040,2065,2056,2050,2059,2042
2040,2035,2029,2063,2047,2054,2054,2043
2042,2033,2020,2055,2039,2049,2054,2035
2044,2037,2025,2042,2042,2058,2058,2033
2050,2047,2027,2045,2054,2064,2071,2029
2054,2045,2028,2045,2053,2060,2061,2022
2046,2042,2019,2032,2052,2051,2051,2033
2045,2027,2007,2013,2063,2059,2050,2037
2047,2023,2005,2016,2082,2063,2064,2044
2058,2031,2023,2022,2072,2056,2052,2045
2048,2037,2030,2033,2051,2059,2059,2045
2055,2046,2050,2036,2052,2064,2067,2033
2056,2048,2050,2029,2038,2054,2052,2037
2046,2039,2050,2032,2048,2048,2046,2032
2035,2035,2054,2055,2041,2038,2057,2047
2030,2032,2074,2059,2031,2028,2057,2048
2034,2031,2078,2066,2023,2027,2049,2048
2042,2044,2077,2066,2015,2025,2052,2056
2044,2045,2084,2069,2038,2037,2052,2064
2045,2045,2084,2079,2067,2039,2051,2069
2048,2060,2087,2085,2079,2042,2046,2075
2053,2059,2081,2095,2094,2050,2050,2076
2054,2050,2058,2087,2079,2041,2037,2086
2039,2028,2035,2082,2070,2045,2037,2080
2045,2034,2044,2080,2070,2058,2053,2084
2052,2053,2060,2078,2061,2059,2054,2072
2046,2043,2061,2072,2036,2047,2050,2066
2045,2046,2065,2050,2020,2037,2047,2057
2045,2046,2071,2026,2011,2036,2042,2057
2041,2048,2065,2018,2021,2039,2050,2054
2047,2054,2063,2018,2022,2033,2045,2057
2053,2051,2051,2021,2017,2029,2049,2053
2051,2044,2041,2019,2030,2035,2044,2048
2051,2042,2037,2019,2041,2038,2051,2051
2059,2040,2033,2023,2035,2040,2051,2047
2058,2043,2042,2034,2027,2042,2037,2042
2056,2057,2058,2038,2026,2045,2050,2033
2061,2057,2065,2037,2021,2048,2053,2041
2058,2056,2061,2029,2020,2046,2019,2033
2049,2044,2042,2030,2009,2040,2023,2026
2049,2039,2040,2026,2007,2043,2034,2034
2049,2044,2053,2027,2003,2040,2031,2045
2051,2049,2053,2023,2000,2041,2038,2043
2044,2051,2054,2029,2016,2047,2055,2051
2056,2059,2055,2038,2029,2048,2062,2055
2052,2058,2053,2040,2016,2052,2072,2054
2051,2048,2056,2037,1998,2041,2073,2056
2052,2052,2056,2034,2018,2042,2080,2060
2052,2045,2052,2038,2044,2040,2055,2071
2048,2047,2062,2046,2073,2048,2040,2069
2053,2049,2063,2059,2087,2055,2068,2078
2053,2057,2071,2055,2089,2052,2071,2084
2060,2058,2057,2050,2081,2058,2061,2087
2058,2049,2041,2040,2072,2057,2056,2087
2054,2042,2033,2032,2059,2056,2041,2076
2039,2034,2015,2030,2053,2051,2040,2075
2046,2035,2014,2028,2059,2053,2064,2075
2054,2044,2007,2038,2049,2049,2058,2068
2052,2040,1993,2035,2062,2050,2057,2073
2044,2034,1985,2024,2054,2057,2062,2065
2044,2030,1972,2013,2052,2055,2059,2063
2041,2028,1972,2009,2043,2055,2045,2054
2047,2037,1984,2017,2044,2053,2057,2053
2049,2044,1993,2020,2047,2044,2054,2047
2050,2045,2002,2024,2045,2040,2046,2046
2053,2040,2017,2031,2044,2043,2035,2046
2057,2042,2015,2036,2034,2041,2029,2039
2044,2038,2029,2044,2038,2040,2044,2034
2040,2034,2052,2062,2049,2053,2044,2024
2039,2041,2086,2092,2056,2047,2053,2026
2035,2046,2094,2110,2051,2029,2020,2016
2031,2032,2094,2114,2045,2027,2022,2016
2027,2027,2093,2108,2041,2040,2038,2027
2042,2028,2090,2104,2044,2038,2039,2036
2047,2037,2090,2097,2052,2043,2040,2034
2050,2053,2087,2101,2066,2049,2031,2044
2054,2053,2081,2105,2085,2053,2059,2045
2059,2058,2066,2084,2079,2056,2058,2046
2062,2055,2055,2065,2066,2051,2064,2052
2059,2057,2040,2054,2056,2038,2058,2053
2055,2047,2026,2029,2039,2026,2048,2051
2050,2030,2022,2018,2032,2026,2048,2056
2050,2034,2035,2008,2027,2018,2036,2064
2053,2050,2052,2005,2014,2009,2034,2066
2054,2052,2052,1998,1996,2006,2047,2074
2054,2050,2046,1991,1984,2008,2040,2082
2050,2048,2046,1998,1978,2001,2028,2068
2042,2046,2041,1988,1968,1997,2027,2064
2037,2040,2039,1994,1992,2020,2034,2068
2052,2062,2057,2029,2067,2047,2040,2071
2056,2064,2057,2047,2126,2069,2054,2064
2058,2064,2055,2049,2160,2083,2072,2061
2055,2062,2058,2054,2163,2085,2075,2060
2053,2058,2054,2051,2147,2075,2054,2056
2059,2062,2048,2045,2128,2067,2051,2046
2055,2057,2044,2041,2111,2063,2055,2051
2059,2056,2049,2045,2094,2063,2075,2047
2063,2058,2043,2041,2051,2049,2057,2048
2062,2056,2043,2024,1919,2024,2050,2034
2053,2053,2038,2008,1846,2004,2044,2035
2053,2058,2039,2008,1890,2004,2046,2035
2056,2054,2036,2016,1915,2006,2031,2028
2056,2053,2034,2014,1958,2012,2038,2022
2045,2044,2033,2038,2020,2039,2024,2039
2057,2055,2046,2070,2115,2059,2050,2051
2069,2063,2051,2075,2144,2084,2051,2055
2061,2063,2046,2067,2133,2110,2068,2046
2056,2055,2047,2053,2101,2120,2047,2036
2044,2058,2066,2063,2098,2128,2053,2035
2048,2061,2083,2081,2114,2113,2058,2046
2055,2059,2074,2073,2091,2061,2033,2056
2041,2052,2064,2062,2058,2011,2022,2068
2045,2056,2059,2081,2105,2035,2039,2077
2055,2050,2050,2082,2143,2068,2067,2077
2053,2050,2032,2069,2114,2076,2065,2070
2049,2040,2021,2054,2068,2066,2050,2070
2042,2033,2020,2043,2052,2060,2035,2073
2041,2040,2024,2048,2027,2042,2038,2073
2049,2044,2035,2045,2008,2034,2021,2075
2043,2041,2027,2038,2014,2032,2021,2064
2044,2049,2030,2036,2001,2039,2027,2068
2051,2062,2036,2028,1947,2027,2053,2066
2047,2059,2028,2014,1959,2029,2057,2062
2042,2061,2016,2018,1940,2032,2064,2060
2050,2054,2016,2026,1940,2050,2062,2053
2045,2051,2015,2033,1989,2052,2047,2044
2042,2045,2011,2030,2028,2047,2051,2037
2046,2045,2019,2030,2057,2042,2050,2036
2048,2040,2032,2039,2065,2045,2050,2034
2053,2041,2051,2037,2065,2049,2044,2036
2060,2053,2063,2039,2054,2058,2049,2039
2051,2057,2064,2036,2027,2065,2042,2034
2054,2060,2052,2023,2013,2064,2033,2026
2058,2054,2040,2015,2004,2064,2045,2029
2057,2034,2018,2005,1990,2048,2035,2027
2044,2011,1999,1996,1987,2027,2047,2025
2034,2018,2013,2029,2022,2024,2057,2038
2049,2035,2057,2064,2073,2044,2072,2038
2061,2058,2079,2083,2096,2062,2083,2046
2062,2060,2056,2084,2100,2078,2087,2048
2057,2047,2031,2079,2100,2071,2067,2047
2056,2043,2017,2091,2091,2071,2077,2046
2045,2031,2011,2090,2083,2065,2079,2052
2046,2036,2017,2099,2078,2063,2071,2051
2052,2039,2015,2092,2075,2059,2079,2053
2051,2032,2008,2078,2060,2045,2055,2049
2038,2019,1992,2060,2042,2035,2057,2045
2030,2011,2002,2048,2038,2027,2029,2048
2021,2023,2028,2054,2049,2038,2026,2052
2039,2045,2062,2065,2053,2048,2043,2066
2049,2064,2082,2061,2044,2041,2038,2063
2037,2064,2086,2057,2045,2036,2039,2062
2042,2064,2092,2060,2053,2042,2059,2066
2050,2070,2094,2056,2054,2044,2050,2067
2058,2069,2084,2043,2063,2045,2032,2070
2062,2069,2066,2000,2040,2053,2052,2070
2054,2071,2059,1976,2020,2046,2064,2054
2056,2072,2056,1973,2017,2042,2049,2056
2054,2071,2055,1988,2027,2045,2045,2058
2064,2075,2062,2012,2040,2039,2047,2062
2065,2073,2054,2014,2048,2041,2044,2053
2079,2068,2058,2032,2059,2050,2057,2053
2074,2066,2069,2044,2058,2054,2041,2051
2071,2068,2076,2049,2050,2054,2038,2046
2056,2073,2074,2044,2049,2052,2032,2038
2059,2068,2065,2039,2053,2051,2034,2040
2057,2066,2057,2028,2046,2043,2052,2035
2043,2055,2051,2027,2044,2040,2044,2030
2052,2057,2052,2034,2054,2052,2041,2037
2058,2061,2051,2041,2048,2050,2052,2037
2058,2059,2055,2041,2047,2047,2044,2039
2059,2063,2052,2026,2040,2052,2047,2044
2058,2059,2052,2033,2037,2055,2054,2048
2059,2057,2044,2038,2047,2058,2062,2049
2054,2048,2046,2034,2047,2055,2063,2054
2052,2056,2047,2041,2052,2052,2063,2060
2058,2062,2055,2042,2053,2045,2070,2069
2060,2069,2049,2041,2052,2035,2050,2078
2056,2061,2049,2045,2053,2038,2058,2082
2057,2058,2048,2041,2052,2045,2052,2078
2048,2056,2040,2041,2050,2052,2048,2075
2053,2051,2039,2036,2050,2057,2053,2077
2052,2055,2033,2030,2042,2055,2062,2075
2056,2043,2026,2033,2041,2049,2065,2076
2053,2044,2020,2040,2057,2051,2061,2082
2064,2047,2005,2041,2050,2052,2052,2067
2056,2043,2006,2035,2047,2045,2049,2056
2049,2044,2008,2038,2051,2048,2050,2047
2046,2038,2010,2039,2043,2050,2044,2042
2040,2038,2019,2049,2049,2053,2050,2043
2049,2047,2034,2050,2043,2047,2054,2050
2056,2051,2034,2054,2044,2039,2038,2045
2045,2045,2018,2047,2047,2037,2045,2040
2046,2040,2017,2044,2046,2038,2031,2041
2056,2048,2036,2050,2044,2040,2034,2030
2058,2048,2033,2057,2043,2046,2037,2038
2054,2049,2021,2054,2058,2046,2041,2031
2046,2046,2022,2045,2048,2040,2021,2032
2050,2047,2024,2036,2042,2040,2034,2029
2044,2035,2031,2027,2044,2036,2018,2020
2042,2038,2047,2039,2062,2044,2041,2031
2048,2047,2053,2049,2085,2053,2047,2038
2055,2050,2057,2056,2082,2051,2047,2041
2051,2052,2053,2050,2080,2062,2047,2047
2057,2046,2068,2048,2077,2065,2051,2045
2058,2058,2082,2049,2084,2071,2053,2056
2063,2061,2084,2040,2079,2064,2053,2054
2058,2062,2078,2046,2075,2059,2074,2062
2058,2060,2065,2044,2045,2027,2044,2068
2053,2051,2054,2035,2010,2010,2028,2069
2060,2057,2064,2044,2003,2011,2036,2074
2063,2067,2068,2050,2002,2017,2048,2075
2057,2056,2051,2033,2000,2030,2035,2060
2044,2036,2042,2037,2006,2052,2034,2053
2038,2045,2060,2051,2022,2068,2021,2065
2043,2047,2074,2060,2017,2070,2049,2069
2054,2060,2074,2061,2012,2073,2060,2068
2054,2060,2074,2059,2019,2038,2062,2071
2058,2052,2069,2063,2037,2024,2060,2070
2055,2058,2065,2069,2041,2036,2045,2062
2058,2056,2063,2067,2036,2033,2048,2054
2057,2056,2059,2065,2038,2024,2039,2052
2053,2059,2056,2066,2052,2036,2038,2048
2055,2059,2053,2062,2040,2038,2047,2041
2052,2060,2049,2055,2043,2034,2043,2038
2054,2061,2046,2050,2052,2039,2044,2031
2049,2054,2042,2044,2056,2040,2040,2030
2053,2058,2048,2038,2055,2045,2047,2032
2048,2056,2037,2034,2059,2047,2037,2038
2060,2057,2038,2040,2044,2048,2066,2028
2056,2054,2028,2026,2012,2028,2029,2029
2045,2043,2029,2026,2003,2024,2042,2030
2049,2053,2038,2039,2030,2031,2061,2037
2059,2051,2039,2039,2034,2031,2042,2036
2055,2055,2036,2045,2036,2034,2024,2038
2062,2053,2039,2044,2045,2036,2035,2043
2052,2057,2044,2059,2036,2043,2034,2048
2056,2065,2056,2070,2047,2042,2041,2044
2050,2055,2050,2067,2088,2049,2055,2044
2052,2053,2048,2063,2097,2054,2032,2050
2049,2054,2044,2068,2131,2060,2047,2061
2047,2048,2042,2078,2139,2062,2047,2058
2047,2051,2040,2080,2128,2068,2056,2071
2042,2050,2039,2077,2123,2068,2063,2068
2043,2050,2037,2064,2100,2060,2074,2078
2047,2047,2035,2037,2025,2039,2047,2079
2051,2049,2032,2035,2043,2045,2061,2072
2046,2045,2025,2041,2062,2058,2043,2072
2050,2048,2026,2046,2070,2058,2045,2070
2056,2044,2024,2055,2091,2060,2042,2065
2055,2041,2025,2060,2089,2057,2048,2054
2046,2043,2016,2068,2075,2043,2062,2055
2042,2044,2014,2057,2048,2033,2054,2049
2037,2044,2007,2047,2052,2038,2055,2036
2045,2037,2011,2046,2060,2049,2064,2032
2054,2034,2005,2046,2055,2058,2046,2026
2044,2027,2000,2040,2034,2051,2028,2015
2042,2025,2000,2035,2025,2037,2013,2017
2041,2028,1991,2032,2011,2039,2023,2015
2049,2026,2001,2030,2007,2033,2025,2008
2057,2036,2019,2030,2023,2012,2032,2011
2058,2038,2029,2040,2063,2012,2037,2022
2056,2041,2039,2046,2116,2025,2030,2026
2039,2041,2051,2054,2143,2041,2053,2037
2047,2060,2084,2060,2162,2053,2043,2042
2049,2067,2097,2065,2162,2050,2031,2039
2062,2071,2092,2057,2151,2045,2048,2042
2072,2083,2108,2058,2136,2050,2052,2052
2072,2091,2106,2056,2119,2067,2056,2055
2068,2079,2092,2044,2083,2064,2048,2048
2062,2075,2067,2022,1984,2048,2041,2043
2057,2059,2053,2009,1903,2041,2052,2049
2050,2043,2048,2019,1942,2036,2039,2053
2047,2035,2044,2040,1997,2021,2054,2069
2057,2046,2056,2065,2036,2026,2063,2077
2062,2050,2063,2063,2010,2038,2060,2076
2062,2060,2059,2053,2002,2026,2060,2074
2056,2042,2049,2038,1992,2002,2045,2069
2040,2024,2029,2023,1970,2001,2033,2060
2039,2025,2035,2034,2001,2022,2046,2064
2052,2050,2050,2049,2050,2042,2046,2069
2054,2056,2056,2056,2072,2068,2064,2074
2061,2059,2056,2063,2066,2080,2058,2067
2067,2063,2057,2059,2043,2054,2049,2054
2067,2066,2055,2053,2003,2049,2051,2055
2061,2064,2055,2042,1996,2047,2031,2049
2061,2061,2044,2031,2000,2044,2034,2046
2064,2056,2043,2032,2023,2043,2043,2035
2061,2050,2039,2032,2061,2038,2043,2022
2053,2046,2043,2042,2085,2038,2043,2023
2056,2047,2046,2050,2122,2045,2043,2030
2065,2056,2047,2072,2144,2052,2029,2030
2069,2056,2045,2067,2135,2053,2029,2035
2069,2054,2045,2066,2130,2045,2057,2036
2065,2038,2037,2060,2111,2042,2054,2028
2065,2040,2043,2059,2081,2044,2056,2028
2069,2053,2038,2060,2034,2044,2047,2036
2063,2046,2034,2025,1964,2031,2033,2028
2063,2049,2044,2029,1970,2037,2030,2042
2065,2052,2039,2036,2015,2049,2030,2046
2063,2048,2044,2046,2037,2054,2053,2042
2065,2052,2045,2054,2039,2063,2069,2043
2061,2045,2045,2051,2046,2059,2052,2042
2059,2044,2036,2049,2042,2052,2047,2046
2062,2049,2040,2048,2043,2057,2061,2047
2054,2049,2037,2051,2040,2060,2072,2061
2061,2054,2042,2057,2053,2059,2049,2065
2058,2051,2048,2055,2054,2061,2050,2062
2053,2050,2049,2060,2058,2055,2067,2072
2055,2049,2043,2055,2061,2047,2041,2070
2055,2040,2036,2050,2047,2040,2040,2065
2046,2036,2031,2044,2043,2035,2030,2067
2062,2048,2037,2044,2049,2036,2026,2066
2060,2048,2034,2044,2047,2036,2027,2069
2056,2044,2029,2040,2061,2040,2036,2060
2052,2043,2035,2045,2061,2042,2057,2043
2050,2049,2043,2050,2060,2043,2052,2044
2054,2051,2040,2054,2060,2048,2058,2041
2056,2046,2040,2052,2060,2066,2064,2034
2056,2042,2037,2045,2050,2081,2065,2029
2055,2053,2031,2038,2026,2080,2069,2031
2051,2050,2034,2040,1995,2062,2063,2026
2052,2047,2031,2042,2005,2040,2053,2032
2058,2053,2045,2051,2038,2000,2064,2046
2066,2061,2048,2070,2062,1998,2064,2043
2062,2055,2046,2061,2068,2015,2061,2037
2055,2039,2025,2054,2043,2012,2050,2029
2052,2036,2029,2046,2028,2032,2063,2031
2060,2051,2045,2061,2023,2054,2056,2037
2059,2055,2051,2055,2009,2053,2068,2048
2063,2053,2046,2044,1992,2039,2073,2051
2056,2047,2036,2025,1968,2010,2058,2043
2052,2041,2039,2020,1997,1999,2053,2049
2051,2049,2056,2038,2020,2009,2055,2055
2062,2061,2082,2051,2024,2014,2059,2050
2057,2063,2082,2050,2027,2027,2056,2045
2054,2059,2078,2048,2039,2038,2040,2045
2051,2053,2069,2051,2059,2054,2042,2049
2054,2050,2061,2053,2076,2062,2054,2060
2054,2045,2055,2054,2080,2068,2060,2072
2061,2048,2058,2062,2085,2079,2079,2079
2063,2048,2056,2062,2115,2072,2076,2074
2061,2043,2051,2047,2091,2071,2058,2067
2058,2037,2045,2049,2074,2067,2043,2074
2061,2052,2048,2053,2067,2082,2060,2068
2058,2051,2046,2052,2046,2076,2063,2061
2053,2047,2051,2041,2026,2050,2049,2057
2056,2046,2053,2022,1993,2012,2043,2051
2047,2045,2041,2001,1924,1979,2024,2041
2054,2051,2041,2010,1965,2015,2022,2026
2057,2045,2044,2028,2004,2054,2039,2013
2048,2040,2040,2040,2038,2078,2039,2017
2050,2037,2048,2062,2095,2098,2052,2022
2059,2049,2049,2065,2092,2086,2052,2031
2057,2045,2051,2061,2073,2042,2066,2024
2055,2045,2053,2057,2063,2041,2058,2027
2048,2050,2054,2055,2058,2047,2054,2024
2045,2042,2050,2052,2055,2052,2049,2020
2041,2038,2052,2043,2043,2050,2045,2020
2042,2037,2052,2045,2043,2047,2032,2020
2046,2046,2048,2054,2073,2064,2049,2024
2045,2046,2048,2051,2078,2075,2034,2027
2039,2041,2045,2048,2041,2073,2033,2039
2041,2038,2042,2037,2001,2071,2036,2041
2042,2036,2038,2036,1994,2071,2026,2043
2047,2055,2052,2038,2014,2081,2025,2045
2049,2056,2058,2048,2041,2049,2052,2059
2058,2062,2057,2070,2089,2039,2046,2062
2060,2055,2063,2080,2147,2062,2035,2062
2064,2057,2061,2084,2202,2060,2027,2067
2059,2053,2057,2074,2222,2057,2023,2068
2047,2044,2046,2072,2228,2062,2023,2078
2040,2043,2046,2074,2225,2066,2030,2084
2047,2044,2052,2075,2209,2078,2049,2094
2045,2048,2049,2068,2174,2094,2059,2082
2040,2039,2041,2046,2113,2103,2077,2078
2045,2046,2049,2038,2038,2099,2093,2069
2042,2047,2054,2023,1935,2060,2080,2070
2040,2046,2042,2013,1860,2030,2070,2070
2044,2050,2045,2021,1858,2039,2066,2071
2052,2052,2050,2041,1966,2070,2079,2058
2051,2057,2053,2062,2047,2080,2074,2050
2054,2056,2053,2071,2091,2083,2082,2052
2054,2055,2054,2061,2113,2078,2082,2050
2050,2054,2050,2066,2129,2086,2069,2037
2054,2049,2043,2071,2139,2083,2059,2030
2045,2052,2041,2041,2066,2033,2041,2022
2042,2044,2033,1997,1904,1986,2046,2018
2040,2042,2030,1982,1874,1974,2037,2027
2046,2036,2029,1993,1945,1979,2052,2024
2042,2036,2031,2007,1979,1978,2033,2022
2041,2037,2028,2016,2004,1980,2039,2015
2040,2032,2031,2018,1995,2001,2046,2021
2044,2040,2038,2016,1964,2007,2058,2024
2035,2042,2043,2012,1938,1993,2045,2023
2045,2048,2043,2009,1930,1982,2046,2031
2051,2041,2041,2001,1932,1978,2025,2038
2054,2043,2045,2008,1997,1995,2061,2050
2058,2054,2062,2051,2084,2033,2070,2058
2063,2062,2066,2066,2124,2053,2080,2063
2059,2054,2062,2066,2122,2078,2069,2057
2054,2050,2052,2060,2128,2083,2076,2048
2052,2050,2048,2063,2104,2077,2066,2056
2049,2047,2046,2056,2089,2067,2048,2052
2043,2043,2042,2052,2073,2060,2033,2054
2055,2052,2043,2044,2060,2066,2042,2065
2053,2057,2044,2040,2055,2047,2039,2060
2043,2045,2040,2041,2049,2024,2031,2062
2044,2047,2044,2047,2050,2031,2043,2067
2054,2056,2051,2048,2056,2041,2045,2050
2047,2052,2045,2050,2051,2053,2064,2049
2049,2050,2047,2045,2064,2049,2051,2055
2050,2048,2049,2046,2073,2046,2052,2046
2048,2045,2050,2050,2073,2035,2046,2036
2042,2048,2043,2052,2062,2036,2049,2032
2039,2041,2045,2046,2054,2030,2049,2026
2038,2034,2039,2041,2047,2025,2038,2033
2035,2035,2036,2040,2047,2026,2051,2027
2040,2042,2040,2042,2060,2039,2054,2039
2048,2050,2052,2048,2065,2043,2050,2044
2057,2050,2052,2053,2054,2046,2051,2045
2055,2054,2053,2057,2051,2042,2048,2050
2056,2049,2054,2041,2037,2037,2025,2041
2046,2043,2043,2045,2030,2039,2025,2036
2057,2045,2047,2050,2042,2044,2039,2046
2061,2057,2059,2052,2045,2045,2030,2039
2060,2063,2062,2053,2037,2035,2028,2044
2063,2062,2062,2053,2041,2033,2011,2042
2059,2060,2060,2047,2036,2032,2026,2045
2050,2056,2061,2050,2032,2024,2036,2045
2050,2063,2060,2043,2034,2022,2045,2049
2046,2060,2050,2039,2037,2019,2039,2053
2047,2062,2046,2045,2027,2023,2048,2053
2047,2059,2051,2037,2016,2024,2060,2061
2056,2062,2053,2041,2013,2022,2068,2062
2052,2059,2051,2035,2008,2023,2040,2064
2049,2060,2052,2040,2025,2034,2052,2080
2051,2058,2058,2056,2049,2041,2060,2084
2055,2055,2058,2060,2081,2060,2073,2082
2056,2056,2058,2056,2128,2091,2079,2081
2055,2052,2054,2062,2131,2101,2070,2075
2054,2057,2060,2054,2097,2092,2075,2063
2048,2051,2046,2043,2063,2077,2061,2055
2049,2048,2046,2047,2031,2071,2049,2049
2047,2043,2048,2051,2055,2074,2059,2046
2050,2046,2053,2058,2088,2070,2050,2040
2051,2054,2050,2054,2079,2068,2042,2036
2052,2045,2049,2056,2070,2067,2047,2025
2039,2046,2045,2050,2055,2054,2046,2026
2043,2037,2044,2047,2046,2045,2040,2029
2044,2038,2041,2047,2067,2043,2044,2021
2041,2040,2045,2045,2069,2038,2034,2019
2045,2047,2047,2025,2021,2029,2039,2026
2053,2047,2051,2025,2033,2031,2046,2024
2056,2049,2051,2033,2026,2035,2031,2022
2048,2048,2051,2036,2024,2033,2050,2018
2036,2039,2039,2035,2018,2037,2035,2014
2042,2044,2044,2037,2027,2047,2052,2032
2059,2055,2051,2038,2033,2047,2049,2040
2053,2052,2049,2048,2056,2051,2061,2050
2060,2055,2048,2054,2067,2056,2058,2047
2064,2054,2045,2053,2077,2063,2030,2046
2052,2047,2049,2059,2080,2069,2060,2050
2049,2046,2050,2058,2107,2076,2071,2052
2051,2040,2049,2055,2133,2074,2080,2055
2050,2049,2050,2060,2181,2068,2087,2067
2049,2048,2050,2060,2196,2067,2069,2068
2045,2042,2049,2061,2185,2072,2080,2073
2046,2041,2051,2064,2177,2081,2076,2075
2056,2045,2051,2065,2168,2092,2083,2080
2056,2038,2046,2059,2146,2085,2068,2079
2052,2041,2047,2052,2116,2080,2041,2072
2045,2028,2039,2039,2018,2065,2054,2071
2040,2029,2037,2032,1989,2069,2051,2067
2046,2039,2052,2057,2068,2106,2074,2066
2044,2043,2052,2071,2126,2128,2064,2065
2050,2049,2057,2075,2135,2114,2071,2062
2050,2054,2062,2071,2091,2094,2062,2053
2060,2059,2065,2064,2041,2091,2074,2048
2051,2047,2055,2049,1957,2083,2067,2027
2042,2046,2048,2020,1794,2061,2060,2028
2043,2047,2052,2009,1751,2039,2054,2036
2045,2051,2054,2027,1842,2019,2039,2028
2041,2043,2052,2031,1889,2002,2024,2020
2047,2051,2057,2044,1951,1985,2021,2029
2052,2053,2062,2046,1998,2000,2025,2024
2051,2041,2046,2035,2094,2029,2025,2022
2047,2032,2042,2030,2148,2031,2027,2013
2041,2017,2036,2041,2214,2044,2033,2011
2033,2015,2029,2041,2237,2034,2017,2016
2039,2030,2036,2036,2111,2011,2002,2020
2043,2034,2046,2034,1964,2014,2041,2027
2048,2040,2047,2037,1985,2039,2056,2023
2051,2042,2060,2037,2012,2051,2067,2032
2063,2049,2064,2050,2012,2061,2074,2037
2066,2050,2070,2052,2002,2069,2070,2056
2074,2056,2069,2042,1979,2054,2086,2065
2084,2060,2073,2050,2008,2036,2091,2071
2083,2056,2066,2041,2019,2004,2051,2068
2072,2055,2057,2000,1923,1968,2046,2075
2073,2055,2053,1977,1841,1958,2037,2106
2075,2057,2058,1991,1929,1963,2038,2120
2068,2060,2056,2017,2005,1966,2026,2121
2064,2058,2059,2039,2074,1992,2020,2104
2056,2049,2052,2053,2132,2017,2022,2099
2056,2044,2062,2061,2129,2019,2016,2096
2056,2056,2060,2048,2127,2050,2022,2092
2063,2051,2065,2050,2124,2092,2031,2079
2056,2052,2067,2059,2102,2138,2057,2071
2054,2054,2060,2057,2092,2136,2047,2051
2049,2055,2060,2048,2056,2094,2024,2021
2041,2042,2047,2040,2035,2051,2020,2015
2035,2037,2046,2044,2049,2051,2013,2008
2033,2042,2055,2052,2060,2045,2011,1997
2032,2046,2054,2052,2040,2038,2030,2002
2036,2049,2058,2042,2019,2041,2036,2002
2033,2046,2052,2031,1975,2045,2072,2007
2035,2035,2049,2019,1985,2029,2072,2006
2026,2027,2038,2019,2026,2031,2081,2021
2032,2034,2049,2033,2080,2061,2060,2025
2040,2039,2050,2038,2098,2090,2064,2033
2035,2029,2031,2027,2075,2096,2064,2030
2033,2022,2027,2008,2031,2092,2036,2031
2048,2038,2047,2021,2038,2082,2057,2033
2049,2040,2055,2026,2041,2065,2049,2034
2036,2044,2049,2030,2080,2045,2048,2036
2032,2038,2051,2039,2136,2029,2023,2050
2042,2048,2057,2057,2168,2041,2062,2044
2048,2055,2060,2058,2176,2047,2050,2033
2036,2057,2056,2052,2199,2077,2067,2026
2037,2056,2058,2059,2261,2120,2053,2033
2031,2055,2049,2070,2279,2146,2068,2036
2027,2047,2045,2053,2228,2118,2045,2032
2027,2045,2044,2027,2074,2095,2008,2043
2026,2053,2045,2000,1953,2078,2015,2044
2030,2047,2048,2009,2044,2094,2039,2051
2038,2050,2051,2043,2147,2108,2024,2062
2031,2041,2049,2053,2100,2076,2022,2047
2018,2029,2037,2048,2051,2042,2037,2043
2012,2031,2041,2055,2046,2057,1999,2042
2020,2036,2050,2055,2028,2086,2012,2041
2031,2039,2051,2051,2026,2110,2031,2044
2034,2045,2059,2051,2017,2113,2049,2044
2048,2062,2064,2036,2003,2045,2033,2052
2055,2065,2061,2032,1992,1995,2024,2048
2055,2067,2064,2030,1998,2010,2030,2041
2057,2058,2059,2039,2027,2047,2015,2022
2056,2059,2055,2040,2037,2061,2024,2022
2050,2056,2060,2043,2047,2060,2010,2020
2054,2068,2067,2045,2053,2041,2034,2016
2050,2064,2065,2042,2051,2008,2020,2005
2050,2052,2060,2038,2054,2011,2018,2001
2050,2056,2066,2044,2104,2020,2023,2013
2053,2055,2057,2037,2107,2025,2016,2011
2041,2043,2051,2031,2049,2032,2011,2000
2042,2055,2054,2034,2025,2040,2007,2003
2039,2065,2057,2037,2022,2019,2005,2000
2032,2051,2045,2035,2020,1996,2014,2003
2033,2051,2048,2030,2027,2007,2021,2012
2029,2049,2044,2031,2019,2019,2026,2019
2044,2047,2043,2029,2031,2029,2029,2030
2044,2049,2045,2037,2050,2035,2039,2028
2034,2049,2042,2041,2051,2049,2048,2023
2029,2048,2054,2042,2060,2057,2041,2024
2025,2050,2050,2046,2056,2065,2042,2032
2027,2047,2053,2042,2060,2060,2032,2044
2024,2046,2046,2039,2059,2045,2034,2045
2028,2048,2045,2038,2057,2050,2032,2059
2027,2048,2048,2041,2048,2050,2044,2060
2029,2051,2045,2043,2047,2052,2052,2069
2043,2050,2044,2035,2050,2047,2034,2068
2041,2039,2040,2028,2044,2043,2051,2064
2030,2033,2038,2031,2048,2041,2028,2060
2036,2045,2038,2035,2052,2042,2035,2056
2045,2050,2045,2038,2055,2041,2031,2050
2044,2050,2050,2041,2060,2038,2035,2047
2050,2042,2042,2043,2052,2041,2040,2050
2041,2035,2041,2040,2044,2040,2025,2041
2043,2038,2041,2037,2020,2052,2034,2033
2041,2047,2046,2031,2010,2064,2033,2032
2042,2053,2048,2026,2001,2051,2027,2021
2036,2042,2044,2020,1990,2035,2006,2013
2024,2036,2036,2028,1984,2018,2014,2010
2019,2037,2041,2034,2003,1996,2009,2009
2030,2057,2051,2047,2031,1993,2006,2017
2039,2056,2050,2047,2061,1990,2016,2032
2039,2052,2055,2053,2068,2011,2032,2026
2034,2045,2044,2041,2056,2008,2028,2026
2027,2038,2044,2035,2036,2019,2046,2029
2034,2053,2057,2043,2039,2034,2042,2036
2038,2053,2054,2041,2029,2044,2053,2036
2039,2054,2056,2041,2013,2070,2067,2039
2046,2054,2057,2046,2006,2082,2065,2035
2053,2061,2067,2051,2036,2091,2057,2034
2050,2060,2064,2055,2061,2080,2056,2021
2038,2055,2059,2054,2056,2050,2043,2024
2036,2055,2055,2053,2039,2033,2049,2027
2036,2041,2044,2056,2022,2039,2040,2035
2032,2039,2046,2050,2017,2039,2029,2041
2030,2036,2044,2039,2035,2035,2031,2045
2028,2037,2042,2035,2058,2025,1994,2044
2026,2036,2047,2039,2106,2043,2006,2052
2038,2047,2054,2037,2034,2046,2020,2072
2046,2050,2058,2037,2039,2053,2048,2065
2038,2041,2055,2046,2041,2056,2022,2052
2027,2032,2038,2028,2021,2038,2028,2044
2029,2037,2040,2019,2032,2031,2010,2040
2025,2028,2029,2025,2061,2039,2002,2047
2030,2028,2037,2040,2101,2054,2028,2048
2038,2038,2039,2045,2084,2039,2029,2046
2042,2042,2039,2035,2050,2034,2023,2040
2046,2046,2034,2038,2038,2050,2044,2032
2045,2049,2032,2043,2052,2073,2033,2032
2045,2045,2025,2051,2085,2089,2038,2025
2045,2045,2028,2051,2115,2091,2042,2011
2036,2039,2017,2048,2119,2082,2037,2010
2031,2036,2017,2048,2092,2073,2048,2018
2037,2041,2010,2024,1994,2032,2025,2012
2035,2032,2007,2010,1962,1993,2011,2009
2041,2037,2014,2024,2007,2008,2018,2010
2030,2041,2022,2037,2031,2045,2042,2004
2023,2030,2019,2040,2044,2063,2048,2000
2023,2033,2028,2042,2067,2075,2059,2013
2027,2026,2027,2039,2067,2080,2047,2013
2020,2034,2027,2043,2067,2086,2052,2021
2032,2035,2026,2045,2069,2091,2060,2017
2030,2029,2034,2051,2053,2088,2054,2021
2033,2030,2030,2052,2057,2066,2058,2025
2034,2032,2039,2045,2043,2047,2043,2032
2032,2031,2036,2032,2007,2035,2025,2035
2032,2032,2032,2018,2022,2044,2020,2043
2032,2031,2041,2030,2066,2057,2035,2040
2033,2034,2035,2031,2037,2036,2031,2036
2027,2026,2029,2023,1999,2020,2034,2036
2016,2019,2028,2025,2014,2029,2008,2039
2014,2025,2023,2034,2033,2040,2033,2044
2018,2029,2021,2039,2044,2036,2055,2049
2022,2023,2022,2036,2039,2032,2050,2052
2020,2023,2013,2028,2017,2026,2040,2055
2020,2033,2020,2022,2016,2026,2051,2047
2026,2039,2028,2027,2020,2035,2060,2039
2028,2049,2040,2034,2024,2034,2057,2041
2042,2060,2051,2034,2028,2044,2064,2043
2047,2063,2067,2038,2060,2056,2070,2038
2052,2074,2086,2054,2113,2063,2078,2034
2050,2089,2112,2059,2130,2053,2075,2035
2055,2093,2118,2058,2132,2040,2066,2031
2054,2088,2120,2054,2120,2028,2060,2033
2048,2084,2105,2051,2114,2033,2040,2027
2042,2072,2094,2039,2073,2030,2017,2009
2032,2061,2080,2024,1986,2005,2011,1996
2025,2053,2070,2024,1975,2009,2036,1985
2016,2039,2064,2018,1929,2008,2022,1983
2007,2034,2060,2022,1917,2014,2032,1986
2017,2043,2069,2040,1965,2040,2025,2006
2032,2058,2084,2047,1974,2049,2040,2015
2041,2068,2081,2037,1967,2050,2066,2023
2045,2065,2076,2038,1980,2067,2074,2028
2047,2054,2075,2040,1976,2075,2064,2030
2044,2054,2072,2052,2037,2092,2084,2030
2043,2058,2070,2056,2074,2108,2063,2043
2035,2056,2069,2053,2057,2096,2067,2038
2034,2054,2068,2054,2057,2092,2064,2042
2035,2049,2063,2064,2089,2058,2054,2048
2032,2048,2061,2063,2116,2014,2042,2040
2026,2042,2053,2061,2131,2041,2026,2038
2027,2048,2060,2078,2150,2065,2052,2049
2038,2055,2065,2058,2049,2038,2051,2062
2036,2048,2055,2013,1944,2024,2041,2058
2037,2048,2051,2012,1988,2038,2030,2049
2025,2035,2040,2018,2030,2039,2020,2056
2030,2047,2063,2041,2088,2037,2038,2068
2042,2049,2056,2046,2100,2045,2052,2053
2036,2038,2054,2043,2089,2053,2057,2045
2033,2034,2048,2035,2067,2040,2055,2044
2030,2035,2044,2027,2042,2026,2032,2033
2030,2036,2041,2025,2027,2022,2019,2032
2028,2040,2043,2034,2051,2043,2028,2018
2029,2043,2049,2043,2073,2060,2045,2022
2034,2042,2047,2043,2068,2071,2029,2021
2034,2043,2046,2035,2042,2110,2025,2013
2029,2038,2045,2035,2045,2124,2044,1999
2032,2036,2044,2032,2046,2136,2029,2001
2025,2040,2039,2021,2029,2145,2026,1988
2014,2035,2033,2020,2014,2119,2011,1994
2020,2043,2038,2031,2032,2046,2022,2000
2022,2029,2037,2032,2028,1975,2039,2012
2026,2034,2044,2033,2028,1999,2057,2022
2037,2037,2047,2041,2045,2067,2070,2026
2033,2035,2043,2039,2064,2079,2051,2022
2031,2033,2044,2040,2057,2081,2047,2014
2025,2036,2040,2042,2056,2075,2049,2017
2031,2040,2044,2039,2074,2085,2042,2021
2033,2042,2038,2046,2095,2115,2067,2027
2028,2035,2040,2043,2119,2129,2061,2027
2030,2044,2039,2036,2118,2103,2057,2026
2024,2034,2035,2019,2053,2042,2028,2021
2015,2028,2032,2022,2012,2008,2043,2035
2024,2036,2037,2038,2004,2010,2043,2053
2031,2039,2048,2046,2002,2025,2050,2059
2035,2040,2050,2043,2002,2027,2050,2060
2038,2043,2046,2033,1992,2039,2051,2068
2038,2043,2046,2024,1966,2051,2059,2068
2038,2052,2050,2013,1944,2045,2054,2064
2039,2055,2050,2003,1952,2030,2051,2057
2037,2051,2046,2000,1989,2027,2028,2048
2027,2047,2039,1977,1997,2020,2023,2027
2029,2042,2039,1984,1998,2029,2039,2033
2038,2050,2044,2022,2056,2076,2058,2034
2037,2055,2056,2057,2168,2094,2069,2027
2033,2052,2052,2073,2181,2078,2052,2014
2021,2041,2043,2067,2125,2058,2061,2011
2019,2042,2046,2061,2085,2074,2068,2023
2032,2053,2054,2066,2117,2112,2085,2027
2030,2055,2057,2080,2141,2131,2073,2034
2037,2053,2056,2067,2110,2117,2075,2029
2036,2056,2057,2047,2077,2094,2076,2021
2031,2048,2054,2045,2093,2092,2053,2011
2025,2043,2045,2021,1977,2069,2034,2004
2021,2031,2031,1988,1917,2036,2034,2002
2021,2027,2019,1983,1947,1995,2027,1997
2014,2027,2017,1970,1910,1961,2024,2000
2009,2026,2028,1987,1951,1982,2023,2017
2026,2042,2041,2027,2073,2002,2072,2025
2033,2049,2043,2033,2072,2020,2068,2023
2040,2049,2045,2019,1992,2046,2054,2037
2038,2049,2049,2038,2072,2092,2070,2044
2050,2048,2056,2051,2113,2117,2066,2047
2042,2056,2051,2054,2141,2124,2088,2052
2050,2048,2047,2058,2161,2137,2089,2046
2047,2051,2049,2052,2128,2128,2073,2039
2044,2044,2049,2053,2104,2082,2065,2033
2029,2039,2043,2059,2110,2065,2055,2044
2028,2046,2055,2071,2109,2034,2063,2042
2028,2040,2050,2053,2077,2033,2049,2053
2017,2036,2042,2041,2039,2019,2040,2052
2025,2045,2043,2035,2033,2020,2045,2038
2020,2037,2033,2019,1981,2042,2040,2020
2012,2027,2026,2009,1943,2061,2030,2007
2010,2028,2028,2021,2022,2068,2022,2004
2014,2026,2032,2022,2011,2079,2024,2001
2017,2031,2035,2019,1976,2063,2025,2012
2028,2034,2040,2030,1981,2021,2004,2012
2024,2035,2052,2045,2025,2021,2008,2017
2034,2044,2048,2057,2070,2060,2026,2018
2033,2047,2050,2059,2088,2085,2046,2012
2032,2043,2040,2049,2077,2061,2041,2005
2032,2039,2036,2041,2054,2035,2037,2006
2034,2037,2036,2041,2043,2040,2053,2006
2032,2037,2039,2045,2039,2051,2053,2013
2028,2026,2032,2039,2040,2053,2051,2016
2027,2025,2026,2035,2040,2057,2040,2017
2032,2029,2035,2043,2047,2056,2034,2019
2031,2031,2035,2044,2045,2044,2039,2022
2030,2038,2038,2048,2047,2041,2032,2015
2029,2036,2037,2052,2054,2057,2044,2025
2027,2041,2046,2053,2059,2066,2053,2024
2027,2037,2038,2048,2055,2048,2045,2028
2023,2037,2041,2043,2056,2028,2031,2039
2031,2037,2038,2047,2060,2023,2035,2043
2037,2035,2037,2046,2063,2038,2051,2051
2043,2042,2045,2043,2065,2031,2047,2051
2030,2035,2039,2041,2062,2032,2035,2053
2032,2032,2037,2047,2057,2028,2016,2041
2025,2033,2039,2044,2042,2018,2022,2046
2033,2040,2034,2042,2032,2008,2019,2054
2024,2026,2029,2035,2038,2013,1996,2041
2024,2021,2023,2033,2104,2052,2024,2058
2037,2041,2045,2048,2153,2081,2031,2056
2041,2048,2051,2054,2160,2087,2036,2054
2042,2047,2049,2053,2137,2074,2028,2053
2044,2050,2049,2050,2109,2069,2021,2049
2041,2061,2051,2046,2069,2052,2039,2041
2042,2063,2053,2046,2014,2032,2037,2038
2036,2053,2046,2033,1874,2021,2037,2029
2030,2041,2032,2020,1873,2020,2019,2013
2022,2037,2036,2028,1924,2030,2041,2003
2018,2027,2023,2025,1935,2027,2020,2002
2022,2024,2024,2026,1992,2040,2017,2005
2023,2026,2023,2028,2039,2060,2026,1999
2029,2024,2021,2029,2050,2067,2017,1998
2033,2024,2025,2037,2054,2072,2038,2002
2029,2021,2025,2034,2059,2052,2040,1998
2025,2020,2022,2038,2061,2045,2037,2002
2028,2027,2032,2038,2055,2036,2051,2012
2029,2032,2034,2033,2040,2032,2049,2011
2024,2029,2036,2037,2027,2034,2044,2018
2019,2035,2038,2036,2025,2028,2033,2008
2017,2037,2037,2034,2017,2024,2039,2011
2026,2032,2034,2036,2016,2025,2043,2020
2031,2035,2032,2035,2020,2035,2056,2032
2036,2032,2032,2039,2032,2029,2075,2038
2036,2036,2034,2043,2050,2020,2061,2048
2036,2034,2034,2042,2068,2020,2064,2049
2034,2033,2035,2045,2077,2024,2074,2061
2033,2030,2028,2046,2081,2015,2056,2065
2028,2029,2032,2040,2075,2010,2041,2070
2033,2034,2033,2051,2070,2024,2052,2066
2037,2038,2040,2048,2046,2026,2019,2054
2031,2036,2046,2045,2032,2040,2038,2056
2042,2045,2061,2032,1994,2052,2020,2053
2050,2049,2053,2033,2004,2076,2033,2062
2043,2048,2057,2042,2014,2087,2049,2044
2030,2045,2054,2038,2028,2076,2030,2032
2027,2041,2049,2031,2039,2086,2030,2030
2026,2041,2043,2032,2045,2088,2049,2023
2028,2045,2046,2035,2036,2075,2048,2017
2024,2040,2043,2032,2028,2064,2034,2019
2012,2032,2044,2043,2040,2074,2053,2018
2022,2038,2047,2045,2056,2082,2059,2033
2038,2046,2045,2040,2045,2073,2041,2037
2034,2044,2040,2035,2028,2055,2023,2029
2035,2042,2035,2034,2026,2040,2042,2026
2038,2043,2042,2038,2038,2050,2035,2025
2040,2040,2048,2038,2043,2058,2038,2014
2032,2037,2045,2038,2055,2058,2040,2023
2044,2038,2048,2042,2068,2058,2048,2020
2031,2037,2041,2049,2073,2049,2045,2015
2030,2038,2043,2049,2079,2042,2046,2030
2035,2038,2045,2040,2076,2052,2043,2034
2038,2042,2051,2048,2075,2069,2055,2034
2038,2045,2056,2049,2055,2095,2074,2036
2037,2046,2055,2050,2039,2110,2066,2039
2041,2047,2064,2049,2032,2108,2047,2046
2042,2050,2054,2038,2019,2089,2043,2050
2038,2040,2049,2032,2024,2060,2061,2048
2030,2037,2058,2041,2040,2034,2063,2063
2030,2043,2050,2051,2031,2032,2052,2060
2034,2036,2049,2039,2010,2027,2051,2053
2028,2035,2043,2037,2008,2032,2053,2049
2026,2024,2036,2025,2001,2031,2057,2053
2020,2021,2038,2030,1991,2056,2056,2060
2026,2039,2042,2036,2048,2088,2067,2058
2031,2040,2047,2044,2064,2097,2067,2058
2036,2041,2051,2047,2087,2071,2056,2051
2036,2043,2052,2054,2093,2044,2057,2039
2033,2044,2049,2042,2082,2029,2042,2036
2036,2054,2053,2041,2052,2030,2054,2040
2040,2055,2058,2016,1943,1995,2040,2029
2032,2048,2050,2005,1933,1983,2027,2024
2031,2041,2045,2013,1983,2005,2011,2015
2031,2046,2047,2037,2024,2026,2023,2024
2032,2048,2053,2040,2004,2029,2042,2025
2042,2053,2057,2036,1996,2032,2037,2027
2046,2046,2050,2042,2007,2029,2029,2027
2047,2047,2051,2055,2021,2030,2038,2033
2041,2037,2042,2057,2058,2036,2041,2026
2039,2036,2040,2050,2054,2037,2031,2026
2043,2048,2049,2041,2071,2030,2018,2016
2040,2041,2042,2025,2045,2021,2022,2017
2044,2046,2051,2035,2005,2026,2025,2026
2053,2051,2058,2047,2025,2046,2032,2038
2055,2056,2066,2056,2068,2064,2018,2046
2046,2053,2058,2049,2074,2072,2048,2048
2046,2055,2056,2044,2080,2067,2062,2050
2043,2048,2053,2045,2086,2068,2033,2054
2045,2050,2060,2050,2085,2073,2050,2058
2044,2059,2060,2055,2105,2071,2053,2070
2043,2063,2058,2055,2076,2060,2056,2067
2043,2055,2050,2045,2046,2049,2036,2062
2025,2041,2044,2046,2046,2038,2027,2048
2018,2040,2039,2042,2029,2035,2031,2046
2021,2026,2032,2035,2016,2040,2035,2052
2027,2025,2035,2042,2047,2047,2037,2062
2026,2036,2040,2042,2043,2048,2025,2058
2033,2042,2042,2043,2043,2034,2028,2055
2035,2044,2045,2047,2046,2031,2036,2052
2032,2043,2052,2049,2052,2039,2023,2054
2030,2045,2048,2055,2056,2022,2028,2051
2033,2042,2045,2049,2052,2014,2027,2042
2035,2041,2040,2056,2054,2016,2050,2045
2033,2041,2044,2046,2048,2014,2060,2038
2030,2041,2046,2048,2045,2022,2037,2029
2027,2039,2047,2047,2052,2021,2042,2027
2029,2038,2051,2050,2077,2029,2028,2032
2034,2042,2049,2058,2089,2039,2026,2027
2033,2043,2048,2057,2092,2062,2035,2029
2033,2039,2043,2060,2084,2084,2026,2025
2024,2029,2040,2047,2083,2092,2023,2025
2026,2033,2045,2044,2088,2127,2046,2029
2034,2041,2051,2050,2094,2165,2051,2035
2032,2043,2052,2043,2061,2153,2045,2035
2029,2049,2049,2019,1958,2050,2035,2030
2028,2045,2050,2018,1938,1969,2029,2033
2032,2048,2044,2029,1965,1990,2035,2044
2038,2044,2045,2038,1991,2031,2048,2054
2039,2048,2048,2047,2026,2053,2066,2063
2042,2045,2054,2054,2040,2059,2063,2066
2036,2051,2047,2060,2053,2052,2059,2064
2033,2044,2049,2061,2068,2061,2055,2067
2031,2047,2048,2065,2088,2066,2033,2054
2028,2037,2046,2060,2094,2077,2023,2058
2026,2038,2037,2059,2106,2090,2057,2070
2034,2041,2041,2056,2099,2077,2050,2077
2035,2034,2031,2031,2026,2072,2056,2071
2036,2036,2037,2025,1974,2070,2061,2072
2037,2046,2040,2018,1990,2069,2048,2062
2035,2037,2039,2017,1983,2077,2027,2046
2033,2043,2043,2020,1978,2079,2015,2047
2042,2048,2047,2035,1994,2082,2045,2045
2033,2045,2041,2033,1995,2053,2030,2036
2032,2051,2038,2034,2006,2002,2013,2039
2036,2057,2050,2042,2064,1984,2021,2039
2041,2053,2051,2052,2086,1995,2024,2035
2044,2053,2048,2048,2056,2022,2028,2037
2043,2055,2044,2029,2004,2024,2037,2034
2032,2047,2035,2016,1967,2050,2027,2027
2032,2042,2031,2006,1964,2055,2039,2034
2028,2040,2028,2004,1975,2053,2068,2036
2026,2043,2029,2017,2061,2082,2072,2037
2030,2046,2037,2062,2180,2086,2086,2042
2037,2052,2048,2088,2234,2056,2082,2051
2048,2064,2063,2096,2234,2083,2079,2054
2047,2067,2063,2080,2162,2096,2092,2055
2046,2068,2058,2061,1988,2080,2073,2052
2036,2057,2053,2052,1944,2080,2064,2045
2028,2050,2047,2046,1970,2052,2047,2032
2025,2049,2044,2041,1983,2029,2023,2024
2029,2049,2046,2042,2017,2036,2034,2025
2031,2056,2049,2059,2041,2051,2018,2030
2031,2061,2058,2066,2043,2032,2040,2045
2030,2056,2053,2061,2057,2004,2042,2057
2035,2053,2046,2053,2074,2020,2033,2068
2029,2044,2046,2039,2096,2033,2032,2076
2038,2047,2048,2047,2113,2043,2045,2072
2034,2049,2042,2057,2122,2046,2023,2058
2028,2041,2038,2050,2108,2048,2025,2053
2025,2038,2035,2048,2099,2051,2030,2062
2031,2049,2041,2044,2002,2044,2040,2063
2034,2045,2027,2029,1925,2030,2037,2056
2028,2036,2027,2047,1999,2048,2034,2062
2029,2033,2023,2054,2025,2051,2025,2048
2023,2031,2027,2060,2036,2054,2020,2047
2034,2052,2048,2073,2041,2064,2023,2043
2040,2068,2054,2074,2069,2065,2037,2045
2044,2065,2054,2046,2021,2060,2031,2040
2044,2061,2045,2034,2047,2077,2037,2041
2040,2060,2043,2031,2060,2095,2037,2041
2041,2054,2045,2035,2061,2082,2033,2033
2039,2051,2043,2039,2046,2089,2056,2035
2035,2049,2036,2046,2042,2085,2042,2029
2035,2040,2033,2036,2006,2056,2027,2021
2026,2032,2025,2011,1943,2020,2038,2016
2031,2043,2040,2032,1949,2022,2036,2036
2041,2056,2050,2038,1949,2018,2050,2044
2034,2059,2046,2038,1967,2021,2058,2045
2037,2057,2044,2043,2006,2031,2038,2045
2038,2061,2042,2040,2026,2028,2035,2045
2040,2061,2048,2052,2073,2055,2046,2047
2043,2061,2041,2061,2092,2070,2048,2046
2041,2051,2040,2061,2074,2060,2044,2043
2035,2043,2037,2053,2073,2044,2046,2045
2030,2037,2036,2052,2075,2008,2033,2052
2037,2036,2031,2056,2082,2006,2053,2055
2037,2041,2034,2056,2069,2025,2051,2056
2037,2042,2039,2050,2067,2058,2017,2059
2042,2043,2037,2052,2058,2074,2029,2066
2046,2043,2040,2048,2054,2074,2019,2063
2034,2039,2032,2044,2055,2080,2021,2052
2029,2034,2038,2050,2052,2071,2024,2057
2038,2049,2040,2051,2058,2060,2030,2058
2039,2049,2043,2050,2062,2075,2042,2059
2041,2051,2046,2049,2063,2067,2050,2060
2048,2064,2047,2044,2060,2047,2035,2057
2057,2064,2046,2045,2054,2037,2033,2055
2059,2062,2046,2047,2021,2008,2053,2049
2049,2056,2046,2057,2038,2004,2063,2045
2046,2054,2050,2072,2090,2021,2065,2043
2054,2063,2052,2088,2153,2050,2070,2047
2056,2061,2052,2094,2163,2053,2070,2050
2047,2060,2043,2082,2116,2060,2049,2039
2047,2062,2046,2059,1974,2050,2060,2046
2052,2066,2051,2029,1901,2039,2057,2045
2050,2067,2041,2020,2005,1999,2038,2021
2042,2045,2023,1995,1958,1969,2024,2020
2040,2042,2022,2031,2004,2021,2044,2030
2046,2050,2035,2056,2071,2040,2049,2040
2048,2048,2040,2062,2080,2036,2055,2036
2050,2046,2045,2052,2056,2021,2039,2031
2038,2043,2043,2052,2048,2024,2056,2032
2032,2042,2038,2047,2046,2030,2037,2032
2023,2041,2038,2041,2022,2049,2045,2038
2025,2041,2040,2039,1994,2051,2048,2043
2035,2040,2036,2031,1991,2053,2056,2043
2030,2045,2038,2031,1987,2051,2063,2048
2030,2044,2037,2039,2004,2020,2055,2061
2034,2044,2039,2052,2055,2022,2080,2075
2041,2054,2046,2067,2095,2055,2076,2081
2040,2060,2049,2070,2112,2075,2067,2085
2041,2056,2045,2061,2097,2060,2065,2081
2031,2043,2037,2055,2081,2046,2054,2072
2032,2045,2042,2051,2067,2045,2056,2069
2037,2051,2049,2050,2062,2043,2055,2062
2037,2058,2049,2053,2057,2043,2067,2056
2040,2060,2052,2059,2058,2034,2062,2054
2043,2061,2053,2063,2053,2043,2071,2046
2045,2062,2050,2057,2059,2042,2070,2050
2044,2056,2045,2053,2059,2043,2072,2042
2040,2054,2041,2054,2058,2051,2066,2040
2044,2045,2046,2065,2059,2050,2068,2031
2040,2048,2049,2063,2053,2049,2064,2033
2039,2050,2050,2064,2054,2053,2065,2029
2040,2052,2045,2061,2057,2051,2059,2029
2039,2049,2042,2063,2047,2033,2068,2029
2029,2039,2040,2060,2043,2020,2057,2026
2035,2036,2033,2054,2040,2019,2050,2030
2039,2035,2030,2056,2054,2026,2056,2035
2041,2047,2035,2058,2055,2054,2064,2060
2051,2048,2033,2056,2054,2078,2058,2053
2048,2044,2027,2055,2061,2097,2061,2049
2042,2046,2021,2058,2069,2125,2081,2045
2042,2042,2022,2051,2071,2122,2086,2052
2049,2043,2021,2060,2070,2095,2078,2053
2046,2041,2012,2052,2062,2076,2065,2057
2046,2044,2016,2047,2051,2067,2062,2056
2049,2040,2019,2054,2061,2058,2069,2065
2049,2049,2036,2052,2058,2037,2057,2069
2044,2044,2030,2052,2052,2022,2067,2070
2040,2043,2035,2044,2045,2031,2060,2081
2037,2041,2039,2046,2048,2048,2040,2070
2028,2042,2043,2044,2050,2066,2037,2072
2033,2037,2040,2042,2041,2054,2056,2062
2028,2030,2034,2029,2033,2041,2026,2065
2036,2036,2041,2038,2031,2040,2044,2077
2043,2041,2038,2034,2031,2038,2056,2079
2049,2045,2037,2034,2035,2045,2064,2082
2051,2052,2046,2042,2040,2049,2062,2085
2057,2056,2058,2045,2033,2043,2054,2083
2049,2063,2062,2051,2032,2035,2054,2071
2055,2068,2064,2051,2036,2034,2036,2063
2061,2066,2064,2052,2040,2030,2060,2058
2059,2062,2056,2058,2046,2028,2044,2050
2058,2059,2058,2062,2062,2039,2056,2049
2055,2067,2066,2070,2067,2047,2031,2044
2051,2055,2063,2072,2067,2043,2023,2034
2040,2047,2055,2064,2050,2061,2030,2036
2040,2051,2058,2062,2045,2062,2028,2035
2045,2057,2075,2065,2030,2039,2033,2031
2054,2062,2071,2072,2030,2032,2030,2034
2050,2062,2074,2081,2042,2039,2043,2040
2044,2056,2076,2079,2041,2050,2049,2044
2041,2053,2068,2077,2037,2067,2064,2050
2048,2051,2073,2076,2030,2072,2063,2053
2049,2042,2066,2068,2018,2049,2043,2053
2047,2045,2066,2069,2013,2033,2038,2043
2036,2044,2062,2069,2028,2008,2032,2056
2039,2046,2077,2081,2038,2006,2033,2061
2047,2048,2075,2078,2022,2019,2063,2073
2047,2056,2068,2075,2001,2020,2081,2072
2046,2057,2065,2065,1984,2014,2054,2073
2040,2048,2059,2046,1964,2017,2047,2065
2033,2046,2053,2052,2012,2035,2061,2073
2044,2060,2067,2065,2082,2057,2071,2080
2044,2065,2059,2074,2124,2064,2059,2079
2039,2057,2057,2074,2142,2054,2043,2073
2048,2069,2061,2074,2148,2051,2041,2081
2051,2075,2068,2066,2130,2049,2066,2076
2060,2078,2072,2071,2108,2072,2068,2084
2064,2081,2072,2073,2118,2081,2060,2075
2056,2078,2063,2065,2094,2076,2072,2066
2046,2064,2048,2038,1919,2062,2052,2057
2039,2052,2044,2041,1906,2043,2041,2048
2038,2045,2045,2038,1931,2040,2046,2043
2034,2041,2042,2033,1947,2036,2046,2045
2041,2056,2054,2037,1929,2024,2032,2043
2043,2061,2051,2029,1926,2019,2017,2039
2041,2055,2049,2049,2015,2051,2031,2046
2048,2047,2053,2059,2042,2061,2018,2043
2047,2045,2047,2057,2048,2065,2046,2043
2047,2042,2036,2061,2105,2076,2047,2029
2032,2021,2020,2047,2120,2077,2049,2017
2026,2029,2022,2038,2142,2064,2050,2030
2038,2041,2034,2034,2101,2037,2037,2032
2044,2048,2041,2038,2030,2030,2045,2043
2050,2060,2049,2054,2011,2053,2046,2048
2050,2061,2052,2066,2040,2079,2050,2059
2052,2066,2061,2082,2070,2100,2051,2059
2057,2062,2059,2080,2069,2098,2066,2063
2050,2064,2053,2062,2047,2088,2064,2061
2047,2051,2043,2057,2033,2089,2055,2066
2038,2051,2044,2048,2022,2065,2061,2063
2039,2046,2040,2047,2044,2048,2051,2064
2037,2048,2044,2053,2103,2037,2052,2069
2043,2053,2043,2064,2122,2025,2045,2066
2029,2049,2047,2066,2103,2014,2035,2058
2021,2034,2048,2059,2055,2001,2031,2064
2020,2034,2052,2047,2023,1978,2031,2077
2031,2049,2059,2041,2020,2000,2042,2080
2048,2060,2062,2033,2014,2009,2035,2076
2044,2068,2063,2036,2026,2008,2043,2069
2047,2062,2065,2047,2039,2009,2029,2065
2044,2065,2061,2049,2045,2011,2039,2056
2043,2062,2058,2055,2047,2019,2027,2048
2043,2057,2051,2047,2041,2015,2037,2046
2042,2052,2049,2058,2064,2021,2041,2033
2039,2048,2047,2067,2140,2054,2041,2036
2042,2050,2056,2084,2148,2074,2054,2034
2053,2058,2063,2074,2105,2056,2066,2042
2056,2064,2062,2069,2119,2065,2064,2039
2058,2060,2061,2070,2150,2085,2075,2040
2059,2055,2057,2072,2104,2084,2057,2033
2046,2049,2046,2043,1953,2063,2036,2024
2031,2034,2034,2040,1959,2067,2056,2030
2034,2038,2043,2048,2004,2093,2064,2044
2052,2056,2056,2056,2015,2094,2050,2046
2054,2057,2052,2050,2005,2058,2042,2043
2051,2060,2052,2040,2020,2045,2024,2039
2053,2056,2047,2047,2042,2061,2043,2046
2049,2050,2048,2052,2071,2064,2043,2042
2037,2046,2049,2061,2102,2065,2029,2045
2042,2048,2043,2056,2089,2052,2043,2048
2042,2050,2047,2060,2084,2057,2056,2056
2038,2048,2055,2066,2104,2059,2068,2064
2040,2041,2054,2067,2111,2061,2068,2075
2041,2044,2054,2068,2098,2056,2058,2082
2045,2049,2052,2064,2089,2054,2048,2070
2040,2047,2053,2060,2085,2053,2052,2080
2043,2046,2044,2057,2057,2057,2029,2062
2033,2029,2039,2045,2022,2056,2004,2054
2028,2031,2036,2042,1987,2041,2029,2053
2033,2039,2040,2035,1972,2033,2038,2052
2042,2043,2046,2032,1947,2011,2042,2064
2053,2060,2056,2035,1947,1993,2050,2069
2057,2065,2053,2052,1985,2016,2054,2064
2054,2060,2051,2059,2017,2031,2050,2053
2052,2053,2057,2057,2031,2052,2058,2057
2048,2059,2066,2068,2052,2066,2061,2045
2050,2053,2068,2075,2082,2069,2067,2041
2041,2058,2063,2078,2106,2071,2057,2042
2044,2053,2063,2073,2126,2086,2061,2044
2044,2053,2058,2080,2136,2084,2067,2053
2052,2054,2058,2073,2119,2080,2068,2046
2047,2049,2051,2071,2097,2080,2061,2038
2047,2048,2045,2062,2069,2080,2058,2032
2034,2039,2045,2046,2042,2070,2063,2034
2029,2032,2039,2030,1998,2072,2087,2041
2039,2042,2046,2028,1968,2070,2083,2043
2043,2042,2047,2036,2000,2065,2083,2043
2049,2049,2054,2042,2012,2032,2058,2047
2053,2047,2054,2042,2003,2019,2039,2044
2046,2054,2056,2047,2011,2041,2038,2044
2049,2057,2056,2047,2003,2043,2035,2039
2052,2057,2059,2053,2002,2034,2047,2034
2046,2051,2061,2056,2002,2022,2034,2052
2046,2052,2060,2052,2014,2025,2046,2058
2036,2056,2060,2060,2055,2028,2053,2069
2046,2053,2058,2065,2104,2035,2053,2071
2040,2057,2062,2073,2147,2044,2058,2070
2040,2053,2054,2075,2177,2048,2040,2079
2044,2053,2057,2076,2166,2046,2023,2087
2048,2057,2052,2064,2108,2023,2024,2083
2045,2048,2044,2056,2073,2017,2016,2075
2040,2055,2050,2047,2024,2006,2023,2071
2042,2050,2050,2021,1916,2012,2035,2067
2036,2051,2057,2025,1895,2025,2036,2068
2049,2054,2053,2046,1967,2043,2048,2067
2057,2064,2064,2059,1994,2053,2050,2063
2057,2063,2064,2054,1989,2050,2050,2059
2057,2067,2061,2053,1981,2060,2050,2053
2059,2068,2052,2051,1991,2060,2063,2050
2055,2059,2057,2042,1995,2051,2054,2043
2049,2052,2046,2026,1973,2032,2031,2041
2036,2049,2049,2041,2035,2054,2068,2039
2036,2055,2058,2064,2060,2067,2089,2045
2044,2059,2057,2062,2014,2070,2075,2044
2047,2052,2053,2058,1996,2080,2064,2039
2048,2050,2048,2053,1994,2073,2067,2032
2037,2039,2043,2049,2031,2066,2024,2030
2029,2037,2045,2053,2074,2083,2062,2027
2035,2047,2048,2064,2109,2057,2034,2034
2027,2045,2052,2057,2134,2028,2040,2046
2035,2049,2050,2057,2134,2029,2034,2048
2044,2049,2049,2062,2163,2042,2064,2053
2048,2053,2050,2058,2158,2029,2075,2055
2050,2053,2045,2047,2086,2010,2048,2060
2046,2047,2038,2043,2019,2021,2040,2059
2044,2047,2042,2034,1894,2010,2053,2065
2043,2051,2049,2038,1933,2034,2034,2068
2039,2061,2057,2055,2028,2060,2067,2084
2047,2056,2056,2063,2054,2072,2073,2078
2043,2048,2049,2052,2047,2061,2060,2089
2044,2044,2050,2050,2029,2039,2054,2088
2042,2049,2051,2049,2028,2016,2055,2090
2037,2040,2044,2047,2026,2018,2049,2086
2035,2041,2047,2046,2027,2031,2064,2090
2046,2050,2059,2048,2029,2038,2066,2086
2044,2054,2050,2046,2022,2036,2068,2089
2042,2049,2051,2043,2015,2030,2056,2084
2040,2052,2053,2047,2019,2029,2059,2075
2043,2047,2051,2047,2017,2035,2069,2062
2042,2053,2054,2052,2029,2050,2073,2057
2039,2046,2052,2057,2074,2056,2079,2041
2045,2052,2056,2054,2080,2067,2073,2038
2041,2049,2050,2059,2070,2075,2051,2037
2040,2047,2039,2054,2060,2083,2039,2035
2036,2044,2036,2050,2055,2062,2055,2039
2038,2041,2033,2048,2052,2046,2067,2035
2037,2040,2029,2048,2046,2044,2064,2045
2037,2032,2027,2045,2045,2042,2045,2044
2035,2021,2026,2040,2037,2036,2042,2033
2029,2026,2024,2043,2037,2036,2061,2045
2039,2034,2035,2048,2033,2042,2064,2049
2041,2040,2040,2046,2043,2042,2067,2047
2040,2038,2036,2051,2044,2044,2067,2046
2046,2045,2043,2054,2045,2050,2081,2054
2053,2046,2052,2049,2046,2065,2085,2062
2049,2044,2052,2049,2055,2078,2080,2055
2044,2047,2056,2056,2052,2081,2091,2049
2036,2054,2055,2057,2052,2071,2081,2048
2037,2053,2064,2056,2050,2070,2078,2059
2047,2058,2066,2063,2049,2057,2077,2067
2043,2054,2064,2053,2040,2047,2062,2066
2037,2049,2058,2055,2040,2054,2055,2068
2035,2045,2066,2053,2042,2057,2058,2071
2028,2043,2069,2053,2032,2049,2050,2061
2034,2038,2064,2054,2024,2046,2049,2064
2027,2038,2064,2055,2027,2044,2057,2066
2036,2050,2068,2053,2031,2039,2061,2055
2037,2049,2062,2057,2039,2043,2069,2063
2041,2048,2064,2054,2053,2049,2060,2064
2047,2051,2067,2056,2061,2060,2069,2064
2045,2056,2062,2060,2060,2065,2059,2063
2052,2057,2068,2064,2053,2060,2068,2064
2052,2061,2069,2061,2050,2046,2063,2058
2050,2066,2068,2054,2033,2036,2066,2052
2042,2060,2071,2052,2023,2025,2058,2059
2042,2054,2060,2051,2021,2017,2046,2061
2045,2050,2062,2043,2022,2022,2045,2058
2046,2048,2062,2051,2029,2032,2055,2061
2046,2054,2059,2056,2031,2052,2053,2055
2048,2051,2053,2058,2051,2056,2052,2047
2040,2037,2046,2053,2046,2051,2051,2042
2032,2040,2045,2052,2055,2055,2041,2039
2039,2049,2044,2054,2042,2050,2052,2045
2038,2044,2047,2056,2046,2051,2062,2043
2043,2052,2052,2066,2064,2053,2069,2046
2038,2059,2053,2059,2047,2050,2056,2053
2038,2058,2053,2055,2046,2059,2058,2061
2038,2050,2054,2056,2054,2052,2062,2050
2031,2039,2049,2049,2044,2045,2062,2048
2028,2040,2042,2047,2053,2031,2046,2055
2029,2039,2045,2045,2075,2038,2053,2063
2030,2033,2040,2054,2104,2062,2069,2056
2034,2036,2043,2062,2109,2076,2064,2067
2029,2038,2046,2061,2104,2083,2079,2069
2032,2044,2048,2065,2097,2081,2072,2077
2036,2050,2056,2063,2076,2056,2061,2073
2031,2046,2052,2064,2057,2052,2054,2069
2034,2048,2049,2064,2073,2073,2053,2065
2032,2049,2047,2058,2041,2080,2032,2056
2040,2052,2052,2059,2019,2084,2057,2058
2039,2052,2055,2055,2013,2079,2054,2060
2043,2046,2048,2042,2000,2047,2049,2065
2052,2047,2043,2042,2024,2043,2060,2060
2053,2047,2048,2050,2039,2056,2075,2056
2054,2042,2042,2045,2048,2078,2075,2055
2045,2041,2036,2036,2018,2072,2064,2050
2050,2044,2042,2033,2016,2080,2073,2053
2054,2049,2049,2043,2012,2082,2067,2046
2057,2048,2046,2043,1992,2067,2058,2033
2051,2052,2061,2042,1969,2054,2049,2029
2048,2058,2063,2055,1949,2045,2046,2040
2045,2055,2056,2050,1936,2030,2042,2040
2038,2039,2043,2040,1947,2022,2016,2030
2043,2041,2040,2043,1989,2028,2038,2035
2044,2045,2041,2066,2076,2056,2035,2038
2049,2049,2054,2088,2140,2054,2055,2049
2058,2065,2071,2098,2130,2045,2049,2049
2064,2068,2068,2088,2079,2042,2061,2054
2057,2058,2062,2069,2048,2037,2045,2052
2058,2053,2058,2049,2068,2030,2023,2048
2053,2038,2044,2040,2062,1985,2012,2056
2052,2052,2043,2045,2036,1969,2041,2066
2046,2057,2047,2053,2044,2011,2066,2080
2045,2056,2056,2068,2055,2035,2060,2079
2047,2052,2049,2050,2045,2040,2067,2078
2044,2040,2035,2042,2058,2047,2061,2076
2038,2037,2032,2048,2083,2063,2055,2081
2039,2031,2024,2043,2069,2064,2045,2074
2036,2024,2020,2043,2061,2062,2048,2066
2032,2033,2033,2056,2072,2067,2063,2062
2040,2039,2038,2060,2061,2063,2041,2060
2035,2037,2035,2055,2043,2021,2034,2055
2033,2044,2035,2054,2025,1997,2024,2044
2032,2044,2037,2050,2037,2046,2035,2042
2041,2042,2040,2049,2039,2073,2044,2041
2043,2049,2042,2058,2038,2064,2033,2047
2035,2054,2043,2059,2029,2050,2026,2050
2040,2046,2043,2056,2040,2044,2039,2045
2036,2047,2044,2053,2049,2035,2035,2044
2044,2055,2057,2066,2052,2040,2036,2040
2055,2064,2065,2069,2068,2055,2031,2035
2056,2065,2060,2068,2064,2049,2016,2041
2051,2064,2057,2054,2014,2036,2030,2034
2047,2056,2048,2045,2020,2028,2022,2032
2042,2052,2036,2041,2030,2040,2037,2035
2051,2045,2041,2046,2026,2066,2052,2036
2051,2052,2042,2047,2007,2082,2057,2036
2045,2048,2042,2048,2004,2081,2025,2033
2044,2040,2046,2042,2006,2072,2048,2032
