CH1,CH2,CH3,CH4,CH5,CH6,CH7,CH8
2060,2054,2056,2068,2042,2049,2064,2071
2065,2064,2048,2067,2048,2052,2059,2065
2073,2065,2032,2060,2052,2051,2054,2057
2069,2057,2008,2049,2048,2049,2042,2046
2059,2053,1996,2044,2045,2051,2053,2029
2056,2053,2009,2050,2050,2055,2050,2028
2053,2047,2005,2041,2053,2053,2047,2023
2057,2036,2004,2029,2050,2054,2032,2022
2049,2038,2008,2032,2049,2054,2028,2018
2043,2040,2005,2026,2040,2043,2036,2011
2038,2028,2003,2026,2040,2046,2032,2010
2039,2030,2010,2028,2047,2051,2044,2017
2047,2044,2028,2025,2047,2053,2061,2021
2056,2041,2022,2014,2041,2050,2049,2019
2054,2044,2037,2021,2035,2047,2049,2032
2059,2044,2055,2030,2042,2046,2053,2040
2060,2050,2061,2031,2035,2039,2062,2050
2072,2052,2060,2038,2041,2041,2046,2045
2067,2057,2075,2052,2031,2046,2066,2045
2058,2055,2085,2062,2030,2053,2059,2038
2050,2058,2086,2081,2046,2066,2066,2054
2049,2056,2080,2089,2048,2068,2078,2062
2046,2060,2069,2090,2066,2049,2078,2076
2052,2056,2068,2077,2050,2046,2080,2087
2055,2059,2063,2062,2032,2060,2072,2084
2051,2053,2073,2044,2019,2069,2049,2084
2048,2040,2066,2029,1998,2059,2060,2078
2043,2030,2068,2026,1978,2037,2044,2084
2044,2042,2072,2036,1988,2014,2041,2088
2042,2041,2079,2052,2008,2008,2054,2085
2046,2047,2094,2065,2040,2024,2062,2080
2048,2058,2106,2072,2049,2045,2065,2081
2059,2056,2102,2065,2075,2080,2061,2065
2057,2060,2103,2075,2094,2085,2073,2062
2061,2055,2105,2084,2096,2073,2080,2053
2059,2058,2095,2077,2041,2065,2066,2049
2052,2058,2080,2087,2018,2062,2076,2035
2044,2046,2075,2097,2047,2054,2063,2023
2034,2037,2056,2083,2039,2040,2062,2020
2025,2034,2049,2083,2057,2041,2061,2015
2021,2036,2044,2084,2064,2050,2049,2016
2024,2040,2033,2074,2045,2050,2035,2019
2045,2045,2022,2058,2056,2042,2060,2028
2049,2040,2004,2032,2042,2019,2053,2026
2049,2045,2010,2020,2038,2010,2057,2029
2058,2061,2027,2030,2091,2026,2055,2026
2051,2052,2017,1999,2042,2032,2042,2024
2054,2041,2008,1991,1987,2037,2034,2021
2053,2039,2014,2002,2007,2038,2042,2021
2052,2039,2022,2028,2037,2035,2036,2020
2050,2041,2032,2044,2078,2044,2032,2023
2042,2039,2038,2050,2067,2037,2035,2024
2030,2030,2033,2037,2045,2036,2035,2024
2032,2026,2037,2034,2034,2033,2026,2039
2038,2028,2028,2044,2036,2027,2031,2042
2038,2030,2028,2053,2034,2049,2040,2063
2040,2026,2028,2056,2034,2068,2028,2064
2034,2030,2032,2060,2031,2082,2041,2073
2044,2034,2026,2060,2044,2100,2066,2077
2034,2027,2029,2065,2045,2091,2022,2066
2033,2015,2019,2062,2042,2077,2024,2061
2018,2017,2021,2068,2039,2057,2034,2066
2026,2028,2036,2082,2052,2023,2045,2067
2039,2036,2043,2094,2071,2026,2037,2070
2048,2039,2047,2097,2064,2027,2034,2066
2043,2036,2054,2100,2070,2042,2038,2052
2033,2031,2047,2099,2076,2051,2020,2044
2037,2039,2054,2101,2078,2062,2051,2041
2042,2039,2046,2093,2076,2059,2053,2035
2041,2046,2050,2087,2070,2054,2049,2031
2054,2040,2045,2079,2065,2056,2039,2026
2052,2037,2034,2060,2054,2052,2044,2021
2044,2021,2017,2031,2035,2042,2054,2012
2042,2023,2008,2014,2021,2043,2032,2007
2039,2034,2022,2012,2019,2041,2036,2007
2038,2047,2047,2015,2026,2040,2024,2007
2043,2048,2061,2018,2047,2038,2025,2008
2044,2038,2061,2016,2067,2041,2022,2008
2042,2051,2063,2012,2055,2050,2052,2015
2051,2056,2056,2016,2059,2055,2021,2026
2060,2055,2061,2020,2054,2060,2029,2030
2060,2061,2058,2031,2056,2063,2048,2031
2065,2056,2047,2033,2051,2063,2058,2040
2063,2055,2056,2030,2060,2067,2044,2047
2066,2061,2065,2044,2068,2070,2068,2052
2064,2061,2065,2053,2071,2075,2067,2051
2061,2058,2065,2049,2064,2076,2085,2057
2050,2054,2057,2051,2065,2078,2066,2059
2054,2050,2053,2053,2070,2074,2067,2063
2053,2049,2056,2050,2065,2077,2063,2065
2048,2047,2054,2052,2063,2073,2062,2080
2047,2054,2055,2051,2062,2076,2056,2087
2050,2053,2065,2058,2069,2071,2044,2084
2046,2044,2052,2050,2052,2056,2046,2084
2049,2039,2051,2056,2057,2049,2058,2088
2046,2047,2060,2061,2065,2052,2069,2077
2048,2048,2060,2069,2071,2064,2067,2068
2040,2050,2057,2063,2062,2065,2042,2061
2036,2046,2050,2065,2062,2051,2040,2061
2045,2044,2053,2060,2050,2049,2058,2056
2043,2045,2055,2057,2050,2035,2062,2048
2039,2041,2056,2060,2043,2034,2061,2036
2047,2045,2055,2059,2041,2042,2063,2036
2060,2051,2069,2060,2052,2054,2070,2038
2059,2053,2068,2059,2042,2055,2044,2039
2066,2051,2059,2055,2045,2052,2056,2027
2052,2045,2046,2049,2035,2050,2040,2018
2036,2035,2032,2043,2035,2047,2041,2014
2040,2035,2032,2044,2033,2046,2029,2007
2037,2032,2031,2042,2034,2034,1999,2000
2033,2029,2031,2042,2028,2030,2020,2000
2037,2030,2035,2040,2032,2041,2027,2012
2048,2039,2045,2036,2037,2047,2031,2008
2052,2049,2059,2038,2051,2048,2061,2012
2052,2059,2064,2045,2052,2058,2069,2023
2057,2066,2066,2042,2058,2058,2052,2028
2058,2056,2055,2036,2058,2055,2045,2032
2059,2055,2053,2042,2058,2044,2053,2031
2051,2051,2053,2052,2057,2049,2053,2033
2048,2050,2052,2058,2058,2053,2048,2036
2054,2049,2050,2066,2065,2052,2056,2039
2050,2050,2058,2077,2070,2056,2037,2051
2054,2044,2064,2091,2077,2055,2041,2062
2048,2045,2061,2093,2074,2058,2041,2063
2049,2038,2057,2098,2070,2062,2053,2064
2046,2038,2054,2097,2067,2059,2047,2072
2045,2028,2044,2088,2053,2048,2049,2066
2030,2011,2033,2086,2051,2044,2046,2066
2031,2019,2035,2093,2050,2052,2046,2068
2041,2027,2040,2089,2057,2051,2048,2070
2046,2038,2047,2087,2054,2051,2044,2071
2054,2033,2046,2080,2050,2049,2050,2059
2046,2027,2036,2071,2049,2045,2049,2055
2044,2033,2034,2066,2043,2038,2039,2044
2044,2027,2031,2055,2040,2028,2036,2029
2046,2029,2033,2032,2030,2028,2045,2017
2043,2024,2024,2021,2018,2028,2044,2021
2035,2031,2025,2007,2008,2024,2046,2021
2039,2039,2024,2000,2016,2030,2028,2018
2038,2048,2043,1998,2016,2032,2037,2021
2043,2060,2053,1997,2020,2038,2043,2019
2048,2057,2051,2003,2034,2047,2048,2020
2049,2064,2050,2012,2042,2049,2064,2009
2053,2056,2038,2018,2041,2055,2055,2008
2048,2055,2045,2023,2043,2049,2041,2014
2059,2058,2051,2037,2051,2050,2052,2017
2056,2058,2058,2046,2049,2052,2053,2017
2056,2058,2061,2051,2051,2037,2048,2017
2056,2058,2059,2052,2046,2038,2039,2022
2052,2054,2065,2051,2042,2047,2044,2029
2057,2053,2064,2053,2050,2047,2038,2034
2060,2047,2062,2055,2055,2051,2039,2032
2053,2047,2060,2050,2059,2051,2048,2030
2053,2047,2058,2048,2056,2046,2064,2042
2052,2044,2059,2050,2061,2053,2069,2050
2047,2040,2065,2054,2060,2057,2065,2054
2041,2048,2070,2052,2064,2049,2036,2058
2038,2047,2065,2056,2057,2051,2031,2078
2041,2047,2057,2056,2062,2058,2050,2078
2041,2043,2054,2056,2061,2048,2044,2080
2026,2034,2042,2049,2051,2034,2043,2085
2037,2029,2033,2040,2048,2034,2045,2082
2041,2037,2049,2053,2044,2040,2035,2076
2044,2044,2054,2065,2047,2050,2042,2075
2042,2041,2059,2068,2048,2053,2031,2064
2044,2045,2059,2063,2044,2051,2059,2063
2053,2042,2056,2064,2044,2054,2054,2051
2052,2043,2051,2061,2043,2058,2041,2044
2046,2040,2049,2059,2049,2067,2052,2037
2048,2046,2046,2059,2046,2066,2054,2041
2056,2046,2039,2061,2048,2070,2049,2046
2057,2052,2035,2062,2050,2068,2051,2038
2052,2048,2037,2059,2047,2061,2051,2029
2053,2039,2033,2053,2038,2052,2046,2019
2047,2038,2029,2042,2036,2050,2018,2010
2044,2035,2028,2036,2041,2049,2009,2015
2044,2045,2038,2040,2039,2045,2033,2006
2038,2044,2045,2035,2045,2043,2037,2005
2042,2050,2052,2042,2044,2055,2038,2011
2047,2060,2064,2042,2056,2055,2035,2018
2049,2059,2057,2034,2052,2055,2023,2021
2054,2060,2055,2032,2046,2051,2034,2026
2051,2063,2056,2044,2054,2048,2037,2026
2048,2057,2056,2049,2053,2050,2053,2029
2049,2055,2049,2047,2060,2049,2067,2038
2050,2050,2057,2048,2065,2046,2050,2042
2054,2050,2056,2050,2060,2046,2039,2048
2052,2053,2058,2047,2063,2044,2033,2054
2052,2055,2053,2051,2057,2041,2056,2057
2057,2048,2052,2048,2057,2040,2055,2068
2047,2040,2050,2048,2057,2037,2057,2068
2052,2043,2050,2050,2061,2047,2060,2087
2054,2042,2050,2054,2058,2045,2062,2081
2056,2045,2050,2050,2051,2044,2056,2094
2054,2038,2043,2050,2053,2050,2060,2100
2060,2041,2048,2053,2047,2055,2058,2096
2063,2044,2048,2048,2051,2059,2059,2079
2056,2046,2046,2042,2054,2052,2032,2066
2044,2032,2037,2035,2036,2045,2044,2055
2036,2024,2028,2028,2026,2041,2044,2047
2033,2028,2036,2031,2037,2040,2047,2046
2049,2043,2049,2041,2048,2046,2051,2050
2052,2048,2052,2040,2044,2051,2039,2036
2046,2047,2045,2041,2053,2047,2033,2042
2046,2049,2046,2039,2048,2051,2019,2034
2052,2050,2047,2037,2051,2058,2033,2023
2049,2049,2038,2034,2052,2069,2042,2021
2049,2043,2036,2031,2050,2069,2065,2023
2047,2044,2034,2036,2050,2077,2078,2021
2054,2040,2035,2031,2050,2067,2052,2018
2052,2036,2030,2032,2054,2059,2065,2016
2056,2035,2026,2035,2055,2053,2074,2027
2057,2049,2030,2043,2057,2048,2064,2022
2054,2032,2021,2042,2052,2049,2070,2018
2052,2036,2017,2049,2056,2045,2072,2015
2046,2036,2012,2047,2056,2043,2057,2016
2040,2034,2012,2044,2057,2052,2050,2020
2043,2034,2018,2049,2060,2050,2061,2032
2039,2040,2035,2056,2060,2058,2062,2042
2040,2045,2044,2058,2065,2061,2062,2046
2046,2052,2043,2057,2068,2058,2044,2057
2055,2048,2050,2058,2071,2055,2058,2066
2046,2045,2049,2058,2074,2054,2047,2068
2048,2048,2052,2060,2078,2056,2064,2076
2051,2050,2055,2060,2069,2059,2066,2087
2045,2040,2057,2052,2066,2053,2071,2084
2038,2032,2038,2050,2055,2046,2069,2080
2031,2029,2049,2053,2047,2035,2044,2084
2028,2028,2054,2055,2039,2039,2042,2072
2029,2034,2056,2057,2036,2049,2049,2075
2036,2038,2062,2055,2037,2052,2059,2065
2038,2046,2067,2042,2034,2059,2063,2057
2040,2055,2070,2041,2040,2068,2068,2058
2039,2060,2081,2045,2039,2074,2067,2049
2047,2055,2078,2046,2045,2076,2026,2052
2061,2059,2077,2048,2046,2077,2032,2053
2053,2058,2083,2054,2041,2082,2031,2046
2056,2058,2091,2064,2044,2069,2029,2034
2047,2057,2094,2066,2039,2025,2043,2032
2057,2048,2085,2062,2032,1987,2062,2032
2054,2041,2070,2046,2034,2004,2035,2022
2055,2038,2068,2040,2037,2036,2058,2021
2059,2049,2064,2039,2039,2058,2060,2009
2047,2048,2057,2029,2028,2061,2046,1998
2035,2039,2045,2020,2019,2056,2049,1994
2036,2042,2051,2024,2043,2070,2065,2006
2043,2052,2054,2038,2046,2061,2067,2024
2051,2060,2061,2049,2058,2060,2064,2035
2049,2063,2066,2055,2062,2062,2079,2034
2037,2060,2060,2062,2063,2069,2068,2031
2045,2053,2056,2058,2074,2073,2053,2032
2045,2062,2055,2046,2066,2080,2049,2036
2041,2058,2050,2039,2075,2082,2050,2038
2042,2049,2045,2028,2074,2072,2049,2052
2038,2048,2042,2025,2067,2055,2047,2063
2041,2048,2041,2019,2058,2039,2042,2072
2042,2051,2034,2021,2053,2028,2059,2075
2045,2047,2041,2025,2058,2016,2060,2081
2051,2052,2043,2021,2056,2015,2053,2088
2044,2050,2046,2025,2056,2015,2051,2080
2040,2038,2034,2025,2048,2016,2038,2082
2039,2033,2032,2026,2047,2029,2032,2091
2037,2042,2044,2024,2049,2040,2037,2091
2045,2049,2039,2029,2038,2049,2038,2085
2042,2048,2044,2033,2034,2055,2025,2077
2045,2047,2041,2031,2043,2054,2036,2071
2040,2048,2043,2031,2044,2058,2040,2077
2045,2047,2047,2030,2039,2051,2024,2063
2044,2048,2044,2034,2036,2052,2041,2056
2050,2046,2046,2037,2038,2050,2040,2049
2043,2053,2055,2035,2041,2041,2045,2038
2051,2051,2056,2027,2038,2041,2042,2030
2046,2051,2042,2033,2038,2030,2033,2029
2044,2049,2040,2032,2030,2016,2028,2024
2041,2044,2044,2034,2039,2026,2042,2022
2040,2045,2043,2039,2046,2046,2040,2017
2040,2046,2050,2037,2048,2056,2048,2016
2036,2040,2038,2030,2042,2055,2050,2013
2040,2038,2044,2034,2050,2066,2052,2022
2045,2047,2046,2037,2045,2062,2053,2021
2046,2047,2042,2039,2046,2056,2051,2026
2053,2054,2049,2035,2047,2064,2050,2028
2055,2049,2042,2041,2051,2059,2045,2031
2053,2049,2044,2039,2056,2049,2041,2032
2047,2049,2040,2036,2055,2052,2048,2036
2047,2047,2046,2036,2054,2047,2066,2043
2051,2045,2040,2046,2048,2038,2040,2046
2051,2048,2043,2039,2044,2030,2043,2054
2044,2053,2041,2039,2046,2029,2037,2060
2046,2045,2042,2041,2046,2034,2033,2073
2042,2041,2039,2040,2049,2042,2021,2080
2039,2038,2042,2038,2047,2044,2045,2080
2042,2047,2039,2031,2050,2041,2041,2085
2041,2035,2031,2031,2043,2037,2027,2082
2036,2031,2035,2030,2040,2038,2033,2080
2041,2043,2042,2037,2040,2038,2034,2084
2038,2042,2043,2036,2038,2042,2052,2073
2045,2045,2042,2037,2034,2045,2040,2071
2051,2052,2042,2032,2038,2046,2057,2068
2048,2054,2038,2035,2038,2043,2034,2072
2048,2049,2043,2039,2037,2038,2052,2060
2045,2045,2049,2035,2037,2043,2045,2053
2052,2048,2044,2037,2040,2048,2054,2047
2051,2050,2044,2039,2052,2055,2051,2042
2053,2045,2047,2038,2055,2053,2051,2029
2049,2046,2045,2039,2043,2041,2029,2028
2048,2050,2047,2040,2039,2042,2038,2025
2052,2051,2049,2036,2043,2031,2058,2022
2048,2051,2049,2038,2046,2029,2053,2016
2045,2050,2044,2033,2038,2026,2035,2004
2037,2039,2040,2027,2039,2024,2033,2000
2037,2037,2041,2033,2048,2029,2053,2011
2055,2052,2046,2035,2041,2037,2041,2022
2050,2051,2048,2039,2046,2036,2057,2032
2055,2047,2050,2037,2044,2034,2052,2036
2054,2048,2046,2041,2048,2043,2044,2030
2052,2054,2046,2037,2057,2042,2049,2038
2058,2055,2051,2042,2070,2053,2049,2044
2053,2058,2054,2042,2071,2073,2055,2053
2050,2048,2049,2047,2067,2082,2059,2050
2049,2049,2044,2039,2062,2076,2057,2054
2047,2043,2047,2033,2058,2064,2033,2056
2050,2044,2046,2036,2064,2064,2055,2068
2047,2039,2042,2039,2065,2067,2046,2078
2046,2049,2052,2036,2064,2067,2049,2071
2046,2048,2049,2037,2066,2061,2040,2077
2036,2037,2043,2030,2056,2054,2038,2083
2040,2035,2042,2032,2055,2046,2059,2078
2044,2042,2048,2035,2053,2050,2051,2082
2045,2047,2053,2041,2059,2047,2053,2077
2044,2046,2049,2042,2050,2045,2056,2072
2043,2044,2049,2042,2048,2043,2052,2060
2046,2044,2046,2039,2041,2032,2042,2057
2047,2040,2052,2033,2033,2035,2045,2049
2046,2044,2045,2031,2037,2042,2016,2050
2048,2045,2041,2029,2038,2040,2040,2044
2055,2046,2042,2036,2041,2043,2030,2038
2052,2049,2056,2034,2041,2046,2029,2034
2052,2046,2055,2033,2039,2053,2039,2030
2059,2050,2050,2038,2040,2053,2054,2029
2057,2051,2050,2040,2047,2047,2052,2024
2053,2046,2050,2036,2041,2047,2041,2025
2053,2043,2050,2032,2040,2032,2019,2017
2047,2034,2043,2030,2039,2022,2037,2008
2049,2034,2041,2030,2038,2024,2046,2013
2048,2038,2044,2027,2044,2024,2022,2016
2053,2032,2045,2034,2050,2026,2046,2021
2056,2039,2048,2039,2052,2032,2047,2028
2055,2038,2048,2043,2050,2035,2056,2030
2054,2043,2045,2042,2052,2036,2062,2035
2058,2044,2051,2042,2044,2041,2053,2031
2055,2051,2049,2036,2033,2036,2052,2032
2060,2055,2054,2049,2040,2044,2061,2032
2047,2053,2058,2051,2045,2042,2062,2039
2040,2052,2059,2052,2047,2045,2071,2056
2043,2046,2057,2050,2044,2048,2066,2074
2055,2047,2051,2043,2040,2053,2060,2086
2051,2042,2051,2045,2034,2058,2050,2087
2055,2044,2055,2037,2020,2060,2056,2082
2051,2040,2042,2027,1995,2060,2065,2079
2047,2036,2038,2017,1983,2050,2053,2084
2055,2042,2047,2017,2009,2045,2031,2067
2046,2040,2050,2021,2022,2036,2046,2060
2053,2046,2054,2029,2034,2004,2042,2070
2057,2056,2064,2044,2057,1997,2055,2072
2056,2062,2066,2050,2079,2013,2057,2071
2060,2065,2061,2058,2084,2025,2052,2064
2065,2061,2059,2058,2086,2040,2059,2055
2060,2055,2054,2054,2080,2045,2060,2049
2062,2054,2046,2049,2073,2049,2060,2047
2057,2045,2041,2044,2064,2060,2059,2039
2051,2047,2045,2036,2062,2081,2072,2035
2049,2048,2047,2034,2057,2099,2066,2022
2048,2046,2042,2037,2049,2091,2073,2018
2048,2041,2038,2033,2053,2080,2066,2020
2041,2043,2040,2032,2057,2060,2072,2013
2047,2037,2034,2035,2050,2061,2050,2010
2044,2043,2041,2033,2063,2062,2057,2015
2053,2045,2043,2033,2059,2064,2059,2020
2049,2043,2039,2035,2062,2062,2050,2026
2043,2038,2052,2038,2063,2072,2066,2029
2058,2053,2054,2044,2065,2067,2066,2034
2050,2060,2059,2044,2061,2064,2059,2044
2055,2055,2058,2042,2059,2056,2073,2050
2053,2055,2047,2043,2053,2061,2032,2053
2053,2054,2053,2046,2060,2076,2025,2052
2056,2057,2060,2050,2075,2068,2057,2060
2057,2061,2066,2057,2072,2062,2071,2074
2059,2061,2063,2055,2055,2055,2058,2076
2060,2063,2061,2047,2040,2047,2060,2084
2054,2056,2053,2042,2035,2040,2055,2085
2049,2048,2050,2035,2022,2034,2026,2065
2036,2036,2041,2029,2029,2041,2023,2064
2034,2034,2045,2038,2054,2069,2031,2070
2043,2050,2052,2045,2056,2073,2048,2076
2042,2052,2056,2040,2036,2058,2048,2071
2042,2052,2061,2033,2017,2047,2015,2069
2042,2048,2051,2021,2003,2030,2013,2056
2044,2047,2044,2020,2000,2001,2021,2052
2046,2046,2050,2037,2036,2030,2030,2051
2057,2053,2064,2055,2083,2066,2064,2049
2053,2053,2060,2061,2098,2081,2084,2036
2054,2053,2057,2063,2103,2089,2083,2033
2048,2046,2051,2059,2094,2080,2082,2021
2044,2037,2041,2044,2069,2061,2073,2019
2048,2037,2036,2045,2054,2051,2074,2026
2050,2050,2038,2047,2037,2031,2038,2029
2058,2046,2040,2045,2029,2015,2018,2016
2043,2034,2040,2037,2025,2027,2031,2011
2046,2038,2039,2037,2039,2048,2031,2010
2047,2048,2049,2043,2048,2062,2022,2009
2045,2051,2047,2048,2051,2071,2051,2020
2047,2052,2051,2050,2050,2071,2029,2020
2049,2047,2053,2050,2055,2063,2055,2019
2047,2049,2052,2052,2053,2050,2043,2027
2050,2049,2046,2048,2045,2041,2038,2027
2053,2045,2052,2042,2052,2040,2044,2034
2051,2043,2047,2050,2056,2061,2054,2040
2047,2043,2050,2055,2064,2076,2056,2050
2050,2044,2046,2052,2054,2081,2057,2054
2049,2049,2048,2041,2053,2082,2049,2062
2053,2044,2044,2043,2052,2080,2057,2068
2054,2039,2046,2040,2052,2040,2040,2081
2050,2040,2043,2042,2050,2001,2050,2074
2043,2027,2040,2039,2049,2012,2050,2075
2050,2027,2042,2037,2053,2020,2041,2074
2053,2039,2051,2044,2051,2030,2041,2070
2046,2043,2052,2045,2042,2025,2045,2075
2048,2055,2053,2049,2043,2036,2027,2080
2050,2062,2057,2050,2043,2034,2036,2068
2057,2058,2051,2047,2039,2032,2046,2054
2056,2051,2051,2048,2037,2026,2034,2040
2049,2051,2049,2051,2043,2028,2046,2037
2043,2058,2052,2048,2042,2029,2047,2035
2044,2053,2047,2050,2052,2041,2025,2033
2045,2054,2050,2045,2047,2051,2027,2029
2048,2053,2048,2051,2047,2052,2023,2024
2052,2058,2050,2045,2046,2060,2048,2021
2042,2050,2043,2042,2046,2050,2037,2019
2040,2047,2047,2049,2034,2033,2034,2016
2040,2041,2034,2035,2025,2023,2027,2011
2038,2037,2040,2037,2028,2024,2038,2023
2055,2054,2055,2052,2032,2035,2051,2028
2057,2056,2053,2049,2041,2052,2055,2037
2060,2053,2047,2053,2044,2064,2064,2041
2054,2050,2048,2055,2047,2066,2065,2032
2050,2049,2052,2051,2047,2080,2047,2026
2052,2047,2047,2049,2055,2072,2048,2040
2048,2046,2047,2052,2060,2047,2059,2050
2050,2042,2043,2048,2065,2034,2051,2055
2050,2040,2044,2047,2067,2053,2046,2062
2048,2043,2048,2047,2061,2058,2045,2073
2044,2039,2035,2042,2061,2053,2045,2080
2039,2028,2032,2041,2063,2048,2055,2086
2041,2030,2032,2042,2062,2039,2050,2091
2044,2028,2037,2044,2052,2036,2061,2097
2045,2028,2034,2036,2039,2026,2043,2093
2041,2027,2041,2040,2036,2022,2056,2096
2047,2042,2047,2046,2039,2015,2056,2088
2047,2036,2043,2045,2059,2005,2069,2090
2048,2037,2045,2042,2092,1998,2065,2088
2043,2034,2043,2039,2103,1993,2069,2085
2043,2042,2046,2045,2097,1994,2055,2069
2044,2038,2045,2048,2100,1999,2040,2056
2043,2044,2051,2060,2095,2031,2049,2045
2051,2050,2054,2061,2099,2053,2047,2037
2047,2053,2056,2055,2092,2061,2046,2036
2054,2055,2049,2049,2058,2069,2063,2042
2055,2046,2044,2044,1982,2064,2066,2018
2042,2034,2036,2029,1905,2037,2059,2017
2032,2028,2034,2029,1925,2026,2047,2020
2035,2032,2040,2038,1971,2029,2053,2023
2039,2033,2041,2042,1985,2020,2045,2028
2037,2037,2042,2035,1954,2015,2044,2024
2045,2048,2044,2040,1946,2020,2049,2030
2044,2045,2047,2028,1953,2020,2055,2037
2043,2040,2044,2020,1950,2026,2063,2031
2040,2039,2031,2005,1936,2038,2075,2041
2051,2043,2037,2023,2030,2074,2090,2044
2062,2049,2050,2054,2101,2090,2090,2052
2064,2053,2059,2068,2144,2091,2087,2063
2067,2049,2053,2061,2143,2079,2079,2067
2060,2035,2044,2051,2094,2059,2067,2066
2046,2034,2043,2045,2057,2052,2063,2056
2043,2047,2051,2038,2047,2058,2056,2052
2042,2046,2039,2037,2046,2074,2056,2066
2040,2049,2050,2050,2088,2078,2052,2076
2041,2046,2051,2060,2096,2071,2037,2074
2044,2049,2049,2062,2102,2070,2024,2073
2044,2040,2039,2058,2102,2060,2039,2084
2045,2042,2044,2053,2089,2053,2034,2095
2050,2049,2055,2046,2078,2038,2040,2089
2054,2050,2046,2056,2075,2050,2041,2089
2048,2049,2042,2051,2068,2056,2052,2080
2056,2046,2050,2048,2066,2055,2052,2071
2057,2045,2050,2043,2062,2057,2035,2059
2051,2042,2043,2042,2045,2053,2033,2050
2048,2042,2039,2042,2048,2057,2028,2050
2055,2056,2048,2048,2050,2073,2037,2045
2063,2054,2049,2048,2043,2061,2049,2033
2062,2055,2044,2044,2028,2015,2056,2035
2053,2050,2044,2042,2029,1985,2043,2026
2046,2042,2045,2037,2040,2002,2045,2014
2044,2038,2039,2037,2046,2011,2047,2012
2042,2038,2034,2036,2042,2024,2040,2012
2035,2019,2028,2026,2027,2027,2031,1999
2029,2022,2026,2023,2036,2041,2031,2001
2033,2029,2035,2024,2047,2041,2037,1996
2037,2030,2038,2028,2049,2040,2050,2000
2040,2028,2037,2034,2053,2044,2046,2014
2043,2031,2034,2042,2060,2043,2051,2015
2043,2027,2034,2042,2063,2043,2041,2027
2048,2030,2037,2038,2064,2043,2050,2037
2042,2036,2040,2039,2061,2040,2047,2032
2041,2032,2037,2037,2057,2042,2063,2049
2041,2030,2034,2039,2051,2047,2071,2066
2040,2034,2038,2043,2063,2045,2040,2070
2048,2036,2035,2045,2064,2042,2032,2078
2055,2034,2034,2045,2060,2035,2067,2081
2053,2046,2037,2044,2065,2021,2071,2094
2049,2044,2048,2046,2059,2014,2056,2095
2054,2047,2054,2042,2048,2009,2038,2083
2045,2048,2044,2040,2046,2005,2029,2080
2045,2054,2050,2042,2042,2004,2044,2079
2053,2059,2051,2038,2045,2033,2048,2083
2050,2059,2050,2038,2056,2065,2065,2078
2053,2057,2051,2036,2054,2100,2068,2070
2058,2055,2052,2036,2049,2087,2053,2066
2055,2054,2054,2045,2041,2067,2053,2063
2055,2051,2050,2037,2028,2061,2039,2049
2052,2049,2051,2036,2012,2064,2030,2040
2052,2052,2045,2029,2001,2062,2029,2035
2050,2046,2044,2022,1999,2080,2030,2022
2043,2046,2044,2021,1997,2076,2024,2024
2046,2047,2042,2024,2005,2048,2030,2028
2058,2053,2046,2036,2035,2046,2036,2025
2057,2054,2056,2044,2056,2047,2044,2024
2053,2054,2059,2046,2063,2028,2025,2027
2050,2045,2056,2052,2075,2035,2050,2022
2042,2046,2053,2054,2077,2044,2053,2019
2046,2045,2054,2053,2064,2057,2064,2021
2052,2049,2055,2048,2061,2055,2053,2022
2050,2045,2060,2044,2059,2049,2053,2025
2043,2049,2053,2046,2058,2051,2037,2027
2049,2047,2054,2046,2065,2055,2033,2034
2045,2050,2054,2047,2061,2057,2055,2044
2052,2051,2050,2045,2066,2056,2055,2045
2050,2053,2053,2047,2082,2060,2061,2048
2048,2055,2049,2049,2085,2063,2057,2056
2055,2053,2049,2052,2092,2071,2059,2063
2043,2050,2044,2050,2083,2058,2058,2066
2045,2046,2043,2049,2074,2040,2039,2070
2045,2047,2049,2042,2069,2033,2031,2077
2039,2043,2040,2036,2071,2029,2052,2083
2041,2035,2040,2036,2057,2025,2054,2088
2039,2037,2031,2029,2048,2025,2057,2083
2045,2041,2037,2033,2037,2017,2021,2081
2044,2045,2041,2034,2037,2019,2016,2079
2052,2048,2047,2039,2037,2024,2044,2081
2051,2053,2050,2043,2030,2036,2033,2067
2049,2054,2050,2040,2029,2042,2057,2061
2050,2050,2050,2045,2033,2039,2043,2054
2057,2054,2046,2036,2042,2053,2038,2043
2057,2047,2050,2035,2036,2058,2039,2036
2043,2050,2056,2030,2036,2057,2040,2033
2045,2052,2061,2042,2037,2055,2048,2029
2047,2050,2055,2040,2040,2052,2037,2028
2048,2054,2054,2044,2037,2049,2042,2016
2052,2048,2051,2039,2043,2051,2048,2013
2054,2048,2050,2035,2060,2057,2057,2012
2045,2043,2041,2038,2071,2058,2046,2006
2040,2040,2031,2038,2071,2064,2035,2010
2039,2047,2039,2041,2077,2083,2056,2018
2048,2049,2039,2044,2074,2079,2068,2023
2051,2046,2033,2032,2060,2066,2029,2029
2051,2041,2037,2033,2050,2049,2049,2018
2049,2034,2031,2035,2051,2050,2041,2031
2051,2038,2032,2037,2049,2034,2035,2034
2043,2040,2037,2038,2042,2042,2043,2042
2048,2041,2041,2036,2053,2059,2052,2052
2045,2038,2041,2038,2059,2084,2056,2061
2048,2036,2035,2036,2060,2087,2076,2071
2048,2034,2042,2034,2058,2091,2086,2076
2043,2031,2043,2033,2056,2065,2082,2082
2044,2027,2021,2019,2030,2016,2064,2082
2041,2025,2026,2008,2025,2017,2072,2086
2040,2026,2026,2003,2016,2045,2070,2076
2035,2030,2030,2011,2011,2086,2060,2077
2052,2034,2037,2012,2009,2101,2070,2091
2054,2043,2038,2015,2020,2115,2068,2089
2058,2051,2046,2028,2036,2123,2083,2084
2069,2063,2058,2035,2040,2049,2062,2075
2073,2069,2056,2033,2042,1977,2022,2062
2071,2061,2051,2041,2039,1994,2011,2043
2063,2064,2047,2045,2041,2036,2014,2043
2059,2059,2038,2036,2031,2058,2046,2035
2056,2045,2036,2029,2025,2049,2039,2027
2054,2045,2029,2025,2030,2034,2016,2029
2050,2046,2032,2021,2040,2031,2026,2023
2044,2044,2030,2026,2040,2039,2038,2020
2045,2045,2035,2035,2059,2050,2029,2025
2050,2051,2042,2034,2062,2068,2037,2022
2058,2046,2035,2027,2039,2070,2025,2013
2041,2037,2030,2022,2027,2069,2026,2010
2043,2039,2033,2022,2034,2083,2019,2004
2052,2048,2038,2034,2038,2069,2040,2005
2046,2046,2042,2036,2053,2030,2039,2018
2045,2053,2054,2053,2060,1997,2032,2025
2055,2054,2064,2050,2067,2010,2038,2029
2046,2055,2063,2054,2059,2024,2027,2031
2047,2056,2072,2048,2053,2036,2031,2032
2047,2060,2074,2049,2037,2042,2040,2038
2045,2050,2071,2045,2049,2048,2043,2043
2057,2057,2072,2046,2048,2050,2042,2056
2058,2055,2060,2046,2061,2060,2052,2069
2054,2052,2057,2045,2057,2057,2037,2082
2058,2049,2056,2040,2037,2051,2052,2080
2064,2052,2053,2024,2006,2035,2049,2085
2059,2049,2049,2019,1965,2012,2042,2087
2047,2035,2038,2003,1930,2010,2035,2078
2048,2030,2036,2005,1977,2039,2045,2085
2062,2049,2051,2027,2080,2070,2046,2080
2061,2052,2054,2039,2130,2089,2068,2081
2059,2056,2057,2041,2137,2105,2062,2080
2053,2044,2051,2039,2135,2108,2066,2066
2049,2042,2045,2046,2131,2098,2066,2057
2049,2043,2048,2042,2119,2086,2055,2054
2046,2038,2045,2036,2097,2071,2051,2044
2050,2041,2044,2034,2066,2056,2054,2036
2052,2037,2038,2025,2021,2069,2041,2023
2043,2034,2038,2012,1902,2053,2035,2020
2041,2029,2034,1997,1842,2035,2042,2026
2050,2027,2034,2014,1925,2044,2046,2021
2052,2033,2052,2050,2050,2044,2056,2019
2056,2034,2061,2072,2104,2016,2068,2031
2061,2051,2060,2076,2126,2027,2073,2027
2061,2045,2055,2073,2102,2042,2072,2027
2062,2046,2051,2056,2057,2035,2046,2029
2058,2049,2038,2036,2043,2022,2044,2025
2050,2042,2035,2042,2061,2027,2035,2024
2044,2038,2034,2035,2046,2008,2030,2017
2041,2040,2038,2027,2061,2001,2033,2022
2048,2048,2042,2032,2040,1992,2020,2019
2047,2051,2049,2034,2004,1995,2017,2035
2049,2048,2049,2030,1996,2006,2026,2036
2052,2043,2045,2038,1997,2020,2005,2053
2056,2044,2049,2045,2031,2029,2060,2066
2054,2051,2054,2050,2056,2041,2024,2064
2037,2045,2047,2051,2035,2032,2038,2061
2039,2042,2050,2038,2026,2033,2040,2062
2043,2045,2048,2039,2044,2042,2033,2073
2043,2054,2052,2047,2091,2046,2041,2073
2042,2055,2058,2051,2111,2043,2035,2081
2046,2059,2056,2057,2093,2037,2050,2083
2059,2060,2058,2050,2074,2029,2037,2088
2060,2056,2049,2033,2030,2013,2037,2067
2053,2063,2056,2010,1928,1993,2010,2055
2052,2054,2056,2019,1955,2007,2025,2049
2049,2051,2043,2027,2025,2040,2026,2040
2050,2047,2041,2038,2057,2059,2040,2041
2051,2044,2044,2045,2075,2074,2073,2046
2045,2044,2039,2042,2063,2092,2046,2039
2040,2034,2037,2034,2044,2093,2066,2033
2045,2034,2037,2035,2020,2082,2070,2025
2045,2044,2050,2040,2026,2072,2047,2015
2046,2046,2041,2047,2026,2073,2061,2011
2047,2050,2043,2038,2056,2078,2045,2008
2048,2045,2037,2037,2063,2070,2069,2000
2042,2037,2020,2028,2046,2060,2052,1995
2034,2030,2024,2016,2020,2045,2051,1990
2035,2040,2027,2014,2005,2053,2053,1993
2031,2034,2032,2011,2011,2058,2052,2011
2040,2036,2027,2023,2038,2080,2061,2024
2052,2042,2023,2023,2048,2072,2054,2037
2067,2036,2029,2029,2055,2073,2082,2034
2056,2029,2025,2027,2065,2077,2076,2029
2051,2030,2027,2031,2068,2065,2056,2025
2046,2040,2038,2038,2082,2065,2069,2028
2049,2050,2042,2046,2093,2071,2071,2041
2056,2055,2055,2057,2106,2073,2078,2056
2048,2054,2054,2048,2084,2049,2074,2065
2044,2047,2049,2044,2073,2058,2058,2074
2044,2047,2036,2029,2050,2092,2043,2072
2039,2042,2030,2020,2017,2115,2043,2070
2027,2024,2023,2002,1987,2082,2025,2056
2022,2033,2025,2011,1976,2055,2023,2060
2035,2046,2039,2017,1986,2046,2033,2066
2036,2046,2049,2032,2028,2028,2045,2069
2041,2050,2050,2053,2069,2026,2050,2071
2039,2052,2050,2058,2073,2004,2056,2067
2042,2050,2051,2050,2060,1999,2045,2064
2041,2050,2043,2049,2072,2013,2054,2048
2040,2047,2044,2050,2090,2052,2054,2041
2045,2045,2044,2045,2090,2081,2046,2033
2048,2041,2043,2041,2080,2096,2058,2021
2045,2032,2041,2029,2059,2093,2042,2023
2040,2034,2037,2020,2014,2089,2042,2019
2042,2040,2040,2021,1979,2064,2049,2022
2045,2046,2053,2034,2015,2060,2049,2015
2053,2047,2056,2037,2040,2061,2035,2012
2046,2045,2055,2025,2033,2062,2037,2019
2038,2034,2048,2032,2041,2079,2042,2024
2055,2040,2053,2038,2061,2096,2079,2033
2056,2048,2056,2034,2078,2097,2074,2031
2058,2054,2055,2040,2110,2077,2058,2044
2066,2068,2061,2041,2152,2072,2066,2039
2077,2065,2057,2039,2154,2062,2065,2035
2078,2063,2055,2033,2114,2047,2064,2038
2064,2055,2056,2027,2105,2050,2067,2032
2056,2058,2054,2039,2104,2045,2034,2027
2050,2054,2055,2041,2079,2017,2040,2037
2032,2055,2052,2051,2071,1996,2040,2046
2036,2049,2051,2049,2098,2009,2039,2059
2036,2046,2043,2021,2006,2010,2047,2064
2037,2042,2037,2001,1970,2050,2052,2073
2048,2052,2049,2035,2063,2084,2065,2087
2056,2060,2059,2055,2108,2094,2065,2090
2056,2039,2053,2045,2078,2062,2067,2087
2054,2043,2047,2043,2060,2019,2046,2096
2064,2059,2056,2045,2046,2010,2054,2090
2064,2058,2060,2033,2009,2022,2052,2081
2061,2056,2056,2017,1918,2019,2040,2075
2056,2055,2052,2007,1841,2016,2044,2066
2063,2052,2047,2012,1876,2024,2057,2060
2064,2060,2058,2019,1936,2027,2044,2051
2057,2059,2055,2031,1967,2014,2054,2027
2041,2048,2042,2008,1951,2010,2037,2014
2034,2037,2039,2011,1967,2022,2036,2021
2043,2037,2035,2021,2006,2034,2056,2019
2035,2038,2032,2022,2030,2047,2045,2019
2042,2044,2045,2046,2106,2077,2053,2024
2059,2057,2050,2056,2161,2091,2064,2015
2050,2058,2046,2051,2135,2087,2055,2004
2030,2039,2036,2035,2107,2077,2048,2004
2029,2042,2042,2021,2109,2072,2040,2010
2043,2054,2058,2026,2087,2068,2044,2015
2039,2055,2053,2019,1997,2021,2031,2012
2044,2049,2055,2025,1986,1998,2022,2012
2044,2054,2053,2026,1987,1992,2023,2017
2051,2060,2060,2035,2031,2038,2049,2031
2062,2068,2072,2049,2053,2089,2067,2042
2064,2066,2064,2050,2051,2103,2067,2045
2050,2053,2063,2045,2067,2087,2080,2047
2047,2046,2049,2048,2067,2070,2060,2057
2052,2051,2060,2043,2046,2061,2068,2069
2064,2056,2064,2049,2053,2062,2070,2080
2057,2056,2062,2051,2058,2048,2065,2082
2045,2049,2058,2039,2039,2015,2057,2070
2034,2043,2054,2035,2017,2012,2057,2075
2028,2033,2044,2026,2003,2020,2041,2064
2021,2023,2036,2026,2030,2029,2036,2058
2017,2032,2034,2035,2076,2030,2025,2065
2033,2045,2043,2032,2088,2032,2027,2076
2043,2057,2048,2029,2062,2055,2024,2082
2052,2058,2046,2026,2043,2069,2061,2084
2056,2055,2046,2029,2063,2075,2042,2073
2046,2052,2054,2039,2077,2106,2059,2059
2046,2053,2056,2043,2084,2153,2058,2050
2053,2065,2059,2050,2074,2133,2063,2040
2051,2059,2056,2040,2033,2049,2053,2030
2037,2037,2050,2031,2019,1925,2026,2018
2038,2052,2048,2034,2012,1909,2026,2023
2047,2058,2051,2032,2021,1974,2015,2022
2053,2069,2057,2029,2032,2018,2036,2022
2053,2063,2055,2010,1981,2027,2040,2024
2045,2057,2051,2020,1976,2035,2052,2022
2046,2045,2042,2034,2071,2070,2066,2025
2051,2052,2053,2047,2100,2071,2057,2023
2052,2064,2056,2035,2053,2031,2038,2016
2042,2058,2052,2036,2025,2004,2034,2014
2039,2055,2052,2040,2042,2025,2044,2020
2049,2056,2059,2038,2042,2047,2043,2021
2050,2059,2051,2039,2052,2062,2054,2032
2049,2060,2052,2026,2045,2063,2052,2027
2040,2051,2047,2029,2066,2069,2049,2035
2050,2055,2052,2041,2085,2076,2056,2056
2056,2052,2057,2049,2103,2072,2043,2066
2056,2047,2049,2041,2091,2058,2039,2064
2044,2035,2041,2038,2085,2046,2023,2063
2038,2038,2046,2047,2088,2052,2036,2060
2044,2050,2061,2053,2093,2060,2019,2065
2041,2043,2058,2055,2086,2064,2022,2071
2032,2035,2047,2049,2078,2059,2015,2077
2027,2038,2051,2044,2067,2064,2017,2083
2039,2058,2054,2043,2068,2080,2028,2081
2046,2057,2050,2034,2040,2089,2033,2077
2048,2059,2045,2024,2002,2083,2049,2077
2043,2062,2047,2017,2008,2073,2050,2070
2043,2062,2047,2023,2035,2061,2065,2060
2046,2056,2041,2033,2051,2046,2065,2041
2046,2054,2045,2042,2045,2023,2065,2043
2044,2053,2043,2051,2063,2004,2050,2045
2042,2058,2044,2053,2095,2002,2052,2040
2047,2048,2043,2046,2099,2028,2037,2032
2041,2046,2037,2032,2060,2034,2038,2016
2041,2038,2036,2024,2025,2043,2030,2008
2041,2034,2033,2020,2021,2052,2026,2006
2036,2032,2028,2018,2022,2039,2022,1998
2028,2022,2023,2027,2050,1966,2026,2012
2030,2042,2034,2039,2102,1962,2047,2017
2038,2052,2046,2045,2061,2016,2075,2016
2046,2051,2036,2009,1903,2032,2084,2030
2042,2054,2044,2023,1922,2063,2088,2029
2044,2052,2049,2040,1990,2065,2090,2033
2043,2051,2047,2041,1990,2054,2070,2041
2039,2046,2045,2042,1978,2045,2071,2045
2046,2049,2047,2038,1964,2036,2076,2049
2045,2045,2044,2029,1951,2040,2051,2055
2045,2042,2041,2024,1983,2048,2069,2053
2040,2039,2032,2016,1997,2050,2064,2060
2028,2032,2024,2006,1984,2030,2055,2065
2038,2043,2034,2014,2075,2050,2049,2069
2044,2048,2048,2024,2123,2057,2037,2073
2041,2041,2037,2030,2145,2042,2029,2077
2039,2035,2040,2051,2173,2024,2063,2075
2031,2038,2047,2080,2211,2048,2061,2081
2041,2056,2059,2086,2210,2047,2069,2088
2048,2059,2057,2079,2139,2034,2054,2078
2044,2054,2052,2051,2064,2022,2055,2068
2055,2051,2043,2046,2033,2025,2060,2059
2045,2045,2040,2041,1965,2020,2056,2051
2042,2040,2032,2027,1935,2018,2048,2049
2052,2047,2037,2036,1992,2038,2068,2051
2055,2054,2042,2063,2066,2046,2063,2049
2058,2060,2050,2070,2105,2053,2058,2033
2048,2057,2045,2075,2112,2073,2070,2027
2038,2055,2047,2074,2085,2093,2065,2035
2046,2055,2056,2064,2040,2119,2070,2024
2056,2064,2060,2068,2005,2115,2056,2017
2054,2068,2055,2046,1938,2069,2035,2010
2053,2048,2036,2014,1882,2039,2020,2004
2039,2032,2018,1992,1857,2046,2025,1999
2042,2033,2022,1992,1810,2062,2048,1999
2047,2045,2026,1990,1863,2070,2053,1993
2048,2046,2032,2002,1976,2086,2048,1997
2041,2041,2027,2030,2053,2053,2047,2006
2040,2048,2032,2052,2115,2006,2050,2006
2032,2048,2043,2076,2233,2031,2064,2023
2037,2049,2048,2074,2226,2040,2068,2035
2034,2048,2049,2064,2162,2051,2063,2041
2035,2048,2049,2060,2091,2038,2058,2053
2038,2056,2051,2059,2043,2037,2070,2064
2043,2054,2058,2057,2019,2052,2068,2068
2046,2048,2049,2049,2028,2060,2061,2074
2039,2043,2042,2038,2008,2053,2055,2069
2038,2040,2036,2032,1989,2048,2056,2074
2037,2033,2032,2017,1988,2038,2050,2078
2022,2027,2025,2026,2000,2033,2049,2073
2028,2029,2028,2028,2006,2026,2045,2079
2035,2036,2038,2040,2030,2041,2052,2080
2032,2043,2041,2059,2085,2057,2050,2071
2030,2042,2042,2053,2109,2051,2038,2057
2027,2037,2036,2051,2129,2058,2050,2064
2030,2052,2053,2073,2151,2074,2057,2057
2050,2060,2057,2067,2114,2077,2065,2052
2056,2052,2053,2046,2071,2076,2065,2048
2047,2042,2045,2045,2081,2089,2067,2052
2049,2048,2050,2056,2107,2111,2083,2053
2060,2055,2051,2063,2144,2122,2086,2046
2066,2057,2057,2074,2155,2134,2074,2041
2058,2052,2056,2075,2113,2093,2069,2036
2047,2043,2045,2056,2041,2007,2046,2017
2033,2031,2034,2034,1968,1981,2022,2011
2022,2030,2022,2010,1918,1975,2002,2007
2038,2051,2040,2015,1991,1999,2050,2013
2057,2062,2055,2025,2052,2022,2053,2018
2053,2052,2051,2025,2028,2024,2048,2006
2038,2041,2044,2024,2005,2023,2050,2001
2026,2042,2044,2029,2074,2027,2042,2010
2035,2044,2046,2045,2147,2027,2047,2031
2048,2057,2065,2058,2141,2033,2053,2038
2052,2067,2065,2056,2073,2036,2058,2044
2047,2062,2062,2039,1960,2028,2059,2047
2035,2057,2061,2034,1941,2043,2068,2064
2043,2048,2055,2037,1987,2050,2074,2068
2046,2050,2052,2040,2086,2061,2065,2073
2047,2056,2054,2055,2130,2062,2057,2074
2045,2049,2053,2052,2096,2057,2058,2083
2039,2040,2046,2024,2025,2021,2036,2066
2032,2030,2037,2017,1952,2014,2034,2065
2027,2031,2047,2022,1983,2009,2032,2061
2029,2029,2046,2032,1998,2009,2046,2056
2036,2044,2056,2053,2034,2049,2035,2063
2043,2041,2062,2046,2039,2058,2038,2067
2048,2040,2052,2034,2034,2068,2039,2057
2047,2035,2046,2031,2067,2071,2039,2039
2033,2027,2038,2032,2069,2069,2026,2024
2030,2037,2049,2031,2079,2056,2039,2026
2043,2045,2055,2041,2117,2054,2048,2043
2058,2041,2052,2038,2126,2034,2026,2041
2051,2038,2054,2044,2175,2029,2018,2034
2060,2044,2053,2056,2196,2051,2041,2035
2054,2050,2060,2062,2174,2047,2037,2023
2052,2049,2058,2064,2138,2040,2045,2020
2052,2041,2040,2050,2096,2023,2037,2021
2049,2027,2025,2025,1995,1999,2010,2024
2059,2024,2018,2024,1985,1990,2025,2031
2052,2032,2026,2024,1962,1987,2033,2008
2035,2029,2029,1996,1840,1998,2035,1995
2037,2032,2017,2006,1894,2017,2036,2004
2047,2019,2014,2025,1956,2028,2054,2021
2048,2030,2035,2051,1986,2049,2074,2024
2048,2038,2047,2076,1992,2062,2062,2035
2062,2056,2062,2089,1970,2075,2038,2044
2072,2057,2044,2086,1973,2085,2055,2046
2062,2048,2032,2086,2029,2114,2068,2051
2054,2046,2032,2099,2069,2131,2062,2059
2052,2042,2027,2092,2089,2130,2066,2061
2040,2036,2022,2064,2055,2115,2051,2065
2041,2028,2014,2049,2076,2109,2047,2068
2031,2022,2002,2056,2136,2102,2023,2064
2012,2014,1994,2051,2204,2076,2018,2060
2012,2012,1994,2038,2180,2031,2023,2064
2003,2008,1984,2013,2086,1967,2003,2048
2005,2002,1997,2025,2021,1973,2011,2039
2020,2020,2017,2070,2081,2020,2012,2035
2040,2038,2044,2092,2065,2041,2022,2040
2040,2043,2057,2076,2061,2037,2006,2018
2035,2046,2063,2065,2078,2046,2050,2021
2040,2064,2070,2068,2092,2077,2056,2035
2026,2065,2069,2059,2084,2087,2057,2026
2026,2060,2057,2042,2073,2076,2062,2028
2033,2055,2067,2053,2068,2058,2054,2031
2033,2061,2093,2058,2067,2047,2047,2017
2035,2066,2115,2075,2088,2052,2054,2012
2037,2066,2119,2082,2113,2069,2049,2008
2035,2058,2105,2077,2115,2069,2047,1995
2022,2047,2085,2067,2112,2060,2019,2006
2027,2036,2078,2066,2136,2020,2022,2011
2047,2042,2078,2078,2167,2012,2025,2027
2056,2049,2077,2071,2140,2030,2027,2035
2054,2046,2060,2065,2130,2046,2038,2034
2057,2059,2060,2076,2142,2055,2013,2035
2056,2073,2072,2081,2136,2053,2060,2011
2052,2068,2060,2056,2074,2041,2060,2028
2042,2050,2048,2045,2078,2062,2062,2033
2039,2052,2048,2028,2071,2072,2044,2037
2027,2045,2047,1993,1932,2057,2057,2034
2018,2050,2045,1982,1928,2060,2046,2043
2017,2061,2053,1989,1963,2061,2051,2060
2040,2065,2056,1982,1971,2051,2048,2085
2054,2069,2064,1992,2010,2029,2055,2099
2057,2069,2065,2000,1983,1995,2027,2094
2033,2048,2071,2008,1971,1979,2025,2075
2025,2053,2087,2030,1997,1988,2043,2072
2033,2067,2105,2061,2023,2016,2027,2071
2039,2064,2108,2083,2077,2049,2053,2070
2042,2066,2100,2100,2123,2071,2045,2068
2042,2066,2100,2111,2154,2087,2046,2055
2044,2065,2107,2108,2154,2090,2044,2058
2044,2070,2093,2098,2105,2070,2049,2053
2047,2067,2082,2084,2058,2036,2028,2031
2048,2069,2075,2082,2036,2038,2028,2019
2052,2060,2059,2068,2034,2038,2022,2027
2048,2054,2055,2070,2068,2046,2032,2025
2040,2052,2041,2067,2038,2045,2030,2029
2036,2043,2030,2050,2027,2046,2027,2026
2036,2042,2018,2045,2025,2030,2027,2005
2028,2036,2015,2045,2035,2022,2017,1995
2022,2031,2010,2044,2030,2024,2039,2002
2034,2037,2013,2044,2071,2031,2046,2011
2048,2047,2003,2044,2082,2045,2050,2015
2049,2035,1987,2032,2075,2049,2050,2018
2048,2031,1969,2037,2082,2052,2047,2022
2047,2028,1974,2055,2122,2075,2058,2023
2054,2031,1977,2071,2131,2088,2065,2027
2053,2035,1982,2075,2137,2092,2071,2029
2041,2033,1984,2066,2109,2084,2066,2034
2037,2030,1979,2052,2029,2089,2072,2040
2036,2030,1972,2038,2061,2109,2054,2044
2043,2045,1996,2039,2114,2133,2065,2045
2043,2040,1989,2032,2093,2153,2067,2052
2033,2028,1993,2032,2029,2164,2050,2042
2031,2018,1979,2029,2000,2148,2036,2053
2023,2011,1981,2028,1926,2105,2019,2052
2006,2003,1992,2023,1821,2005,2006,2058
2008,2005,2023,2055,1856,1872,2028,2079
2038,2032,2056,2108,1972,1881,2041,2080
2041,2042,2072,2131,2042,1953,2051,2068
2032,2036,2074,2133,2083,2012,2041,2055
2026,2037,2073,2119,2117,2031,2020,2043
2021,2018,2062,2091,2064,2002,2014,2047
2035,2038,2076,2091,2087,2009,2020,2040
2056,2063,2097,2101,2146,2031,2016,2031
2060,2057,2079,2087,2148,2041,2033,2025
2059,2055,2086,2090,2144,2046,2055,2025
2051,2053,2095,2098,2132,2045,2058,2020
2039,2055,2100,2089,2047,2025,2054,2013
2044,2048,2091,2068,2019,2033,2051,2015
2043,2048,2084,2057,2053,2067,2064,2016
2060,2044,2066,2042,2002,2069,2058,2021
2051,2027,2051,1996,1918,2045,2053,2001
2029,2031,2047,1977,1946,2040,2060,2015
2032,2046,2050,1970,1982,2021,2077,2018
2030,2036,2044,1954,2016,2028,2066,2023
2034,2048,2063,1969,2056,2040,2064,2027
2042,2066,2082,2006,2092,2048,2073,2035
2052,2083,2088,2026,2101,2043,2043,2047
2068,2093,2105,2032,2083,2027,2039,2050
2068,2090,2105,2044,2074,2009,2032,2050
2051,2074,2108,2040,2064,2002,2014,2041
2038,2063,2118,2055,2092,2045,2027,2035
2038,2071,2126,2077,2099,2087,2071,2040
2047,2069,2123,2072,2074,2097,2064,2061
2054,2066,2106,2074,2056,2113,2030,2074
2058,2060,2087,2069,2036,2097,2033,2074
2055,2050,2092,2074,2028,2039,2026,2084
2050,2046,2099,2084,2036,2012,2022,2076
2046,2049,2096,2090,2043,2022,2023,2075
2045,2048,2091,2085,2045,2033,2032,2065
2046,2040,2073,2082,2046,2036,2033,2062
2038,2051,2075,2110,2071,2028,2037,2069
2055,2070,2086,2129,2077,2022,2060,2068
2060,2079,2088,2130,2060,2007,2021,2050
2054,2076,2061,2132,2058,2002,2043,2039
2044,2061,2040,2112,2034,1996,2046,2027
2030,2049,2025,2097,2043,2012,2056,2025
2036,2043,2012,2084,2048,2033,2057,2022
2040,2040,1995,2052,2072,2040,2039,2024
2039,2035,1973,2032,2075,2042,2052,2018
2036,2028,1959,2015,2082,2048,2033,2010
2025,2026,1943,2002,2072,2045,2047,1992
2024,2024,1953,2027,2092,2058,2042,1993
2031,2032,1969,2060,2081,2060,2034,1987
2027,2039,1973,2078,2074,2056,2061,1994
2041,2045,1964,2079,2086,2065,2056,1997
2036,2031,1946,2060,2082,2072,2054,2008
2032,2028,1954,2033,2056,2066,2046,2018
2045,2041,1966,2005,2020,2057,2049,2030
2050,2036,1983,1984,2024,2057,2050,2039
2055,2041,1998,1968,2045,2063,2053,2034
2051,2047,2020,1965,2051,2041,2043,2042
2041,2047,2028,1963,2023,2002,2037,2038
2032,2044,2046,1980,2010,1990,2036,2041
2034,2046,2083,2008,2017,2003,2025,2059
2042,2047,2117,2042,2056,2027,2013,2064
2036,2040,2107,2052,2067,2032,2012,2064
2036,2039,2108,2043,2066,2025,2033,2069
2039,2047,2114,2051,2101,2033,2023,2070
2033,2046,2099,2046,2076,2020,2018,2050
2010,2042,2090,2056,2037,2009,2018,2038
2013,2054,2088,2076,2036,2014,2003,2058
2034,2061,2083,2069,2034,2016,2045,2073
2052,2051,2064,2058,2028,2028,2049,2074
2053,2052,2047,2048,2024,2040,2055,2055
2039,2056,2038,2050,2057,2058,2048,2052
2044,2045,2028,2071,2110,2080,2054,2040
2048,2049,2029,2075,2160,2087,2061,2041
2049,2042,2013,2075,2198,2084,2063,2034
2058,2039,2010,2057,2192,2064,2062,2026
2051,2027,1993,2031,2087,2024,2051,2022
2040,2018,1975,2011,2002,2017,2054,2018
2044,2018,1973,2013,1994,2027,2056,2015
2044,2025,2003,2045,2007,2048,2056,2023
2053,2039,2054,2083,2000,2060,2071,2027
2068,2049,2093,2101,1990,2043,2046,2008
2038,2027,2094,2101,1962,2028,2034,1985
2032,2047,2111,2111,1960,2036,2058,2007
2038,2063,2117,2125,1965,2054,2066,2007
2037,2065,2105,2133,1983,2060,2070,2007
2045,2070,2093,2128,1995,2040,2058,2005
2044,2074,2078,2123,2066,2033,2047,2015
2039,2060,2042,2123,2158,2049,2041,2023
2050,2068,2037,2133,2147,2062,2032,2035
2052,2082,2039,2129,2101,2059,2031,2034
2052,2081,2036,2127,2094,2065,2038,2047
2058,2084,2060,2111,2085,2050,2041,2050
2055,2090,2075,2090,2101,2034,2047,2060
2060,2078,2074,2056,2082,2022,2030,2065
2044,2064,2066,2008,2048,2017,2019,2060
2039,2059,2074,1982,2040,2024,2007,2062
2037,2061,2077,1956,2034,2027,2032,2069
2033,2051,2065,1942,2023,2032,2023,2077
2030,2052,2084,1958,2030,2038,2048,2086
2048,2068,2102,1975,2042,2045,2068,2097
2058,2069,2094,1998,2051,2052,2062,2094
2055,2069,2079,2020,2070,2057,2043,2084
2053,2064,2069,2027,2073,2062,2031,2069
2050,2073,2067,2033,2067,2062,2047,2063
2054,2062,2058,2034,2068,2062,2060,2057
2058,2061,2052,2034,2066,2062,2062,2054
2062,2058,2049,2029,2069,2060,2058,2049
2068,2058,2031,2031,2071,2052,2069,2030
2056,2052,2030,2038,2062,2046,2072,2027
2062,2050,2033,2048,2051,2036,2061,2039
2074,2041,2031,2058,2049,2040,2064,2044
2084,2037,2028,2066,2050,2046,2066,2034
2078,2024,2015,2058,2057,2046,2061,2011
2061,2010,2004,2060,2042,2033,2049,1996
2040,2012,2024,2084,2050,2042,2061,1987
2021,2030,2062,2103,2067,2043,2040,1980
2017,2031,2061,2120,2076,2051,2063,1993
2032,2037,2064,2129,2084,2058,2065,2010
2029,2039,2054,2131,2087,2057,2067,2009
2037,2046,2043,2133,2087,2051,2059,2026
2044,2057,2044,2139,2089,2059,2069,2027
2043,2052,2044,2141,2088,2061,2066,2032
2045,2051,2039,2141,2081,2059,2069,2046
2045,2042,2022,2109,2064,2054,2067,2050
2037,2032,2011,2077,2046,2048,2071,2054
2029,2028,2020,2052,2038,2047,2060,2053
2033,2044,2032,2041,2050,2062,2064,2061
2032,2054,2050,2034,2058,2071,2064,2068
2036,2061,2056,2017,2045,2064,2064,2070
2040,2043,2022,1987,2024,2047,2057,2081
2035,2025,2004,1966,2011,2047,2051,2083
2030,2012,2005,1961,2019,2060,2033,2080
2039,2031,2049,1977,2030,2060,2057,2069
2039,2066,2099,2002,2039,2052,2054,2061
2043,2083,2118,2012,2043,2070,2059,2069
2058,2093,2122,2033,2055,2068,2077,2071
2056,2098,2108,2040,2055,2017,2066,2050
2045,2082,2088,2041,2052,1990,2061,2045
2044,2065,2067,2041,2048,1998,2055,2044
2046,2064,2063,2044,2040,2014,2055,2042
2042,2055,2057,2051,2040,2026,2065,2033
2040,2050,2058,2069,2046,2020,2058,2016
2035,2052,2059,2079,2040,2018,2059,2015
2042,2049,2065,2078,2050,2029,2051,2017
2039,2049,2068,2079,2050,2039,2055,2013
2039,2030,2049,2066,2051,2042,2055,2005
2036,2030,2037,2065,2049,2044,2066,2013
2039,2033,2037,2074,2054,2044,2047,2011
2037,2035,2029,2068,2055,2042,2057,2017
2040,2037,2023,2068,2053,2045,2046,2016
2041,2032,2025,2061,2057,2033,2047,2020
2035,2032,2027,2062,2054,2035,2060,2027
2049,2046,2048,2078,2062,2046,2056,2045
2055,2062,2067,2083,2062,2042,2057,2055
2057,2057,2057,2069,2055,2038,2038,2051
2054,2052,2046,2054,2055,2040,2044,2056
2044,2044,2047,2044,2047,2041,2038,2058
2051,2053,2057,2043,2064,2044,2038,2061
2049,2056,2055,2033,2070,2039,2045,2061
2032,2052,2053,2021,2056,2034,2038,2059
2035,2043,2054,2014,2053,2028,2034,2065
2033,2021,2038,2010,2041,2022,2039,2077
2034,2034,2066,2031,2057,2036,2031,2088
2045,2056,2087,2058,2062,2048,2044,2091
2033,2053,2082,2061,2065,2039,2050,2088
2036,2057,2074,2065,2060,2037,2049,2086
2039,2049,2071,2076,2057,2024,2039,2080
2039,2048,2064,2072,2053,2010,2033,2066
2035,2052,2068,2075,2060,2017,2040,2065
2050,2068,2074,2085,2087,2022,2050,2063
2055,2079,2076,2093,2098,2032,2041,2045
2060,2076,2053,2105,2120,2035,2035,2036
2056,2071,2033,2113,2125,2034,2031,2024
2049,2055,2011,2108,2131,2050,2025,2023
2050,2048,1998,2108,2132,2078,2028,2016
2041,2048,1981,2111,2138,2121,2049,2018
2047,2044,1971,2101,2106,2118,2040,2007
2042,2029,1959,2076,2020,2079,2037,2003
2029,2022,1963,2066,2018,2060,2052,2002
2028,2022,1984,2073,2025,2058,2046,1998
2020,2024,1998,2066,2008,2052,2026,2002
2024,2028,2006,2061,2001,2042,2034,2011
2036,2030,2020,2046,2007,2052,2039,2028
2047,2042,2023,2037,2043,2061,2046,2034
2048,2045,2034,2034,2072,2064,2044,2042
2050,2058,2050,2036,2024,2057,2026,2039
2042,2064,2082,2044,2028,2041,2042,2043
2047,2069,2107,2054,2033,2035,2032,2045
2046,2067,2112,2061,2026,2030,2034,2048
2039,2056,2113,2060,2017,2034,2031,2063
2035,2059,2114,2058,2004,2033,2040,2073
2037,2061,2110,2054,2000,2030,2033,2078
2044,2062,2101,2049,2004,2016,2035,2084
2033,2045,2086,2031,2037,2015,2027,2082
2027,2064,2090,2047,2077,2033,2025,2083
2039,2079,2089,2051,2067,2043,2039,2095
2056,2081,2084,2042,2055,2046,2055,2098
2065,2084,2073,2039,2053,2046,2040,2090
2065,2077,2059,2039,2054,2050,2052,2080
2057,2066,2046,2044,2052,2065,2026,2065
2056,2052,2042,2041,2041,2077,2024,2051
2040,2046,2044,2040,2029,2075,2015,2037
2039,2054,2041,2038,2028,2074,2040,2038
2050,2063,2049,2039,2031,2063,2021,2040
2058,2070,2044,2049,2040,2014,1999,2044
2068,2063,2052,2057,2052,1994,2022,2044
2068,2057,2050,2052,2040,2010,2025,2041
2072,2058,2044,2050,2041,2025,2026,2038
2068,2049,2037,2046,2036,2028,2018,2035
2070,2046,2031,2036,2018,2017,2014,2028
2062,2034,2026,2033,2012,2016,2023,2011
2062,2031,2039,2042,2040,2023,2022,2005
2047,2038,2045,2050,2057,2034,2030,2005
2037,2030,2044,2046,2059,2036,2046,2009
2029,2034,2052,2064,2087,2053,2064,2019
2030,2050,2074,2085,2098,2062,2067,2033
2046,2072,2083,2086,2096,2060,2073,2040
2056,2074,2088,2082,2091,2057,2068,2040
2058,2066,2084,2080,2080,2046,2057,2052
2048,2066,2082,2078,2075,2040,2051,2053
2050,2065,2095,2082,2065,2033,2058,2054
2054,2073,2100,2079,2054,2022,2036,2064
2052,2064,2088,2075,2044,2018,2037,2077
2044,2056,2076,2066,2032,2017,2026,2078
2035,2047,2064,2055,2034,2024,2021,2062
2024,2041,2052,2053,2044,2052,2033,2073
2037,2047,2054,2059,2059,2071,2034,2080
2045,2053,2062,2066,2065,2088,2040,2081
2045,2057,2064,2074,2062,2073,2050,2081
2044,2066,2059,2067,2061,2048,2044,2085
2049,2065,2054,2063,2033,2051,2068,2079
2048,2057,2047,2048,1991,2048,2060,2070
2040,2051,2047,2039,1954,2038,2042,2064
2044,2049,2049,2026,1945,2029,2029,2054
2045,2056,2058,2030,1985,2025,2045,2045
2051,2064,2060,2039,2040,2040,2053,2041
2055,2065,2067,2059,2128,2074,2076,2049
2065,2068,2084,2090,2197,2107,2097,2056
2075,2070,2091,2102,2236,2130,2102,2041
2063,2075,2093,2116,2239,2133,2089,2031
2058,2072,2096,2106,2200,2105,2076,2027
2054,2068,2092,2096,2070,2048,2047,2021
2054,2056,2075,2082,2023,2011,2026,2018
2050,2049,2062,2085,2029,2000,2022,2007
2044,2045,2069,2081,1994,1993,2036,2012
2050,2043,2056,2072,1916,1988,2030,2013
2042,2041,2046,2055,1874,1983,2017,1999
2036,2033,2047,2050,1922,1999,2037,1998
2031,2030,2056,2083,2005,2035,2038,2008
2035,2035,2061,2114,2067,2054,2053,2027
2047,2041,2064,2127,2095,2075,2077,2036
2045,2041,2049,2123,2099,2086,2073,2040
2036,2034,2037,2112,2086,2073,2079,2045
2031,2032,2027,2100,2083,2067,2080,2051
2041,2031,2024,2098,2080,2061,2081,2061
2045,2029,2023,2097,2077,2047,2062,2071
2045,2026,2016,2085,2077,2036,2053,2073
2050,2028,2023,2080,2075,2033,2026,2084
2054,2026,2018,2064,2062,2024,2025,2067
2037,2007,2006,2043,2057,2022,2022,2059
2018,2003,2008,2020,2049,2025,2029,2071
2030,2018,2022,2024,2040,2033,2024,2075
2032,2032,2028,2028,2048,2033,1999,2068
2032,2029,2031,2028,2043,2032,2021,2070
2041,2037,2034,2028,2043,2038,2036,2060
2055,2053,2042,2044,2052,2035,2022,2057
2053,2070,2049,2051,2047,2035,2047,2063
2059,2067,2061,2043,2039,2028,2051,2056
2056,2062,2063,2033,2031,2016,2043,2048
2061,2065,2072,2040,2039,2025,2042,2044
2072,2073,2090,2057,2049,2035,2056,2040
2073,2078,2095,2059,2047,2036,2050,2039
2064,2075,2088,2054,2045,2046,2053,2040
2067,2075,2087,2054,2062,2055,2053,2040
2066,2072,2089,2060,2057,2052,2051,2034
2066,2065,2080,2056,2059,2039,2073,2025
2057,2055,2077,2066,2058,2040,2063,2026
2062,2061,2088,2083,2059,2042,2052,2036
2068,2066,2081,2076,2046,2041,2060,2034
2065,2060,2071,2068,2021,2032,2059,2039
2071,2055,2058,2061,2025,2033,2067,2039
2061,2051,2047,2052,2029,2032,2053,2031
2047,2042,2048,2050,2030,2028,2045,2022
2043,2044,2048,2043,2026,2025,2029,2033
2042,2049,2040,2034,2030,2040,2048,2041
2046,2054,2043,2028,2032,2042,2040,2056
2060,2051,2038,2016,2028,2061,2057,2062
2052,2051,2032,2025,2039,2068,2036,2079
2054,2051,2049,2033,2049,2070,2054,2079
2052,2053,2058,2038,2059,2072,2030,2089
2053,2054,2053,2043,2049,2070,2066,2088
2057,2052,2053,2044,2050,2068,2037,2092
2051,2045,2049,2039,2047,2068,2052,2088
2051,2043,2045,2043,2048,2061,2050,2089
2058,2047,2042,2050,2047,2063,2048,2091
2062,2043,2039,2043,2047,2061,2030,2079
2055,2040,2041,2044,2043,2060,2055,2075
2047,2046,2042,2050,2044,2050,2040,2071
2055,2054,2045,2047,2033,2045,2022,2060
2058,2053,2048,2054,2026,2042,2044,2050
2053,2052,2047,2053,2011,2035,2028,2041
2049,2052,2043,2046,1997,2035,2010,2038
2056,2055,2049,2039,2000,2036,2029,2037
2062,2056,2053,2043,1995,2053,2020,2029
2059,2062,2055,2045,2002,2060,2022,2028
2063,2061,2052,2047,2002,2052,2048,2020
2061,2062,2059,2056,2010,2062,2054,2021
2064,2058,2054,2053,2033,2040,2027,2012
2053,2042,2042,2057,2079,2041,2032,2006
2049,2039,2048,2061,2116,2073,2042,2023
2060,2051,2050,2063,2083,2089,2056,2029
2063,2045,2056,2064,2076,2084,2066,2036
2060,2048,2049,2063,2069,2076,2068,2035
2059,2046,2046,2062,2076,2066,2085,2036
2050,2042,2043,2064,2087,2053,2072,2039
2051,2043,2042,2062,2086,2030,2055,2053
2057,2045,2042,2067,2080,2013,2073,2062
2063,2044,2042,2059,2075,1991,2081,2067
2057,2045,2043,2066,2080,1990,2086,2079
2064,2054,2057,2062,2067,1989,2099,2086
2064,2053,2053,2054,2049,2008,2085,2081
2064,2048,2043,2054,2044,2037,2058,2080
2057,2047,2040,2056,2031,2060,2048,2070
2050,2039,2037,2049,2009,2079,2034,2063
2038,2027,2031,2025,1978,2083,2010,2075
2031,2024,2027,2021,1980,2036,2036,2079
2040,2035,2039,2024,2001,1979,2012,2085
2047,2039,2033,2033,2015,2008,2002,2076
2043,2029,2037,2035,2022,2075,2031,2073
2062,2040,2039,2044,2034,2110,2051,2073
2061,2038,2031,2041,2016,2060,2045,2055
2056,2029,2025,2043,2022,2018,2047,2050
2055,2033,2035,2065,2046,1999,2059,2048
2059,2035,2040,2057,2042,2013,2066,2041
2056,2037,2033,2044,2025,2016,2063,2025
2041,2033,2024,2033,2022,2027,2056,2016
2046,2031,2028,2032,2034,2034,2055,2018
2060,2043,2035,2046,2057,2059,2064,2010
2059,2046,2041,2049,2061,2053,2062,1993
2050,2043,2043,2046,2035,2034,2034,1991
2037,2032,2029,2042,2018,2008,2038,1998
2034,2032,2036,2044,2015,1987,2024,2019
2040,2053,2059,2053,2019,2001,2017,2025
2050,2069,2070,2061,2025,2007,2024,2021
2059,2081,2074,2062,2029,2016,2029,2027
2059,2068,2062,2060,2043,2007,2012,2034
2060,2059,2047,2046,2043,1998,2023,2030
2051,2053,2046,2040,2038,2009,2016,2031
2046,2060,2064,2054,2060,2030,2041,2030
2046,2054,2068,2052,2050,2020,2047,2034
2039,2052,2053,2050,2028,2005,2057,2037
2038,2044,2042,2038,2013,2001,2054,2040
2038,2037,2040,2034,2016,2016,2064,2052
2041,2046,2047,2042,2053,2047,2065,2067
2050,2056,2055,2068,2084,2056,2086,2093
2054,2050,2050,2069,2084,2053,2066,2087
2047,2041,2034,2048,2083,2044,2042,2086
2042,2031,2032,2050,2091,2047,2062,2086
2048,2046,2045,2055,2075,2054,2068,2080
2045,2044,2036,2055,2067,2062,2061,2080
2054,2045,2029,2056,2048,2067,2064,2077
2055,2041,2026,2047,2026,2078,2044,2064
2062,2040,2028,2039,1980,2107,2054,2064
2062,2041,2028,2052,2003,2120,2062,2058
2059,2041,2044,2060,1998,2086,2053,2046
2059,2041,2047,2065,1994,1999,2028,2041
2054,2046,2050,2054,1994,2010,2019,2031
2053,2045,2049,2059,2023,2063,2022,2026
2043,2042,2049,2052,2032,2089,2033,2025
2044,2054,2058,2054,2018,2086,2055,2022
2040,2052,2052,2040,2022,2080,2056,2017
2046,2048,2049,2045,2072,2085,2049,2019
2043,2041,2044,2059,2096,2059,2056,2015
2057,2047,2061,2072,2130,2049,2058,2021
2061,2064,2071,2082,2132,2062,2043,2028
2055,2056,2065,2069,2094,2064,2041,2022
2045,2055,2059,2059,2073,2070,2058,2025
2049,2055,2058,2063,2084,2077,2056,2026
2042,2051,2050,2051,2080,2082,2069,2033
2045,2049,2046,2042,2074,2066,2065,2044
2046,2044,2044,2037,2092,2047,2080,2051
2058,2050,2040,2044,2099,2016,2068,2055
2054,2044,2034,2041,2083,2006,2063,2067
2058,2039,2028,2043,2070,2004,2051,2070
2054,2044,2032,2052,2074,2028,2049,2073
2053,2043,2038,2056,2077,2053,2045,2078
2048,2047,2039,2054,2062,2063,2045,2084
2051,2053,2042,2047,2039,2061,2040,2081
2054,2053,2037,2039,2038,2044,2036,2076
2041,2036,2029,2040,2081,2056,2027,2080
2039,2037,2041,2058,2124,2076,2031,2091
2045,2050,2046,2068,2113,2077,2045,2090
2049,2043,2051,2058,2115,2051,2056,2076
2050,2042,2042,2047,2110,2040,2026,2065
2049,2038,2034,2044,2110,2048,2059,2055
2046,2038,2040,2041,2087,2048,2060,2062
2049,2048,2042,2046,2058,2031,2047,2054
2056,2058,2058,2054,2055,2026,2060,2051
2065,2058,2057,2051,2037,2026,2033,2051
2068,2059,2054,2045,1993,2023,2044,2050
2064,2058,2056,2043,1891,2020,2033,2038
2058,2059,2055,2041,1895,2020,2042,2028
2057,2057,2053,2048,1957,2026,2033,2020
2064,2051,2047,2050,1988,2050,2044,2016
2055,2049,2046,2046,2013,2067,2058,2018
2048,2043,2041,2046,2029,2072,2049,2019
2052,2039,2040,2045,2046,2084,2049,2027
2055,2051,2045,2044,2033,2091,2080,2023
2051,2047,2040,2037,2003,2098,2066,2026
2051,2049,2039,2028,1983,2091,2056,2024
2049,2046,2040,2020,1950,2063,2047,2025
2042,2045,2033,2016,1909,2019,2032,2031
2046,2043,2038,2016,1905,1955,2045,2045
2049,2041,2036,2028,1940,1930,2035,2059
2051,2047,2045,2051,2010,1981,2054,2073
2064,2066,2058,2075,2069,2040,2044,2077
2068,2066,2065,2082,2107,2075,2064,2081
2063,2059,2058,2081,2113,2088,2071,2094
2057,2052,2050,2067,2087,2071,2068,2087
2054,2049,2044,2067,2082,2064,2063,2090
2053,2049,2045,2065,2094,2058,2061,2098
2050,2047,2041,2055,2090,2055,2055,2099
2051,2040,2040,2059,2085,2059,2079,2103
2063,2050,2048,2067,2103,2056,2072,2109
2061,2051,2043,2066,2116,2062,2079,2102
2060,2056,2044,2060,2110,2056,2078,2092
2059,2050,2040,2056,2082,2055,2036,2079
2052,2049,2038,2045,2032,2045,2029,2061
2053,2044,2030,2019,1926,2033,2032,2058
2054,2038,2035,2028,1958,2040,2047,2049
2059,2045,2040,2034,1996,2047,2061,2056
2061,2044,2036,2043,2033,2057,2058,2055
2061,2050,2039,2052,2060,2069,2057,2050
2052,2043,2043,2052,2050,2072,2048,2030
2041,2044,2048,2061,2056,2087,2055,2025
2047,2051,2055,2065,2060,2082,2056,2023
2056,2053,2059,2070,2064,2073,2044,2026
2046,2047,2046,2064,2059,2051,2032,2020
2046,2047,2044,2061,2056,2041,2038,2036
2055,2054,2056,2070,2061,2054,2068,2041
2065,2052,2059,2071,2060,2059,2062,2041
2060,2046,2052,2063,2060,2057,2046,2026
2042,2039,2036,2057,2061,2057,2039,2024
2037,2036,2032,2056,2063,2049,2050,2036
2036,2025,2031,2050,2051,2054,2064,2038
2038,2038,2039,2052,2048,2057,2070,2053
2051,2051,2041,2058,2059,2051,2048,2057
2058,2052,2033,2048,2051,2046,2049,2062
2057,2060,2040,2048,2047,2033,2037,2059
2063,2067,2040,2049,2043,2020,2039,2057
2047,2062,2036,2038,2024,2012,2033,2064
2033,2043,2018,2024,2010,2010,2015,2078
2032,2026,2012,2017,2016,2011,2044,2086
2037,2027,2013,2014,2029,2020,2041,2092
2038,2025,2017,2023,2063,2032,2040,2091
2042,2043,2021,2026,2063,2043,2049,2088
2049,2036,2016,2033,2044,2043,2046,2090
2050,2041,2018,2037,2032,2036,2042,2087
2057,2041,2022,2034,2033,2039,2061,2084
2061,2049,2021,2037,2040,2071,2044,2081
2060,2041,2018,2029,2026,2074,2036,2071
2056,2035,2012,2023,2024,2079,2048,2075
2060,2041,2020,2024,1990,2074,2062,2083
2069,2041,2029,2010,1913,2058,2074,2068
2070,2048,2023,2016,1935,2048,2061,2057
2061,2045,2023,2025,2002,2015,2057,2041
2051,2040,2015,2028,2035,2008,2032,2028
2055,2040,2029,2033,2062,2009,2028,2022
2056,2050,2044,2037,2068,1998,2020,2025
2055,2055,2050,2045,2060,1995,2013,2012
2042,2042,2044,2045,2057,2008,2015,2006
2045,2052,2041,2049,2088,2062,2038,2018
2064,2062,2055,2056,2089,2092,2052,2024
2069,2063,2062,2047,2064,2128,2077,2028
2064,2060,2063,2044,2053,2123,2072,2033
2059,2060,2063,2043,2063,2072,2062,2029
2056,2050,2048,2044,2054,2051,2043,2025
2046,2043,2038,2040,2058,2058,2050,2027
2045,2037,2034,2042,2054,2065,2062,2040
2048,2035,2026,2035,2061,2064,2058,2043
2045,2029,2026,2043,2060,2062,2029,2055
2039,2027,2046,2055,2056,2057,2032,2061
2047,2036,2053,2062,2061,2051,2036,2064
2046,2044,2053,2068,2064,2045,2028,2074
2051,2048,2049,2069,2068,2041,2029,2093
2054,2043,2040,2067,2065,2057,2031,2098
2052,2034,2019,2058,2050,2061,2038,2086
2038,2030,2010,2050,2052,2051,2009,2091
2038,2032,2018,2051,2050,2060,2017,2087
2042,2031,2012,2048,2039,2067,2039,2080
2046,2031,2009,2041,2042,2061,2035,2078
2055,2034,2017,2044,2039,2047,2021,2067
2051,2030,2022,2035,2039,2042,2022,2060
2043,2033,2020,2025,2030,2039,2021,2053
2043,2028,2013,2014,2026,2040,2024,2053
2050,2033,2014,2013,2031,2045,2034,2051
2062,2042,2028,2018,2033,2043,2025,2048
2063,2050,2058,2025,2039,2023,2029,2040
2066,2060,2067,2023,2030,2030,2043,2035
2068,2059,2063,2022,2000,2023,2039,2022
2066,2052,2062,2019,2008,2029,2026,2030
2063,2050,2054,2026,1986,2035,2054,2029
2066,2052,2045,2024,1985,2036,2059,2033
2065,2046,2042,2020,1977,2027,2049,2027
2054,2041,2031,2011,1986,2051,2039,2030
2052,2042,2038,2038,2038,2088,2070,2038
2059,2057,2066,2061,2091,2110,2075,2040
2067,2059,2059,2049,2083,2109,2073,2045
2055,2049,2055,2044,2118,2148,2083,2046
2060,2056,2060,2049,2113,2161,2079,2047
2060,2055,2061,2047,2088,2116,2064,2047
2053,2046,2051,2036,2070,2059,2053,2054
2044,2040,2062,2036,2054,2065,2058,2053
2046,2042,2074,2036,2033,2038,2033,2057
2050,2043,2077,2040,2055,2037,2030,2068
2050,2044,2086,2050,2058,2051,2057,2080
2044,2048,2082,2047,2047,2058,2058,2091
2060,2058,2086,2057,2041,2050,2054,2096
2059,2062,2100,2066,2050,2030,2054,2093
2042,2048,2090,2065,2045,2023,2019,2091
2046,2050,2082,2062,2039,2039,2033,2090
2048,2055,2070,2055,1993,2063,2043,2080
2048,2046,2066,2042,1965,2072,2042,2071
2047,2052,2077,2051,1941,2082,2041,2063
2042,2057,2075,2045,1928,2074,2013,2058
2043,2047,2075,2055,1946,1996,2014,2070
2062,2067,2088,2093,2025,1937,2026,2079
2070,2071,2084,2090,2055,1973,2051,2078
2061,2063,2075,2078,2075,2021,2038,2062
2059,2063,2060,2073,2080,2062,2056,2052
2052,2056,2062,2064,2068,2065,2056,2041
2051,2055,2063,2053,2091,2063,2038,2034
2059,2064,2057,2046,2125,2067,2053,2032
2059,2061,2047,2050,2114,2068,2048,2022
2054,2052,2031,2034,2095,2056,2045,2007
2049,2033,2015,2006,2071,2031,2021,2008
2041,2031,2011,1994,2056,2027,2027,2011
2043,2035,2008,1994,2058,2037,2039,2010
2044,2027,2008,1982,2061,2039,2025,2017
2031,2032,2017,1998,2060,2047,2064,2014
2040,2044,2027,2017,2074,2068,2079,2028
2051,2052,2038,2028,2079,2082,2080,2030
2050,2054,2051,2041,2108,2087,2066,2041
2048,2063,2059,2060,2121,2088,2068,2042
2056,2058,2068,2060,2125,2082,2071,2052
2060,2062,2065,2054,2107,2079,2078,2066
2067,2054,2054,2035,2054,2075,2092,2076
2061,2052,2046,2026,2007,2072,2091,2086
2068,2052,2044,2023,2024,2064,2081,2099
2061,2054,2046,2022,2044,2063,2078,2096
2060,2052,2047,2027,2057,2059,2078,2094
2042,2040,2043,2032,2053,2056,2055,2078
2032,2033,2040,2033,2047,2054,2065,2082
2039,2041,2053,2038,2039,2056,2070,2089
2043,2048,2054,2041,2040,2060,2063,2085
2047,2055,2054,2040,2032,2065,2060,2076
2044,2046,2051,2035,2023,2069,2059,2067
2053,2048,2046,2033,2036,2078,2057,2056
2046,2053,2045,2040,2045,2085,2041,2049
2058,2056,2044,2039,2033,2071,2047,2047
2061,2059,2051,2048,2033,2016,2044,2052
2065,2062,2054,2056,2041,2003,2031,2048
2063,2058,2059,2058,2038,2015,2018,2046
2067,2061,2047,2056,2028,2027,2027,2034
2060,2059,2042,2051,2028,2034,2029,2028
2066,2056,2030,2054,2031,2047,2046,2025
2062,2055,2021,2056,2040,2052,2044,2029
2059,2049,2012,2056,2033,2050,2040,2016
2062,2033,2011,2055,2040,2049,2046,2019
2074,2039,2014,2058,2076,2056,2059,2011
2077,2047,2027,2067,2111,2060,2050,2023
2070,2046,2039,2076,2119,2056,2061,2029
2074,2052,2047,2081,2102,2044,2056,2028
2072,2052,2052,2068,2065,2028,2049,2023
2066,2043,2043,2056,2027,2013,2050,2019
2056,2038,2035,2042,2006,2011,2041,2026
2042,2034,2035,2033,1992,2036,2050,2041
2049,2043,2055,2047,1967,2070,2073,2066
2066,2059,2069,2058,1925,2084,2068,2081
2074,2057,2069,2060,2007,2096,2067,2089
2073,2057,2063,2064,2070,2100,2054,2090
2062,2052,2066,2067,2101,2073,2072,2095
2062,2063,2075,2072,2118,2063,2072,2095
2060,2057,2088,2076,2110,2046,2071,2088
2044,2045,2078,2063,2090,2034,2061,2088
2045,2051,2091,2060,2070,2027,2059,2096
2057,2061,2087,2047,2006,2012,2033,2100
2058,2059,2074,2033,1994,2017,2035,2091
2060,2050,2056,2024,1984,2016,2044,2073
2053,2052,2048,2016,1993,2027,2042,2074
2056,2052,2043,2019,2015,2028,2043,2064
2063,2056,2049,2025,2046,2038,2054,2055
2064,2060,2047,2035,2058,2058,2063,2046
2061,2047,2040,2035,2056,2070,2050,2043
2057,2043,2039,2032,2044,2067,2059,2028
2056,2042,2043,2032,2031,2063,2050,2025
2053,2045,2034,2038,2028,2056,2038,2025
2055,2045,2038,2037,2016,2048,2048,2023
2057,2050,2042,2040,2013,2047,2046,2014
2049,2046,2032,2033,2007,2022,2031,2002
2039,2029,2018,2007,1981,2012,2024,2003
2030,2022,2011,2006,2008,2042,2030,2010
2041,2038,2019,2014,2052,2063,2036,2011
2042,2038,2023,2017,2057,2066,2033,2019
2045,2034,2028,2022,2085,2072,2015,2020
2045,2029,2027,2034,2106,2040,2026,2029
2048,2026,2033,2041,2125,2034,2020,2036
2049,2032,2033,2052,2140,2044,2033,2037
2057,2047,2040,2055,2127,2062,2055,2047
2060,2046,2044,2056,2134,2076,2049,2050
2058,2046,2035,2050,2124,2082,2048,2057
2052,2035,2026,2044,2098,2067,2060,2062
2050,2031,2031,2035,2059,2048,2046,2068
2048,2034,2030,2016,1926,2022,2053,2082
2058,2031,2024,2016,1900,2022,2039,2096
2056,2033,2022,2025,1950,2034,2042,2096
2049,2032,2017,2038,1994,2040,2051,2088
2036,2024,2013,2033,2040,2036,2032,2073
2041,2036,2029,2049,2058,2023,2063,2071
2056,2045,2035,2052,2062,2028,2069,2067
2055,2043,2029,2043,2049,2032,2060,2057
2042,2027,2015,2034,2019,2042,2050,2051
2048,2028,2022,2031,1996,2041,2061,2051
2059,2038,2025,2032,1992,2042,2052,2049
2072,2040,2033,2039,1997,2047,2058,2047
2065,2048,2046,2045,1996,2044,2043,2051
2070,2068,2056,2052,2006,2039,2025,2044
2061,2070,2061,2044,2001,2031,2048,2056
2065,2073,2061,2043,1977,2031,2059,2044
2064,2064,2058,2035,1986,2045,2039,2036
2054,2047,2055,2035,2016,2051,2028,2033
2046,2046,2050,2032,2029,2045,2039,2020
2041,2036,2040,2024,2041,2038,1996,2011
2032,2023,2038,2031,2058,2057,2032,2012
2032,2031,2045,2038,2073,2074,2037,2014
2039,2034,2045,2038,2088,2079,2045,2017
2039,2028,2046,2038,2082,2078,2055,2025
2047,2032,2047,2032,2099,2087,2050,2035
2049,2032,2051,2040,2134,2100,2044,2044
2049,2025,2042,2043,2132,2111,2063,2042
2047,2034,2048,2045,2124,2117,2075,2047
2053,2044,2056,2047,2113,2099,2070,2062
2061,2047,2047,2035,2028,2029,2066,2064
2060,2045,2047,2027,1998,1989,2061,2071
2047,2037,2044,2033,2005,1989,2046,2071
2046,2030,2042,2039,2011,2001,2067,2080
2043,2031,2044,2042,2024,2012,2053,2084
2037,2031,2053,2053,2032,2029,2056,2091
2042,2032,2060,2057,2029,2037,2043,2098
2042,2041,2071,2061,2027,2033,2062,2097
2053,2049,2066,2060,2020,2027,2070,2090
2051,2043,2058,2062,2026,2029,2070,2092
2051,2048,2066,2062,2024,2032,2086,2094
2055,2069,2075,2071,2035,2039,2074,2095
2073,2074,2078,2066,2030,2029,2069,2084
2075,2065,2067,2056,2038,2040,2067,2069
2063,2059,2055,2053,2035,2048,2058,2060
2059,2048,2052,2045,2044,2033,2059,2045
2059,2047,2041,2040,2042,2014,2052,2035
2052,2038,2041,2041,2040,2028,2062,2033
2050,2039,2048,2042,2044,2039,2057,2030
2056,2042,2043,2034,2048,2061,2040,2025
2053,2048,2041,2041,2046,2071,2023,2019
2051,2052,2041,2046,2048,2090,2028,2012
2049,2040,2026,2036,2021,2124,2033,2010
2042,2032,2032,2037,2029,2132,2052,2014
2055,2041,2047,2058,2065,2116,2054,2026
2059,2055,2054,2066,2094,2113,2065,2031
2068,2056,2065,2070,2133,2101,2060,2042
2072,2056,2066,2052,2131,2067,2062,2048
2071,2057,2064,2031,2044,2024,2054,2048
2069,2050,2055,2030,1990,2008,2060,2039
2062,2043,2056,2030,1989,1989,2059,2047
2063,2041,2050,2028,2000,1950,2043,2053
2058,2045,2047,2045,2027,1936,2020,2051
2051,2039,2042,2051,2061,1953,2051,2055
2050,2030,2039,2044,2060,1961,2042,2068
2061,2037,2037,2042,2026,1965,2036,2084
2065,2047,2045,2045,2013,1982,2042,2096
2073,2052,2051,2051,2002,1988,2033,2082
2053,2042,2048,2055,2025,1992,2024,2064
2035,2034,2045,2062,2027,2003,2018,2061
2041,2037,2050,2058,2006,2018,2054,2086
2045,2045,2055,2045,1997,2048,2065,2100
2057,2050,2047,2041,2002,2072,2057,2096
2056,2052,2035,2044,2007,2105,2052,2078
2054,2048,2027,2042,2024,2098,2054,2074
2052,2047,2020,2049,2049,2094,2032,2057
2059,2051,2018,2048,2048,2100,2042,2046
2052,2042,2018,2046,2029,2089,2056,2040
2052,2042,2016,2034,2024,2078,2057,2041
2049,2045,2013,2035,2014,2061,2050,2041
2056,2043,2012,2034,2014,2045,2053,2041
2054,2038,2008,2035,2022,2040,2045,2032
2047,2040,2006,2029,2026,2044,2052,2029
2050,2039,2002,2027,2026,2044,2048,2020
2047,2032,1999,2016,2020,2037,2020,2004
2034,2024,2002,2018,2014,2053,2034,2008
2042,2036,2009,2037,2033,2076,2055,2019
2058,2038,2016,2042,2052,2086,2054,2021
2055,2048,2027,2055,2057,2078,2059,2022
2052,2041,2025,2060,2073,2065,2043,2018
2040,2030,2022,2054,2069,2064,2051,2013
2039,2033,2030,2058,2071,2066,2057,2024
2044,2035,2039,2051,2082,2067,2071,2047
2052,2046,2053,2062,2086,2058,2065,2046
2055,2051,2064,2063,2087,2048,2051,2052
2054,2058,2074,2062,2073,2034,2053,2060
2052,2057,2076,2058,2016,2035,2049,2055
2046,2054,2080,2039,1982,2029,2051,2069
2047,2048,2067,2038,2008,2036,2038,2074
2051,2037,2067,2032,2027,2035,2058,2079
2046,2031,2065,2032,2025,2028,2042,2074
2039,2019,2063,2037,2034,2036,2048,2079
2038,2032,2073,2049,2044,2044,2062,2079
2044,2038,2074,2054,2060,2060,2065,2091
2055,2047,2080,2054,2064,2072,2070,2086
2051,2049,2083,2057,2060,2064,2070,2073
2045,2054,2069,2066,2057,2072,2065,2065
2053,2051,2068,2059,2056,2085,2069,2059
2050,2047,2059,2061,2062,2104,2073,2055
2051,2047,2058,2050,2059,2117,2083,2052
2058,2045,2049,2050,2058,2130,2076,2044
2061,2050,2055,2053,2061,2139,2089,2054
2064,2058,2056,2052,2046,2166,2089,2056
2068,2057,2067,2056,2060,2159,2096,2054
2064,2056,2072,2050,2047,2074,2068,2038
2065,2059,2076,2052,2036,1962,2054,2036
2062,2060,2073,2042,2025,1955,2045,2028
2047,2048,2064,2043,2026,1996,2055,2024
2049,2046,2062,2048,2038,2023,2056,2021
2051,2053,2069,2052,2039,2030,2062,2019
2051,2052,2062,2045,2038,2026,2033,2016
2047,2050,2059,2057,2044,2038,2041,2011
2042,2053,2056,2060,2056,2042,2040,2019
2050,2048,2063,2056,2061,2029,2043,2031
2048,2052,2066,2054,2051,2020,2033,2048
2046,2050,2059,2043,2040,2016,2023,2050
2042,2048,2064,2044,2034,2024,2052,2060
2051,2055,2071,2048,2023,2019,2053,2070
2052,2056,2067,2047,2017,2018,2051,2075
2052,2055,2058,2045,2017,2011,2046,2079
2049,2047,2055,2038,2016,2019,2027,2080
2051,2044,2048,2046,2038,2031,2039,2092
2056,2046,2059,2064,2056,2044,2035,2090
2053,2036,2054,2056,2045,2040,2037,2098
2049,2039,2050,2058,2050,2056,2046,2099
2050,2046,2064,2063,2061,2061,2041,2098
2048,2057,2060,2059,2051,2060,2047,2090
2054,2043,2054,2060,2055,2078,2056,2082
2058,2043,2056,2060,2044,2087,2056,2071
2044,2044,2058,2060,2046,2081,2036,2053
2038,2039,2053,2064,2050,2077,2041,2041
2037,2046,2053,2063,2053,2074,2040,2039
2042,2046,2052,2059,2059,2062,2052,2032
2047,2046,2055,2062,2066,2056,2066,2027
2050,2051,2054,2069,2063,2051,2046,2024
2047,2049,2054,2067,2090,2048,2031,2029
2050,2049,2046,2058,2104,2053,2027,2023
2047,2049,2030,2050,2099,2065,2010,2018
2044,2039,2024,2043,2095,2072,2021,2004
2036,2028,2019,2035,2085,2046,2026,1998
2047,2040,2031,2043,2079,2042,2022,2005
2046,2052,2049,2047,2054,2038,2031,2016
2047,2050,2049,2043,1999,2016,2005,2024
2045,2054,2041,2038,1916,1979,2013,2027
2043,2047,2034,2024,1899,1987,2017,2021
2043,2046,2039,2031,1953,2012,2025,2021
2044,2056,2038,2050,2021,2041,2038,2042
2051,2053,2044,2062,2067,2049,2044,2056
2057,2055,2037,2069,2090,2065,2044,2059
2046,2050,2026,2069,2110,2071,2043,2058
2042,2041,2017,2059,2092,2061,2033,2062
2038,2041,2013,2050,2075,2050,2034,2068
2037,2037,2010,2041,2063,2044,2043,2070
2046,2032,2003,2034,2044,2036,2040,2070
2041,2029,2006,2026,2032,2034,2038,2068
2031,2019,1996,2021,2027,2028,2034,2069
2024,2015,1988,2008,2037,2033,2048,2076
2041,2027,1993,2006,2040,2040,2058,2078
2039,2032,2000,2016,2046,2044,2045,2070
2032,2043,2007,2013,2037,2039,2021,2060
2029,2052,2018,2015,2020,2040,2029,2058
2033,2051,2032,2015,2008,2042,2030,2043
2033,2042,2032,2008,1982,2042,2022,2028
2035,2043,2041,2010,1965,2038,2028,2028
2033,2045,2047,2018,1966,2025,2015,2030
2048,2051,2063,2030,1992,2008,2025,2029
2047,2046,2055,2033,2024,2017,2033,2031
2042,2041,2057,2046,2076,2060,2041,2034
2052,2053,2072,2080,2110,2111,2062,2032
2061,2073,2086,2095,2109,2120,2049,2027
2068,2075,2080,2083,2076,2111,2028,2011
2048,2056,2060,2062,2031,2072,2020,2008
2041,2044,2054,2060,2025,2028,2038,2025
2054,2060,2071,2076,2070,1995,2019,2025
2056,2060,2068,2070,2091,2016,2037,2020
2053,2055,2054,2064,2090,2041,2016,2018
2048,2051,2043,2058,2069,2052,2056,2030
2046,2046,2040,2054,2061,2054,2038,2037
2048,2041,2044,2052,2027,2055,2065,2034
2046,2045,2042,2048,2037,2048,2059,2035
2054,2064,2058,2050,2028,2056,2065,2046
2059,2067,2070,2057,2025,2053,2065,2061
2058,2068,2076,2056,2015,2050,2061,2068
2056,2062,2079,2055,2015,2055,2072,2079
2061,2061,2084,2059,2043,2062,2078,2100
2066,2059,2080,2058,2042,2048,2065,2088
2053,2050,2070,2033,2015,2019,2035,2076
2042,2041,2059,2043,2067,2030,2038,2076
2036,2034,2053,2058,2084,2053,2034,2080
2051,2041,2050,2050,2071,2064,2048,2081
2058,2053,2054,2058,2070,2059,2058,2078
2058,2062,2056,2061,2063,2053,2044,2073
2041,2057,2059,2059,2061,2042,2049,2064
2038,2057,2056,2051,2042,2023,2038,2057
2039,2042,2045,2033,2017,2012,2034,2043
2046,2040,2037,2016,1980,2019,2031,2021
2033,2038,2038,2013,1986,2024,2031,2009
2034,2049,2052,2026,2030,2036,2039,2018
2048,2063,2058,2034,2045,2036,2051,2028
2051,2046,2039,2032,2032,2034,2049,2040
2047,2048,2042,2034,2004,2030,2044,2029
2053,2045,2039,2039,1998,2033,2042,2027
2054,2047,2048,2043,2010,2037,2036,2017
2042,2048,2036,2042,2006,2028,2028,2008
2034,2030,2028,2036,2006,2022,2027,2008
2041,2039,2032,2042,2022,2035,2035,2009
2039,2043,2038,2037,2021,2034,2039,2016
2037,2038,2047,2053,2032,2042,2046,2021
2037,2042,2051,2058,2074,2050,2050,2022
2036,2042,2046,2064,2111,2058,2025,2026
2031,2044,2047,2062,2093,2063,2045,2026
2042,2052,2043,2064,2079,2052,2045,2033
2044,2056,2039,2058,2069,2056,2009,2041
2047,2054,2038,2061,2066,2062,2036,2053
2051,2046,2037,2056,2072,2063,2045,2074
2051,2037,2027,2049,2064,2078,2037,2077
2047,2039,2022,2041,2037,2082,2027,2085
2043,2041,2018,2031,2016,2098,2040,2085
2039,2036,2017,2032,2026,2110,2036,2084
2032,2037,2021,2034,2042,2097,2015,2083
2028,2039,2024,2032,2049,2081,2039,2092
2038,2040,2026,2031,2049,2066,2020,2086
2039,2047,2036,2029,2032,2014,2036,2086
2044,2047,2034,2024,1996,2004,1994,2076
2046,2047,2032,2023,2006,2019,2005,2063
2041,2049,2044,2036,2041,2045,2033,2055
2040,2055,2064,2049,2046,2037,2027,2064
2049,2063,2056,2058,2044,2011,2038,2056
2047,2058,2055,2056,2036,2016,2032,2051
2052,2058,2057,2058,2036,2023,2040,2041
2054,2053,2054,2059,2039,2027,2056,2035
2051,2057,2063,2059,2043,2031,2059,2040
2045,2059,2057,2058,2050,2032,2048,2035
2054,2063,2061,2062,2066,2039,2042,2034
2051,2063,2060,2061,2074,2043,2049,2026
2053,2050,2052,2057,2062,2036,2035,2017
2038,2041,2056,2051,2042,2032,2044,2016
