CH1,CH2,CH3,CH4,CH5,CH6,CH7,CH8
2048,2050,2050,2062,2061,2053,2068,2064
2047,2046,2057,2065,2072,2054,2039,2065
2042,2044,2057,2063,2062,2050,2069,2070
2040,2042,2050,2064,2051,2046,2066,2064
2032,2036,2049,2061,2018,2045,2056,2062
2032,2039,2049,2072,2052,2049,2061,2066
2037,2045,2044,2071,2062,2051,2062,2062
2040,2045,2050,2065,2048,2051,2068,2064
2040,2047,2049,2065,2069,2057,2061,2059
2045,2045,2045,2067,2043,2056,2050,2056
2042,2043,2031,2054,2016,2063,2019,2038
2045,2037,2038,2040,1997,2059,2040,2030
2048,2033,2034,2017,1952,2034,2048,2024
2041,2028,2028,2008,1937,2036,2042,2018
2036,2036,2044,2025,1963,2024,2033,2014
2041,2043,2050,2043,2008,2013,2049,2010
2045,2043,2058,2058,2062,2017,2062,2015
2044,2046,2073,2067,2066,2034,2055,2019
2044,2044,2071,2069,2059,2041,2062,2018
2040,2045,2064,2064,2061,2040,2053,2020
2039,2041,2058,2063,2062,2041,2018,2018
2041,2039,2060,2068,2064,2059,2057,2019
2043,2049,2062,2068,2063,2062,2054,2027
2048,2049,2052,2068,2071,2062,2049,2018
2042,2052,2057,2073,2129,2071,2037,2015
2045,2049,2059,2074,2174,2080,2040,2024
2050,2054,2060,2082,2176,2077,2063,2027
2048,2049,2067,2081,2180,2075,2062,2027
2043,2043,2057,2065,2147,2062,2054,2026
2041,2042,2041,2061,2120,2050,2036,2031
2040,2038,2039,2062,2095,2045,2049,2045
2038,2035,2021,2062,2086,2043,2044,2049
2042,2036,2014,2050,1981,2033,2048,2050
2039,2030,2010,2053,1952,2037,2060,2064
2036,2031,2016,2069,2008,2048,2034,2064
2038,2024,2014,2071,2058,2042,2029,2056
2029,2015,2001,2057,2047,2031,2025,2059
2028,2012,1993,2049,2036,2032,2044,2065
2037,2029,2002,2056,2050,2043,2016,2056
2033,2029,2010,2062,2058,2043,2040,2056
2036,2038,2015,2053,2052,2045,2033,2051
2033,2036,2007,2056,2053,2045,2032,2050
2035,2032,2005,2053,2039,2037,2029,2042
2036,2036,2009,2049,2044,2033,2029,2037
2034,2052,2032,2062,2054,2036,2036,2041
2046,2062,2050,2064,2051,2039,2037,2030
2040,2048,2034,2045,2046,2036,2049,2030
2033,2044,2040,2020,2037,2039,2057,2025
2035,2052,2056,2016,2030,2038,2054,2016
2041,2054,2077,2027,2031,2051,2050,2020
2049,2068,2100,2036,2051,2058,2044,2021
2050,2075,2107,2049,2064,2051,2045,2015
2046,2066,2101,2051,2060,2051,2039,2012
2041,2065,2100,2054,2064,2053,2037,2019
2046,2070,2095,2046,2044,2056,2041,2017
2041,2062,2077,2030,2015,2056,2035,2018
2049,2064,2079,2027,1996,2044,2031,2028
2052,2075,2082,2022,1992,2045,2009,2031
2052,2079,2076,2020,2007,2045,2045,2042
2052,2071,2081,2029,2027,2016,2054,2057
2053,2071,2072,2043,2042,2016,2049,2055
2051,2066,2070,2056,2043,2027,2041,2064
2057,2067,2074,2054,2054,2037,2042,2072
2051,2060,2074,2059,2059,2047,2042,2069
2047,2054,2074,2056,2059,2048,2037,2072
2043,2058,2072,2056,2054,2047,2053,2080
2043,2054,2066,2060,2059,2049,2054,2084
2043,2052,2078,2067,2062,2050,2043,2089
2042,2045,2078,2070,2057,2048,2050,2084
2040,2038,2080,2066,2047,2047,2057,2079
2044,2053,2077,2072,2041,2059,2058,2081
2045,2050,2083,2072,2030,2054,2043,2064
2042,2050,2091,2072,2014,2047,2041,2057
2039,2045,2087,2072,1991,2038,2049,2046
2040,2047,2080,2068,1984,2029,2035,2045
2041,2057,2075,2059,1985,2031,2041,2039
2039,2051,2057,2045,1991,2024,2052,2037
2040,2050,2045,2054,2007,2024,2029,2045
2037,2050,2029,2051,2010,2030,2020,2025
2035,2038,2019,2047,2072,2049,2047,2020
2031,2025,2016,2047,2088,2051,2040,2012
2034,2034,2016,2051,2078,2054,2027,2018
2033,2041,2018,2040,2077,2051,2033,2016
2042,2046,2021,2033,2080,2049,2039,2016
2041,2039,2007,2019,2067,2044,2043,2016
2043,2037,2007,2013,2065,2043,2047,2026
2050,2059,2027,2024,2064,2047,2042,2027
2047,2063,2029,2017,2035,2038,2041,2025
2046,2067,2023,2010,2019,2036,2040,2023
2057,2064,2015,2016,2027,2040,2032,2024
2056,2073,2012,2032,2063,2044,2015,2027
2056,2076,2020,2065,2082,2046,2026,2027
2060,2077,2040,2087,2100,2050,2054,2036
2049,2073,2039,2095,2108,2060,2051,2045
2044,2065,2028,2089,2108,2063,2057,2047
2043,2049,2017,2070,2089,2061,2050,2053
2035,2050,2025,2058,2063,2052,2036,2055
2035,2045,2038,2032,1981,2034,2032,2058
2029,2040,2026,2018,1965,2030,2027,2055
2026,2029,2004,2020,2026,2042,2037,2065
2023,2020,1988,2018,2033,2040,2029,2072
2022,2028,2006,2031,2034,2034,2010,2076
2043,2046,2038,2041,2044,2036,2019,2080
2037,2052,2049,2021,2033,2038,2043,2070
2039,2047,2044,1990,1990,2028,2034,2065
2033,2048,2055,1985,1988,2031,2019,2059
2036,2065,2097,2022,2028,2043,2041,2059
2053,2083,2115,2048,2063,2050,2038,2056
2055,2077,2103,2051,2069,2052,2054,2059
2054,2079,2091,2053,2067,2052,2058,2046
2057,2075,2075,2050,2062,2057,2040,2045
2052,2067,2069,2046,2041,2048,2023,2032
2053,2059,2059,2033,2038,2036,2018,2038
2054,2058,2057,2040,2041,2033,2036,2033
2045,2057,2056,2045,2043,2036,2027,2032
2049,2061,2054,2054,2065,2042,2056,2029
2048,2062,2057,2060,2070,2046,2064,2029
2042,2057,2050,2061,2074,2051,2056,2027
2040,2060,2057,2062,2081,2065,2066,2031
2044,2062,2050,2065,2074,2065,2057,2028
2047,2064,2052,2065,2081,2068,2059,2026
2045,2054,2043,2061,2081,2068,2051,2028
2042,2056,2036,2048,2073,2064,2052,2028
2039,2051,2031,2034,2050,2054,2051,2037
2045,2048,2026,2022,2009,2044,2042,2033
2036,2051,2036,2018,1980,2043,2044,2042
2035,2049,2037,2016,1992,2050,2039,2048
2048,2061,2038,2016,1981,2053,2045,2059
2046,2056,2045,2022,1971,2048,2052,2060
2051,2064,2047,2034,2006,2051,2035,2068
2053,2062,2049,2056,2060,2033,2038,2074
2056,2060,2046,2058,2082,2035,2041,2076
2045,2051,2032,2044,2056,2037,2038,2067
2039,2037,2016,2024,2015,2038,2047,2055
2026,2023,2004,2022,2004,2023,2043,2059
2030,2030,2008,2026,2015,1997,2018,2054
2024,2029,2010,2023,2023,2009,2014,2050
2027,2043,2022,2032,2020,2037,2052,2060
2039,2066,2039,2055,2076,2064,2053,2059
2052,2066,2044,2064,2100,2080,2056,2057
2059,2067,2044,2061,2098,2084,2064,2055
2057,2061,2044,2061,2084,2077,2060,2051
2054,2055,2042,2050,2061,2063,2062,2047
2045,2055,2051,2045,2040,2048,2046,2042
2054,2060,2057,2049,2021,2041,2046,2031
2046,2059,2050,2055,2009,2032,2043,2026
2041,2050,2050,2048,2010,2036,2045,2021
2045,2052,2045,2043,2013,2046,2054,2026
2043,2059,2032,2053,2016,2040,2057,2019
2036,2045,2017,2058,2036,2045,2054,2020
2037,2039,2013,2063,2064,2044,2042,2024
2041,2044,2012,2071,2057,2044,2052,2020
2044,2046,2019,2074,2046,2054,2048,2024
2046,2045,2012,2077,2072,2053,2042,2029
2044,2041,2015,2078,2094,2060,2040,2031
2043,2043,2015,2075,2093,2059,2053,2030
2040,2042,2017,2071,2068,2043,2058,2035
2036,2041,2024,2070,2054,2036,2048,2036
2037,2041,2025,2059,2061,2042,2024,2045
2035,2038,2021,2060,2076,2050,2047,2045
2034,2036,2026,2055,2081,2056,2057,2054
2040,2035,2032,2047,2080,2050,2051,2059
2034,2038,2034,2022,2049,2040,2044,2060
2031,2031,2034,1994,2020,2034,2034,2063
2029,2027,2042,1995,2018,2023,2034,2070
2028,2036,2056,2005,2025,2018,2026,2074
2037,2044,2072,2022,2076,2038,2036,2075
2041,2053,2077,2040,2126,2056,2061,2077
2044,2060,2069,2048,2151,2066,2040,2078
2046,2054,2059,2047,2170,2063,2049,2082
2042,2055,2054,2051,2180,2070,2045,2075
2047,2060,2061,2059,2162,2075,2047,2080
2053,2062,2066,2062,2140,2069,2064,2065
2054,2065,2068,2059,2109,2065,2077,2058
2054,2061,2070,2053,2048,2052,2051,2048
2042,2056,2057,2032,1903,2022,2051,2038
2045,2054,2055,2030,1898,2022,2056,2044
2047,2052,2057,2033,1940,2028,2072,2037
2049,2059,2059,2042,1978,2036,2063,2041
2051,2058,2058,2049,1999,2040,2034,2038
2053,2056,2055,2045,2000,2045,2033,2034
2049,2053,2049,2049,2003,2047,2024,2029
2041,2038,2043,2045,1990,2044,2028,2029
2039,2032,2040,2037,1970,2049,2023,2026
2039,2042,2047,2037,1948,2039,2028,2025
2044,2043,2046,2028,1932,2036,2045,2023
2045,2045,2041,2029,1933,2016,2034,2026
2041,2045,2040,2021,1942,1996,2021,2027
2040,2042,2043,2039,1994,2015,2046,2036
2048,2050,2054,2065,2051,2042,2061,2049
2054,2062,2060,2073,2070,2057,2064,2057
2055,2065,2059,2077,2073,2077,2060,2065
2051,2059,2059,2077,2092,2079,2073,2062
2049,2055,2051,2067,2085,2072,2052,2066
2041,2058,2045,2061,2072,2060,2044,2069
2043,2056,2042,2060,2052,2042,2043,2069
2043,2048,2048,2076,2064,2030,2032,2069
2043,2044,2064,2088,2065,2031,2031,2063
2036,2041,2063,2091,2056,2020,2031,2062
2035,2035,2065,2091,2064,2025,2041,2068
2044,2046,2087,2112,2089,2041,2038,2072
2041,2045,2090,2127,2112,2047,2049,2066
2052,2044,2085,2143,2105,2054,2046,2062
2045,2043,2080,2136,2088,2050,2039,2057
2046,2046,2063,2131,2072,2050,2036,2049
2054,2045,2046,2120,2071,2044,2037,2038
2051,2045,2032,2117,2072,2046,2035,2040
2052,2039,2022,2114,2058,2050,2042,2032
2050,2044,2009,2100,2056,2053,2052,2028
2052,2046,2000,2087,2059,2049,2035,2021
2046,2037,1982,2058,2047,2041,2037,2029
2041,2026,1976,2025,2031,2030,2036,2020
2036,2015,1964,1992,2018,2027,2037,2016
2027,2016,1967,1968,2022,2035,2034,2019
2035,2032,1989,1971,2037,2037,2034,2018
2038,2045,2019,1978,2046,2047,2039,2025
2047,2063,2040,1992,2060,2057,2043,2030
2059,2063,2043,1992,2055,2060,2053,2038
2060,2061,2038,1992,2057,2058,2042,2038
2055,2058,2051,2010,2066,2060,2052,2034
2053,2058,2054,2028,2086,2068,2028,2038
2056,2058,2061,2037,2084,2066,2040,2043
2056,2051,2054,2041,2075,2064,2059,2046
2056,2053,2060,2039,2066,2064,2052,2049
2055,2054,2060,2045,2057,2056,2058,2050
2054,2047,2054,2041,2051,2054,2058,2060
2045,2048,2054,2040,2050,2058,2058,2067
2048,2045,2052,2040,2053,2052,2056,2070
2046,2045,2054,2042,2046,2048,2065,2077
2040,2044,2045,2042,2046,2050,2061,2076
2044,2051,2058,2049,2050,2052,2061,2077
2045,2043,2060,2048,2045,2042,2057,2073
2042,2041,2054,2044,2054,2035,2024,2068
2042,2047,2057,2037,2054,2038,2037,2070
2038,2049,2050,2030,2053,2032,2051,2065
2046,2047,2049,2030,2056,2029,2039,2065
2047,2050,2055,2034,2062,2036,2043,2054
2042,2045,2053,2045,2051,2028,2029,2046
2035,2045,2054,2039,2055,2020,2032,2039
2039,2043,2052,2042,2060,2018,2034,2036
2040,2042,2049,2034,2050,2026,2038,2033
2039,2048,2052,2037,2034,2024,2030,2030
2042,2046,2049,2041,2021,2031,2039,2034
2041,2051,2049,2046,2072,2038,2058,2033
2042,2054,2050,2050,2084,2050,2054,2026
2046,2056,2054,2055,2094,2051,2052,2027
2056,2054,2056,2053,2071,2047,2049,2036
2054,2062,2053,2046,2021,2032,2039,2025
2041,2047,2048,2033,1999,2030,2044,2027
2044,2049,2045,2040,2010,2026,2050,2028
2047,2053,2054,2035,1988,2033,2057,2025
2046,2043,2051,2036,2033,2056,2060,2027
2048,2047,2051,2041,2052,2064,2056,2025
2040,2041,2046,2037,2062,2054,2057,2034
2043,2047,2047,2048,2062,2050,2047,2035
2047,2046,2055,2046,2056,2038,2035,2032
2047,2052,2051,2045,2052,2034,2029,2043
2046,2050,2049,2048,2053,2032,2047,2040
2041,2054,2054,2048,2047,2041,2054,2048
2039,2055,2053,2057,2041,2051,2035,2053
2043,2056,2064,2063,2050,2062,2042,2065
2041,2055,2062,2064,2056,2065,2055,2067
2045,2060,2056,2062,2051,2068,2061,2078
2042,2054,2055,2058,2052,2068,2058,2064
2036,2046,2043,2050,2046,2051,2026,2065
2039,2038,2040,2045,2045,2049,2041,2065
2042,2055,2055,2041,2045,2057,2040,2066
2041,2049,2054,2048,2049,2057,2045,2059
2046,2049,2046,2045,2049,2063,2045,2067
2041,2037,2034,2033,2053,2063,2038,2061
2037,2040,2033,2033,2058,2064,2062,2050
2044,2042,2039,2035,2069,2062,2065,2043
2045,2045,2038,2037,2064,2068,2061,2042
2049,2047,2045,2040,2071,2068,2057,2038
2054,2049,2043,2049,2078,2069,2056,2029
2056,2049,2048,2051,2084,2062,2046,2024
2047,2039,2034,2042,2064,2048,2038,2015
2044,2036,2037,2041,2054,2046,2043,2012
2051,2046,2049,2043,2062,2053,2040,2018
2055,2057,2053,2054,2071,2059,2045,2016
2052,2042,2039,2051,2064,2056,2044,2012
2043,2039,2041,2053,2076,2062,2025,2018
2046,2046,2056,2069,2080,2067,2039,2023
2046,2047,2057,2070,2052,2065,2051,2029
2052,2053,2056,2067,2060,2064,2044,2036
2053,2056,2057,2071,2066,2062,2067,2033
2050,2053,2062,2066,2063,2061,2047,2031
2049,2050,2059,2071,2081,2063,2054,2035
2044,2050,2062,2080,2082,2056,2044,2044
2050,2052,2065,2083,2080,2060,2060,2054
2045,2050,2067,2083,2085,2061,2036,2054
2047,2048,2065,2073,2082,2054,2062,2051
2044,2041,2067,2076,2071,2049,2059,2060
2039,2043,2060,2071,2066,2049,2054,2061
2038,2040,2062,2065,2062,2050,2041,2062
2043,2042,2061,2065,2067,2044,2025,2058
2043,2039,2047,2054,2047,2040,1996,2060
2030,2036,2046,2055,2044,2034,1998,2058
2042,2050,2059,2061,2040,2038,2016,2064
2044,2049,2058,2062,2046,2042,2042,2057
2048,2056,2053,2056,2050,2047,2050,2056
2053,2045,2046,2049,2046,2044,2038,2052
2043,2046,2030,2033,2034,2038,2045,2044
2042,2038,2009,2027,2022,2034,2029,2038
2042,2034,2009,2022,2019,2033,2027,2032
2037,2035,2018,2026,2020,2038,2024,2033
2047,2043,2023,2021,2023,2044,2034,2024
2055,2053,2034,2012,2038,2058,2058,2033
2054,2059,2036,2023,2060,2060,2063,2030
2055,2060,2036,2031,2064,2059,2067,2026
2052,2053,2034,2029,2064,2062,2058,2026
2053,2055,2033,2025,2064,2062,2064,2023
2047,2036,2028,2018,2057,2050,2045,2023
2044,2037,2021,2020,2059,2052,2047,2026
2051,2051,2037,2040,2056,2048,2052,2036
2053,2055,2047,2042,2031,2044,2055,2038
2048,2051,2045,2044,2039,2056,2058,2032
2039,2045,2042,2043,2064,2058,2064,2028
2048,2036,2035,2035,2071,2058,2064,2036
2040,2043,2036,2041,2057,2058,2050,2033
2047,2044,2038,2039,2060,2054,2026,2038
2044,2038,2035,2043,2050,2054,2045,2038
2037,2043,2036,2049,2048,2054,2031,2038
2041,2041,2044,2052,2055,2055,2041,2051
2046,2051,2054,2057,2073,2069,2031,2053
2046,2053,2057,2057,2079,2079,2045,2058
2048,2048,2060,2062,2085,2079,2039,2065
2048,2052,2057,2050,2042,2068,2037,2069
2040,2048,2053,2030,1995,2053,2028,2062
2034,2037,2054,2028,2013,2041,2022,2067
2043,2053,2062,2038,2050,2044,2037,2068
2044,2051,2059,2046,2059,2041,2043,2065
2047,2053,2050,2040,2063,2047,2045,2060
2046,2054,2054,2040,2054,2048,2043,2053
2053,2051,2055,2039,2043,2050,2053,2044
2056,2050,2053,2032,2043,2047,2047,2045
2047,2049,2055,2038,2050,2049,2041,2045
2053,2048,2051,2039,2052,2047,2049,2034
2044,2051,2054,2042,2053,2051,2032,2030
2048,2049,2053,2040,2049,2048,2043,2026
2051,2047,2050,2047,2045,2045,2036,2026
2048,2050,2052,2051,2051,2044,2048,2024
2051,2049,2056,2050,2054,2050,2047,2023
2044,2056,2059,2050,2070,2050,2040,2021
2047,2045,2048,2047,2064,2053,2018,2019
2044,2044,2049,2042,2066,2055,2037,2022
2049,2049,2055,2042,2074,2060,2044,2032
2049,2047,2058,2043,2067,2057,2045,2028
2047,2049,2052,2046,2074,2060,2053,2023
2051,2047,2054,2043,2065,2065,2049,2033
2051,2050,2054,2051,2072,2069,2054,2035
2044,2049,2056,2052,2075,2069,2053,2039
2049,2053,2057,2045,2062,2068,2070,2042
2054,2052,2054,2044,2060,2065,2069,2046
2049,2047,2054,2048,2064,2065,2076,2053
2053,2053,2059,2047,2064,2066,2074,2056
2052,2052,2056,2049,2069,2068,2067,2057
2052,2046,2057,2049,2070,2066,2054,2065
2050,2049,2056,2051,2069,2069,2054,2067
2045,2048,2055,2046,2072,2065,2038,2070
2040,2044,2048,2041,2062,2049,2006,2064
2037,2043,2039,2036,2046,2022,2026,2060
2043,2042,2048,2040,2046,2026,2024,2064
2052,2047,2048,2043,2047,2032,2043,2068
2054,2051,2050,2039,2046,2036,2050,2051
2053,2047,2047,2040,2047,2038,2031,2057
2057,2052,2047,2039,2048,2046,2031,2046
2056,2050,2044,2046,2045,2046,2034,2042
2057,2043,2044,2045,2050,2047,2038,2033
2053,2045,2046,2052,2049,2041,2038,2024
2048,2049,2045,2048,2043,2040,2020,2025
2050,2040,2048,2053,2049,2036,2016,2025
2044,2042,2046,2052,2051,2035,2043,2030
2046,2052,2051,2056,2052,2045,2043,2030
2051,2050,2051,2056,2056,2049,2051,2030
2053,2055,2051,2056,2061,2048,2060,2026
2058,2051,2049,2049,2051,2041,2031,2016
2046,2037,2039,2045,2052,2036,2028,2013
2044,2042,2044,2056,2057,2046,2050,2018
2050,2045,2045,2055,2059,2048,2045,2028
2052,2048,2047,2058,2063,2049,2045,2024
2056,2047,2048,2052,2059,2046,2047,2023
2053,2051,2047,2050,2058,2041,2039,2029
2048,2050,2046,2051,2059,2038,2050,2035
2050,2049,2044,2051,2047,2045,2045,2043
2056,2049,2043,2051,2053,2050,2040,2046
2053,2053,2049,2054,2065,2058,2048,2057
2050,2051,2046,2055,2067,2062,2050,2060
2054,2047,2052,2050,2064,2076,2054,2058
2043,2040,2041,2046,2059,2078,2044,2064
2045,2041,2039,2039,2052,2080,2048,2066
2046,2046,2046,2041,2047,2072,2054,2068
2044,2046,2046,2036,2047,2047,2041,2063
2043,2035,2039,2041,2046,2005,2033,2069
2049,2043,2047,2048,2054,2015,2035,2073
2056,2055,2053,2049,2057,2030,2034,2065
2058,2050,2054,2047,2056,2039,2042,2063
2060,2052,2055,2050,2051,2045,2046,2057
2063,2054,2056,2045,2049,2045,2051,2059
2057,2055,2051,2043,2049,2051,2058,2049
2053,2051,2044,2044,2045,2049,2057,2040
2056,2047,2041,2043,2042,2050,2054,2037
2056,2044,2045,2043,2047,2045,2069,2038
2052,2047,2049,2047,2048,2042,2059,2033
2049,2049,2050,2053,2049,2047,2063,2036
2047,2046,2048,2052,2051,2058,2049,2038
2051,2052,2048,2054,2052,2063,2050,2037
2056,2048,2046,2054,2052,2055,2053,2025
2058,2042,2045,2050,2050,2061,2043,2025
2053,2035,2033,2043,2053,2063,2064,2023
2045,2039,2037,2050,2046,2074,2075,2035
2050,2050,2047,2051,2055,2077,2075,2032
2059,2046,2050,2055,2056,2085,2092,2033
2060,2048,2054,2058,2056,2083,2075,2042
2061,2049,2049,2054,2060,2081,2070,2043
2056,2054,2056,2055,2066,2082,2065,2043
2050,2044,2052,2057,2059,2068,2068,2043
2049,2049,2049,2051,2054,2051,2058,2040
2049,2047,2051,2051,2055,2057,2064,2047
2051,2050,2057,2056,2063,2060,2054,2059
2057,2053,2058,2059,2060,2026,2049,2056
2056,2049,2060,2064,2057,1987,2022,2060
2049,2053,2054,2055,2061,1977,2032,2064
2049,2048,2053,2060,2054,1998,2027,2075
2048,2045,2056,2055,2058,2022,2014,2079
2044,2044,2045,2051,2056,2048,2032,2084
2049,2033,2045,2045,2053,2064,2046,2086
2052,2043,2049,2047,2061,2073,2064,2083
2056,2042,2049,2047,2060,2071,2081,2076
2054,2044,2048,2049,2045,2059,2069,2070
2050,2041,2041,2054,2052,2049,2066,2067
2055,2036,2039,2047,2054,2051,2070,2062
2053,2041,2050,2056,2057,2044,2040,2064
2058,2042,2044,2053,2051,2041,2055,2054
2051,2045,2043,2047,2042,2036,2046,2047
2056,2041,2044,2050,2049,2041,2048,2034
2043,2033,2035,2047,2060,2034,2043,2027
2038,2031,2039,2049,2058,2024,2025,2021
2034,2032,2038,2050,2054,2015,2030,2013
2037,2034,2042,2054,2047,2020,2035,2005
2037,2032,2047,2053,2052,2040,2036,2009
2035,2031,2037,2052,2050,2063,2028,2011
2035,2027,2038,2044,2045,2061,2034,2006
2031,2027,2044,2048,2050,2044,2044,2014
2039,2034,2051,2047,2044,2027,2033,2010
2036,2034,2050,2044,2045,2029,2031,2008
2029,2042,2049,2045,2050,2042,2036,2021
2036,2036,2044,2044,2052,2051,2052,2024
2031,2032,2044,2043,2050,2050,2054,2021
2037,2036,2044,2037,2053,2056,2050,2031
2042,2043,2046,2045,2051,2052,2066,2039
2040,2050,2056,2047,2050,2056,2058,2050
2041,2050,2060,2050,2055,2050,2051,2054
2046,2056,2057,2057,2058,2056,2054,2062
2044,2054,2060,2053,2063,2059,2060,2068
2047,2050,2054,2060,2070,2057,2061,2073
2046,2047,2052,2054,2060,2052,2053,2071
2044,2047,2049,2050,2058,2047,2032,2075
2043,2038,2042,2049,2050,2042,2036,2064
2048,2042,2042,2046,2050,2047,2043,2069
2048,2051,2048,2051,2057,2044,2046,2065
2044,2046,2049,2045,2054,2044,2053,2075
2053,2057,2060,2051,2061,2053,2050,2073
2052,2055,2061,2048,2061,2054,2046,2065
2052,2058,2060,2052,2056,2053,2030,2062
2050,2060,2060,2049,2045,2053,2043,2053
2053,2056,2061,2050,2055,2053,2043,2043
2051,2055,2058,2047,2050,2047,2048,2040
2054,2058,2055,2039,2043,2041,2052,2042
2050,2052,2050,2044,2041,2049,2044,2041
2047,2055,2053,2041,2044,2052,2045,2037
2046,2058,2050,2045,2050,2061,2065,2034
2048,2053,2049,2044,2054,2060,2083,2041
2045,2058,2050,2051,2052,2065,2071,2039
2039,2053,2054,2052,2046,2063,2068,2024
2038,2049,2053,2047,2048,2060,2073,2036
2046,2054,2053,2056,2057,2070,2074,2032
2050,2057,2053,2054,2056,2066,2067,2035
2047,2056,2055,2060,2058,2056,2070,2038
2046,2056,2053,2059,2056,2051,2067,2038
2041,2056,2057,2061,2069,2050,2084,2040
2047,2060,2058,2060,2068,2054,2077,2040
2043,2055,2058,2064,2064,2059,2083,2055
2045,2053,2045,2059,2070,2065,2082,2057
2051,2047,2042,2056,2067,2067,2080,2057
2045,2041,2035,2052,2063,2060,2076,2067
2038,2038,2032,2042,2058,2050,2069,2068
2036,2041,2028,2046,2053,2044,2058,2068
2044,2044,2036,2052,2061,2050,2064,2073
2042,2051,2040,2058,2062,2043,2061,2078
2042,2051,2040,2050,2058,2024,2037,2070
2041,2042,2034,2050,2042,2016,2043,2070
2040,2049,2040,2054,2044,2019,2051,2074
2047,2057,2042,2054,2042,2023,2042,2068
2040,2049,2042,2054,2044,2028,2034,2065
2034,2049,2040,2044,2042,2037,2060,2057
2036,2045,2041,2048,2045,2039,2062,2063
2038,2045,2044,2043,2042,2039,2052,2055
2037,2042,2041,2045,2040,2028,2063,2050
2032,2042,2037,2039,2035,2035,2062,2036
2027,2043,2037,2037,2039,2048,2070,2036
2029,2046,2044,2045,2039,2053,2066,2038
2029,2040,2049,2043,2045,2054,2055,2043
2033,2054,2055,2050,2051,2062,2072,2040
2035,2060,2063,2056,2059,2063,2064,2039
2030,2055,2064,2053,2055,2062,2060,2034
2026,2056,2056,2048,2056,2064,2060,2033
2025,2048,2052,2053,2055,2061,2034,2034
2031,2057,2064,2065,2065,2073,2067,2037
2032,2063,2062,2066,2071,2065,2059,2033
2027,2061,2059,2073,2071,2057,2058,2043
2030,2061,2056,2066,2057,2043,2050,2037
2045,2058,2058,2060,2048,2040,2041,2047
2077,2072,2055,2059,2057,2036,2029,2052
2083,2061,2049,2061,2049,2038,2016,2051
2061,2056,2044,2057,2046,2032,2030,2049
2051,2055,2049,2063,2050,2023,2034,2057
2044,2050,2052,2058,2040,2020,2024,2061
2045,2049,2062,2057,2039,2022,1995,2067
2040,2053,2062,2054,2040,2017,2009,2064
2035,2056,2065,2056,2039,2023,2024,2075
2033,2049,2067,2054,2035,2026,2029,2082
2047,2054,2071,2053,2043,2045,2045,2090
2050,2052,2072,2053,2056,2051,2066,2093
2049,2049,2069,2062,2057,2052,2066,2097
2060,2060,2068,2069,2062,2052,2066,2098
2057,2057,2063,2065,2058,2043,2075,2096
2055,2063,2059,2067,2060,2033,2048,2084
2055,2057,2059,2066,2052,2024,2039,2082
2051,2059,2060,2069,2052,2017,2039,2078
2054,2056,2056,2071,2054,2019,2039,2062
2046,2054,2052,2070,2060,2019,2024,2053
2044,2058,2052,2058,2051,2027,2049,2053
2043,2050,2041,2060,2052,2019,2031,2045
2041,2046,2037,2053,2041,2015,2041,2038
2049,2051,2044,2051,2039,2021,2057,2035
2050,2054,2043,2056,2040,2035,2073,2037
2051,2056,2042,2057,2045,2044,2062,2025
2052,2053,2043,2056,2026,2037,2051,2019
2038,2048,2034,2055,2026,2037,2064,2021
2045,2051,2046,2054,2030,2047,2057,2030
2051,2053,2047,2054,2016,2064,2047,2027
2040,2052,2047,2047,2014,2083,2047,2027
2043,2048,2042,2045,2023,2080,2053,2031
2042,2045,2037,2044,2030,2072,2058,2030
2043,2044,2039,2044,2045,2069,2054,2030
2041,2045,2041,2049,2048,2063,2051,2037
2039,2041,2038,2046,2048,2056,2045,2038
2032,2037,2041,2037,2041,2057,2043,2041
2031,2032,2051,2038,2047,2056,2061,2054
2035,2043,2061,2040,2044,2053,2053,2063
2035,2044,2068,2036,2041,2053,2053,2070
2041,2052,2069,2046,2042,2056,2043,2067
2033,2052,2071,2046,2046,2057,2056,2075
2034,2053,2067,2042,2042,2058,2049,2070
2037,2042,2051,2041,2046,2052,2042,2076
2034,2049,2058,2051,2053,2066,2058,2085
2047,2050,2051,2044,2046,2065,2064,2082
2045,2047,2054,2045,2046,2052,2048,2078
2042,2043,2050,2046,2039,2045,2043,2066
2040,2046,2049,2051,2041,2052,2030,2062
2040,2047,2048,2045,2043,2049,2044,2055
2041,2050,2046,2047,2043,2052,2058,2052
2050,2051,2057,2049,2036,2051,2061,2054
2051,2058,2056,2048,2043,2048,2037,2041
2051,2057,2055,2053,2042,2051,2036,2039
2048,2050,2052,2045,2036,2040,2054,2038
2049,2050,2047,2044,2037,2035,2028,2036
2046,2050,2053,2049,2033,2036,2045,2032
2045,2052,2051,2052,2037,2038,2044,2026
2046,2052,2053,2044,2030,2033,2040,2017
2042,2041,2046,2046,2028,2028,2022,2025
2037,2044,2050,2049,2042,2038,2054,2033
2045,2048,2051,2050,2044,2032,2041,2021
2054,2049,2053,2049,2046,2024,2053,2033
2053,2055,2051,2057,2057,2024,2056,2035
2052,2052,2054,2060,2059,2031,2043,2033
2053,2058,2061,2061,2062,2035,2028,2040
2052,2052,2052,2060,2065,2041,2040,2041
2052,2051,2052,2061,2056,2050,2065,2056
2055,2051,2055,2063,2059,2067,2081,2058
2050,2046,2048,2066,2068,2076,2076,2066
2052,2047,2050,2065,2064,2088,2088,2077
2040,2044,2047,2062,2064,2092,2084,2076
2042,2038,2043,2056,2059,2094,2069,2077
2049,2040,2030,2059,2063,2104,2055,2078
2049,2039,2032,2057,2058,2105,2061,2076
2036,2026,2022,2053,2058,2114,2065,2074
2038,2034,2021,2050,2061,2090,2074,2075
2042,2039,2021,2060,2055,2041,2070,2070
2034,2041,2019,2057,2062,2036,2038,2065
2036,2039,2017,2062,2066,2046,2056,2052
2039,2035,2020,2066,2060,2032,2038,2038
2038,2032,2017,2057,2043,2004,2011,2035
2030,2027,2006,2036,2016,1989,2023,2034
2031,2026,2015,2032,2011,1993,2012,2038
2042,2036,2035,2035,2017,2012,2013,2035
2043,2048,2052,2043,2029,2022,2021,2036
2042,2049,2064,2048,2034,2035,2023,2022
2044,2047,2057,2043,2038,2036,2031,2030
2036,2045,2049,2046,2031,2042,2036,2027
2039,2043,2053,2052,2045,2043,2039,2026
2044,2048,2061,2056,2043,2037,2042,2018
2045,2047,2069,2056,2035,2034,2047,2020
2048,2050,2073,2057,2036,2032,2049,2028
2056,2064,2087,2061,2043,2047,2044,2034
2051,2059,2075,2055,2045,2062,2053,2029
2051,2058,2078,2057,2045,2065,2046,2037
2049,2060,2070,2050,2045,2083,2043,2034
2048,2060,2074,2041,2049,2100,2042,2040
2050,2062,2074,2044,2056,2115,2033,2037
2052,2063,2070,2040,2050,2130,2033,2047
2049,2066,2062,2042,2052,2122,2052,2050
2051,2064,2058,2048,2054,2066,2073,2066
2052,2065,2053,2045,2049,1994,2060,2069
2047,2060,2056,2044,2055,2004,2068,2073
2044,2057,2053,2042,2041,2019,2078,2077
2048,2051,2053,2042,2040,2032,2083,2085
2046,2052,2057,2043,2037,2035,2063,2077
2044,2044,2046,2039,2032,2027,2059,2069
2043,2041,2036,2026,2018,2027,2030,2072
2042,2045,2049,2042,2034,2060,2061,2083
2050,2049,2045,2042,2032,2079,2078,2082
2058,2053,2043,2045,2034,2080,2078,2076
2058,2050,2038,2041,2032,2076,2083,2072
2051,2046,2034,2032,2028,2082,2052,2069
2051,2047,2034,2037,2026,2081,2075,2058
2050,2049,2035,2034,2032,2092,2077,2045
2052,2046,2038,2033,2033,2103,2056,2039
2054,2047,2034,2043,2031,2112,2051,2028
2051,2049,2029,2044,2030,2096,2046,2026
2050,2044,2016,2044,2027,2067,2053,2017
2044,2040,2011,2034,2026,2073,2034,2021
2038,2042,2006,2030,2024,2085,2060,2018
2040,2040,2004,2033,2039,2086,2063,2016
2032,2027,2001,2024,2017,2071,2029,2008
2032,2029,2003,2029,2023,2030,2036,2022
2038,2044,2015,2046,2045,2016,2043,2020
2042,2047,2025,2057,2062,2018,2054,2019
2044,2045,2035,2063,2092,2031,2072,2023
2048,2050,2040,2069,2088,2028,2067,2020
2057,2050,2036,2067,2073,2008,2065,2025
2043,2035,2034,2063,2065,2005,2070,2020
2034,2031,2028,2060,2070,2015,2061,2027
2032,2021,2026,2052,2068,2027,2070,2035
2030,2017,2027,2053,2058,2038,2057,2044
2040,2018,2032,2051,2049,2042,2056,2049
2034,2021,2030,2052,2049,2040,2057,2053
2031,2019,2017,2047,2028,2030,2055,2048
2030,2012,2018,2041,2004,2014,2056,2059
2029,2015,2031,2048,1995,2003,2036,2055
2022,2016,2039,2049,1983,1988,2030,2052
2021,2016,2049,2043,1979,1987,2024,2052
2019,2022,2045,2057,1999,2008,2047,2049
2025,2023,2037,2056,2036,2025,2054,2050
2024,2015,2022,2053,2056,2034,2042,2043
2025,2011,2008,2035,2061,2044,2045,2047
2026,2015,2009,2032,2075,2047,2067,2042
2030,2030,2021,2041,2070,2043,2070,2040
2038,2051,2041,2056,2061,2047,2047,2049
2050,2064,2046,2057,2043,2037,2034,2047
2059,2067,2046,2053,2021,2019,2047,2045
2063,2070,2057,2045,2000,2006,2041,2048
2059,2074,2066,2038,1988,1986,2027,2035
2057,2064,2059,2028,1986,1992,2047,2029
2051,2060,2059,2027,2014,2027,2045,2029
2056,2071,2076,2038,2062,2059,2052,2027
2054,2064,2073,2046,2082,2082,2048,2019
2050,2069,2064,2035,2086,2101,2036,2015
2055,2076,2067,2034,2077,2099,2050,2017
2048,2067,2061,2033,2040,2081,2041,2025
2048,2065,2057,2030,2011,2070,2049,2032
2046,2060,2055,2034,2006,2042,2047,2035
2049,2065,2056,2043,2034,2008,2032,2045
2056,2065,2069,2054,2053,2014,2032,2046
2060,2074,2073,2056,2056,2027,2032,2052
2056,2070,2077,2056,2056,2043,2038,2057
2054,2066,2072,2048,2055,2047,2050,2061
2054,2062,2071,2042,2051,2045,2052,2059
2049,2062,2067,2044,2069,2049,2039,2066
2049,2055,2066,2043,2079,2059,2040,2076
2050,2060,2074,2050,2076,2059,2056,2084
2049,2062,2072,2058,2077,2068,2037,2080
2054,2056,2066,2063,2092,2069,2037,2074
2046,2050,2063,2064,2088,2073,2065,2065
2048,2052,2060,2065,2083,2067,2055,2063
2046,2051,2057,2065,2058,2049,2042,2063
2049,2057,2064,2059,2024,2009,2061,2056
2054,2063,2068,2062,2038,1987,2052,2063
2052,2059,2068,2062,2040,2005,2025,2053
2046,2055,2056,2035,1985,2015,2022,2042
2043,2051,2049,2033,2012,2067,2065,2044
2055,2059,2054,2061,2072,2112,2060,2046
2057,2063,2061,2067,2110,2095,2066,2045
2056,2062,2060,2060,2136,2075,2049,2039
2053,2066,2061,2070,2142,2066,2047,2034
2051,2065,2055,2069,2145,2073,2042,2024
2043,2061,2047,2063,2149,2067,2033,2014
2044,2050,2042,2053,2132,2069,2046,2020
2040,2040,2036,2039,2109,2066,2045,2018
2032,2031,2025,2045,2088,2072,2043,2013
2042,2037,2032,2049,2034,2054,2025,2013
2039,2042,2034,2028,1906,2032,2006,2005
2039,2046,2032,2032,1933,2039,2022,1996
2044,2048,2036,2043,1983,2048,2037,1999
2039,2049,2033,2048,2020,2043,2027,2008
2040,2051,2033,2047,2039,2049,2046,2019
2048,2043,2035,2052,2044,2064,2055,2028
2044,2042,2041,2061,2063,2076,2059,2037
2048,2047,2047,2069,2062,2070,2068,2049
2044,2052,2055,2061,2047,2054,2055,2051
2034,2051,2061,2065,2036,2039,2057,2056
2045,2052,2055,2064,2031,2032,2051,2060
2048,2058,2054,2061,2031,2035,2040,2063
2048,2058,2047,2063,2025,2055,2035,2070
2050,2056,2037,2053,2020,2055,2035,2062
2042,2041,2033,2044,2018,2050,2033,2061
2039,2041,2039,2051,2042,2064,2031,2067
2051,2046,2036,2059,2079,2080,2048,2060
2054,2043,2031,2062,2083,2079,2043,2065
2050,2049,2038,2058,2075,2063,2024,2065
2049,2052,2042,2060,2079,2057,2043,2054
2050,2052,2050,2061,2081,2052,2027,2047
2048,2054,2050,2061,2088,2047,2033,2051
2051,2045,2046,2059,2084,2051,2045,2046
2045,2047,2038,2046,2043,2041,2077,2037
2046,2041,2030,2034,2036,2027,2085,2035
2049,2043,2030,2038,2040,2037,2058,2039
2048,2048,2034,2040,2026,2056,2047,2037
2051,2052,2038,2044,2021,2064,2037,2021
2051,2047,2044,2054,2036,2067,2034,2023
2041,2045,2043,2051,2034,2067,2034,2019
2045,2039,2042,2045,2026,2059,2011,2007
2052,2044,2044,2046,2030,2042,2020,2016
2049,2055,2045,2049,2024,2043,2009,2019
2050,2057,2049,2045,2045,2059,2026,2009
2046,2059,2054,2056,2084,2085,2038,2022
2057,2065,2065,2084,2110,2112,2050,2038
2063,2064,2064,2083,2102,2122,2050,2052
2057,2065,2063,2076,2092,2095,2053,2044
2055,2056,2061,2067,2078,2053,2034,2041
2046,2045,2052,2063,2059,1998,2044,2040
2045,2042,2050,2057,2040,2000,2045,2045
2038,2042,2048,2051,2017,2018,2044,2046
2044,2042,2047,2045,2013,2031,2037,2051
2040,2046,2047,2056,2025,2034,2045,2053
2040,2051,2049,2056,2044,2051,2041,2063
2039,2058,2053,2058,2041,2062,2035,2051
2031,2042,2049,2048,2034,2069,2056,2060
2036,2050,2050,2053,2036,2065,2054,2064
2043,2061,2053,2047,2032,2056,2064,2060
2048,2057,2052,2050,2022,2047,2030,2061
2051,2054,2050,2051,2025,2055,2052,2058
2052,2053,2045,2048,2066,2046,2060,2046
2043,2053,2044,2054,2110,2059,2061,2045
2046,2052,2041,2054,2098,2056,2059,2040
2054,2052,2034,2050,2079,2054,2050,2035
2054,2054,2040,2051,2047,2060,2054,2036
2054,2053,2035,2051,2018,2069,2055,2035
2047,2047,2039,2050,2014,2073,2054,2028
2046,2040,2032,2028,1978,2057,2042,2014
2042,2030,2024,2008,1948,2055,2040,2011
2040,2037,2029,2029,2043,2115,2056,2011
2042,2039,2033,2051,2058,2166,2070,2010
2038,2027,2027,2047,2028,2170,2041,2011
2040,2033,2033,2046,2014,2122,2039,2008
2043,2041,2033,2050,2009,2006,2025,2013
2039,2039,2036,2039,1981,1958,2003,2002
2039,2042,2031,2027,1975,2006,1997,2007
2031,2045,2035,2026,1979,2036,2018,2008
2035,2039,2032,2024,1975,2043,2043,2008
2037,2036,2037,2024,1985,2008,2020,2016
2031,2042,2033,2034,2046,2007,2032,2029
2047,2049,2045,2058,2106,2025,2073,2048
2051,2060,2051,2066,2100,2025,2059,2059
2052,2057,2046,2057,2076,2033,2060,2064
2050,2056,2043,2040,2063,2036,2075,2070
2057,2054,2037,2041,2047,2047,2079,2060
2045,2053,2033,2034,2049,2043,2076,2067
2053,2057,2044,2038,2038,2034,2069,2058
2040,2054,2046,2029,2048,2034,2071,2058
2043,2052,2058,2043,2070,2042,2076,2057
2047,2061,2071,2056,2074,2043,2057,2059
2052,2064,2074,2054,2082,2047,2073,2062
2052,2062,2070,2047,2068,2043,2059,2059
2051,2063,2064,2046,2046,2041,2058,2053
2045,2061,2065,2048,2053,2037,2052,2046
2047,2060,2060,2048,2047,2041,2051,2049
2052,2057,2068,2056,2055,2046,2049,2036
2048,2052,2052,2057,2049,2043,2036,2023
2046,2048,2054,2054,2031,2026,2011,2026
2045,2040,2046,2046,2030,2022,2024,2012
2047,2038,2043,2047,2018,2022,2025,2015
2051,2042,2051,2040,2027,2043,2026,2015
2047,2043,2044,2045,2039,2070,2073,2023
2054,2045,2050,2046,2055,2067,2056,2012
2051,2041,2042,2044,2086,2059,2027,2012
2050,2046,2046,2042,2102,2053,2024,2016
2056,2051,2054,2046,2105,2061,2051,2013
2052,2050,2052,2048,2117,2058,2056,2015
2055,2050,2055,2048,2113,2054,2075,2022
2064,2048,2055,2054,2105,2051,2064,2024
2060,2047,2056,2059,2099,2057,2064,2028
2051,2049,2054,2059,2072,2059,2058,2025
2046,2046,2060,2053,1970,2049,2069,2037
2052,2050,2056,2036,1941,2050,2056,2042
2051,2049,2056,2052,2010,2063,2071,2061
2051,2053,2060,2061,2046,2062,2092,2070
2056,2054,2057,2062,2043,2050,2084,2077
2051,2052,2054,2059,2036,2037,2072,2074
2052,2050,2051,2053,2023,2035,2053,2077
2047,2045,2050,2049,1997,2031,2064,2088
2050,2040,2042,2050,2027,2032,2063,2086
2044,2036,2042,2046,2034,2031,2060,2082
2045,2046,2050,2043,2008,2028,2061,2080
2047,2052,2049,2043,1994,2039,2068,2082
2048,2054,2047,2051,2004,2046,2072,2068
2045,2055,2049,2053,2028,2050,2068,2055
2049,2049,2042,2049,2024,2051,2055,2044
2053,2046,2043,2049,2006,2059,2058,2037
2052,2050,2042,2048,2029,2070,2074,2034
2056,2045,2043,2029,1983,2053,2066,2020
2045,2043,2036,2003,1906,2026,2050,2011
2048,2044,2038,2024,1991,2040,2053,2003
2047,2042,2042,2053,2078,2078,2057,2004
2048,2038,2043,2071,2115,2080,2048,2000
2048,2043,2049,2074,2121,2037,2035,2002
2049,2042,2049,2081,2138,2049,2053,2003
2037,2035,2044,2079,2133,2047,2055,2008
2044,2033,2048,2084,2116,2058,2061,2009
2041,2045,2057,2097,2154,2060,2058,2014
2049,2046,2051,2094,2168,2059,2039,2015
2051,2042,2050,2093,2149,2065,2060,2022
2050,2047,2056,2088,2141,2077,2076,2019
2046,2046,2049,2070,2064,2069,2069,2020
2046,2044,2042,2036,1955,2050,2066,2026
2046,2045,2040,2037,1975,2050,2068,2035
2055,2046,2043,2022,1931,2041,2066,2045
2055,2044,2030,2010,1901,2026,2056,2048
2052,2046,2040,2024,1931,2031,2064,2047
2054,2038,2032,2027,1939,2027,2050,2060
2050,2035,2024,2032,1965,2035,2057,2066
2049,2036,2024,2036,2000,2047,2047,2072
2043,2037,2020,2036,2011,2049,2039,2070
2042,2033,2019,2037,2032,2055,2035,2063
2045,2035,2020,2036,2090,2079,2039,2065
2047,2038,2039,2041,2130,2114,2063,2066
2051,2044,2046,2038,2121,2144,2051,2056
2051,2050,2049,2038,2105,2151,2062,2051
2056,2050,2053,2044,2080,2137,2067,2051
2050,2050,2058,2037,2084,2109,2063,2040
2044,2049,2059,2040,2098,2044,2070,2052
2059,2056,2068,2054,2151,2001,2054,2058
2063,2060,2072,2045,2120,1986,2052,2043
2058,2052,2066,2025,2033,1987,2034,2031
2056,2050,2064,2035,2004,1992,2036,2023
2051,2052,2060,2043,1996,2021,2042,2023
2059,2056,2062,2043,1971,2030,2061,2021
2052,2059,2060,2040,1868,2042,2068,2025
2060,2054,2057,2037,1923,2063,2056,2022
2058,2045,2048,2035,2025,2077,2073,2013
2044,2038,2047,2032,2026,2064,2073,2015
2050,2045,2046,2035,2036,2047,2067,2018
2056,2053,2047,2035,2029,2032,2069,2030
2056,2059,2055,2028,1994,2036,2062,2036
2061,2056,2054,2041,2005,2039,2066,2036
2064,2061,2049,2053,2039,2035,2060,2035
2056,2054,2057,2057,2068,2007,2047,2035
2056,2055,2052,2048,2012,1992,2041,2039
2057,2056,2051,2044,1992,2002,2045,2047
2055,2055,2059,2072,2059,2027,2056,2050
2054,2053,2056,2077,2099,2037,2071,2050
2052,2048,2042,2080,2144,2042,2058,2053
2048,2038,2041,2070,2159,2049,2050,2060
2044,2043,2040,2074,2167,2049,2026,2056
2045,2040,2028,2070,2134,2053,2032,2060
2044,2033,2029,2061,2102,2038,2019,2063
2040,2032,2022,2042,2021,2026,2021,2061
2049,2030,2025,2022,1896,2006,2029,2054
2053,2039,2030,2042,1953,2016,2035,2056
2054,2040,2036,2045,1984,2017,2033,2057
2049,2045,2032,2039,1986,2014,2028,2044
2048,2037,2041,2036,1996,2032,2048,2043
2053,2044,2046,2055,2037,2055,2046,2040
2052,2048,2051,2066,2073,2093,2069,2042
2066,2045,2049,2042,2033,2096,2055,2041
2056,2041,2052,2041,2038,2093,2073,2041
2059,2044,2063,2048,2041,2069,2052,2036
2064,2047,2065,2065,2068,2055,2052,2041
2060,2057,2076,2068,2058,2029,2041,2031
2061,2054,2065,2061,2055,2032,2042,2029
2059,2053,2062,2065,2097,2035,2038,2023
2056,2042,2055,2068,2132,2044,2020,2019
2049,2035,2047,2062,2135,2055,2041,2020
2052,2042,2050,2075,2135,2069,2060,2026
2054,2043,2047,2059,2089,2059,2044,2029
2052,2045,2048,2053,2028,2033,2034,2030
2048,2050,2049,2069,2027,2021,2051,2035
2057,2052,2058,2070,2059,2040,2043,2036
2060,2051,2053,2070,2099,2052,2021,2037
2059,2053,2053,2068,2052,2055,2027,2043
2052,2051,2052,2068,2073,2068,2037,2050
2056,2051,2044,2067,2061,2067,2047,2054
2044,2038,2037,2067,2030,2051,2035,2055
2042,2038,2033,2066,2010,2055,2053,2053
2041,2040,2034,2071,2007,2064,2039,2063
2045,2047,2039,2063,1989,2073,2053,2074
2045,2047,2037,2042,1962,2048,2038,2073
2044,2044,2037,2033,1978,2057,2036,2069
2038,2034,2032,2038,2008,2056,2021,2058
2034,2041,2034,2042,2016,2012,2015,2063
2047,2044,2037,2048,2024,2008,2034,2067
2049,2041,2042,2049,2043,2024,2025,2057
2044,2042,2038,2044,2074,2027,2027,2047
2039,2037,2039,2044,2098,2030,2013,2040
2034,2041,2044,2054,2106,2042,2029,2036
2041,2036,2058,2057,2076,2051,2027,2032
2048,2038,2065,2058,2043,2054,2059,2032
2051,2045,2057,2058,2042,2055,2047,2028
2047,2042,2055,2055,2037,2050,2030,2023
2045,2040,2066,2049,2008,2053,2028,2016
2051,2045,2067,2050,1991,2050,2028,2019
2054,2046,2071,2058,2031,2047,2017,2015
2053,2050,2071,2064,2071,2039,2034,2023
2060,2056,2069,2087,2131,2026,2039,2025
2056,2055,2063,2122,2224,2047,2058,2026
2060,2058,2083,2152,2240,2085,2063,2026
2063,2066,2083,2146,2188,2117,2066,2037
2065,2064,2081,2148,2108,2121,2056,2035
2060,2059,2062,2112,2013,2088,2054,2030
2056,2057,2045,2079,1846,2025,2046,2029
2051,2057,2042,2062,1834,1984,2024,2038
2058,2062,2049,2086,1967,1985,2039,2046
2054,2069,2057,2098,2095,2018,2048,2043
2050,2065,2040,2104,2140,2044,2039,2048
2044,2053,2026,2074,2081,2057,2024,2048
2040,2043,2007,2048,2028,2055,2045,2055
2042,2042,2009,2029,2019,2045,2040,2056
2043,2041,2003,2018,2029,2051,2046,2069
2043,2048,2004,2016,2059,2068,2061,2071
2040,2043,1996,2005,2097,2088,2063,2076
2031,2032,1998,2009,2078,2107,2051,2078
2035,2031,2016,2023,2082,2107,2049,2075
2039,2049,2035,2027,2080,2088,2049,2074
2043,2055,2057,2033,2085,2088,2071,2067
2056,2065,2073,2042,2090,2076,2066,2078
2066,2063,2076,2040,2030,2073,2074,2075
2061,2057,2067,2018,1976,2064,2068,2063
2056,2048,2052,2003,1975,2043,2040,2052
2055,2049,2051,1995,2020,2013,2043,2049
2050,2048,2043,2016,2072,2036,2036,2038
2044,2046,2029,2037,2108,2029,2027,2027
2044,2042,2031,2051,2110,2029,2022,2033
2046,2036,2029,2058,2077,2022,2037,2035
2044,2046,2030,2053,2055,2015,2076,2037
2050,2049,2034,2060,2042,2029,2078,2045
2059,2050,2036,2065,2045,2033,2064,2038
2050,2041,2032,2056,2023,2038,2048,2028
2056,2046,2033,2057,2021,2055,2044,2029
2063,2059,2037,2038,1943,2029,2036,2034
2055,2060,2037,2010,1820,1976,2020,2035
2065,2057,2031,2006,1892,1985,2022,2042
2064,2053,2030,2033,1988,2012,2036,2042
2057,2060,2022,2034,2007,2032,2040,2049
2054,2056,2034,2047,2085,2042,2040,2057
2058,2061,2050,2061,2134,2039,2041,2056
2052,2053,2057,2053,2118,2026,2018,2057
2050,2053,2061,2050,2060,2026,2017,2057
2049,2046,2062,2044,2042,2014,2009,2059
2042,2036,2064,2018,1994,2032,2025,2078
2045,2047,2075,2042,2102,2060,2046,2083
2044,2051,2076,2055,2198,2085,2067,2083
2051,2054,2077,2075,2233,2101,2076,2087
2051,2052,2077,2077,2144,2080,2066,2084
2049,2048,2071,2071,2087,2076,2068,2087
2050,2058,2067,2060,2039,2075,2074,2076
2055,2052,2069,2075,2075,2075,2059,2070
2053,2059,2070,2095,2118,2068,2043,2064
2059,2060,2066,2099,2114,2051,2015,2041
2050,2051,2059,2092,2060,2050,2023,2027
2039,2047,2053,2077,2065,2064,2009,2022
2042,2050,2055,2082,2073,2053,2019,2022
2041,2054,2059,2099,2086,2052,2037,2022
2046,2054,2053,2103,2101,2058,2037,2027
2050,2060,2062,2098,2104,2057,2050,2033
2053,2060,2063,2084,2095,2065,2061,2027
2047,2052,2065,2082,2059,2051,2057,2022
2051,2055,2062,2070,2014,2037,2054,2019
2057,2062,2061,2049,1996,2038,2048,2012
2044,2050,2041,2028,1980,2050,2050,2019
2046,2052,2047,2051,2007,2074,2065,2027
2061,2059,2044,2055,2008,2073,2039,2023
2053,2047,2034,2036,1983,2050,2054,2030
2048,2036,2018,2016,1970,2042,2037,2029
2046,2022,1985,2002,1972,2030,2037,2030
2043,2020,1984,1991,1931,2017,2041,2027
2045,2026,2000,2001,1964,2036,2041,2028
2041,2030,2009,2021,1999,2060,2063,2036
2053,2037,2034,2042,1985,2063,2071,2052
2055,2049,2036,2053,2027,2082,2080,2067
2057,2050,2036,2057,2046,2086,2072,2070
2056,2050,2033,2056,2068,2070,2070,2074
2054,2043,2031,2047,2069,2057,2054,2075
2046,2035,2020,2015,2065,2054,2046,2063
2041,2024,2008,2001,2054,2033,2043,2056
2031,2019,2006,2014,2073,2046,2042,2062
2040,2038,2032,2060,2137,2105,2048,2073
2062,2060,2060,2080,2119,2149,2073,2078
2059,2065,2069,2068,2071,2138,2068,2066
2058,2055,2064,2058,2111,2045,2043,2050
2054,2051,2072,2066,2141,1951,2024,2039
2060,2054,2091,2073,2228,1994,2043,2033
2059,2064,2100,2092,2319,2052,2058,2033
2061,2064,2096,2078,2317,2068,2052,2042
2054,2062,2094,2057,2227,2064,2059,2034
2057,2060,2083,2064,2194,2064,2052,2034
2059,2063,2081,2059,2185,2082,2060,2035
2062,2066,2076,2039,2096,2096,2058,2037
2063,2060,2060,2007,1860,2078,2060,2030
2061,2055,2041,1975,1731,2048,2068,2026
2054,2045,2033,1971,1759,2021,2046,2014
2039,2035,2018,2004,1879,2016,2068,2020
2037,2030,2021,2047,1980,2039,2069,2017
2046,2039,2018,2046,2007,2036,2043,2013
2040,2035,2009,2040,1996,2016,2053,2004
2036,2034,2006,2053,1999,2025,2040,2009
2038,2030,2005,2062,2021,2033,2037,2013
2045,2032,2015,2050,2003,2013,2036,2017
2040,2032,2013,2030,1989,1997,2026,2027
2044,2028,2016,2017,2004,2003,2030,2031
2042,2037,2019,2028,2017,2008,2024,2032
2043,2037,2032,2037,2037,2017,2036,2043
2043,2034,2039,2032,2033,2023,2009,2038
2040,2031,2048,2034,2034,2040,2042,2044
2044,2033,2072,2044,2008,2048,2026,2049
2048,2029,2080,2071,2056,2075,2050,2059
2038,2028,2084,2094,2115,2080,2054,2058
2030,2016,2071,2095,2119,2076,2044,2057
2031,2011,2066,2084,2094,2073,2053,2064
2042,2037,2070,2088,2095,2066,2061,2071
2048,2053,2068,2092,2104,2061,2060,2070
2055,2059,2063,2073,2096,2039,2044,2069
2056,2059,2050,2055,2049,2026,2045,2059
2062,2061,2046,2069,2117,2065,2060,2060
2056,2060,2046,2088,2150,2075,2054,2058
2062,2060,2048,2086,2130,2073,2053,2057
2066,2061,2048,2072,2082,2066,2065,2044
2070,2062,2048,2053,2059,2073,2049,2035
2059,2053,2035,2039,2070,2061,2036,2020
2049,2049,2026,2037,2065,2058,2030,2016
2044,2048,2028,2032,2025,2047,2039,2017
2053,2055,2039,2042,2096,2077,2055,2025
2068,2065,2039,2040,2156,2118,2074,2040
2066,2059,2026,2032,2199,2134,2072,2042
2065,2055,2017,2021,2209,2128,2046,2028
2053,2049,2013,2016,2204,2106,2021,2031
2060,2049,2013,1990,2026,2061,2038,2037
2069,2056,2022,1981,1940,2003,2038,2037
2065,2053,2021,1982,1926,1995,2032,2027
2052,2037,2011,1943,1778,1943,2013,2017
2043,2038,2027,1972,1921,1964,2035,2027
2052,2054,2053,2051,2108,2011,2056,2039
2058,2066,2065,2071,2099,2026,2050,2054
2048,2061,2072,2066,2065,2024,2061,2052
2053,2057,2056,2046,2042,2016,2046,2055
2051,2049,2045,2028,2009,2031,2055,2069
2057,2047,2052,2030,2002,2034,2039,2077
2052,2044,2046,2029,1949,2030,2035,2074
2053,2043,2050,2038,1972,2064,2062,2082
2055,2053,2061,2058,1990,2096,2083,2081
2049,2055,2067,2051,1952,2092,2052,2076
2044,2049,2063,2031,1944,2073,2052,2072
2049,2055,2057,2025,1910,2058,2031,2063
2046,2056,2051,2020,1864,2016,2036,2067
2045,2057,2056,2023,1945,1978,2051,2061
2051,2064,2063,2059,2072,2016,2052,2060
2058,2080,2084,2091,2134,2045,2057,2056
2054,2081,2092,2090,2127,2032,2042,2051
2057,2073,2090,2077,2100,2009,2040,2041
2051,2065,2085,2076,2081,2004,2035,2032
2050,2054,2080,2074,2070,2004,2043,2029
2044,2048,2077,2066,2054,2022,2025,2020
2050,2047,2072,2056,2015,2037,2035,2005
2040,2044,2073,2049,1994,2043,2034,2006
2038,2037,2067,2056,1987,2030,2034,2010
2040,2043,2070,2070,1949,2033,2054,2019
2043,2038,2069,2068,1921,2047,2046,2017
2042,2040,2069,2082,2056,2063,2066,2018
2056,2056,2078,2097,2162,2085,2082,2032
2062,2063,2079,2089,2110,2060,2069,2036
2055,2055,2064,2061,2012,2037,2076,2028
2047,2044,2040,2039,1969,2024,2034,2025
2041,2029,2035,2036,1994,2047,2039,2029
2046,2036,2044,2052,2004,2079,2053,2048
2041,2048,2043,2069,2076,2101,2059,2062
2053,2056,2064,2076,2074,2101,2055,2073
2051,2063,2062,2067,2042,2082,2059,2079
2055,2061,2047,2060,2106,2076,2064,2076
2061,2054,2028,2061,2195,2082,2054,2086
2036,2034,1997,2054,2227,2082,2050,2077
2030,2029,1984,2068,2252,2087,2045,2079
2051,2038,2007,2102,2239,2077,2054,2083
2056,2043,2017,2094,2188,2106,2064,2082
2046,2038,2016,2073,2136,2134,2062,2076
2050,2034,2016,2036,2067,2116,2057,2062
2042,2035,2006,2031,2103,2090,2050,2061
2043,2033,2010,2008,1985,2042,2031,2051
2044,2041,2020,2000,1970,1999,2031,2048
2043,2039,2019,1984,1946,1960,2017,2035
2040,2040,2027,1978,1941,1956,2002,2025
2045,2055,2044,2002,2010,1996,2025,2036
2058,2062,2058,2036,2059,2032,2047,2029
2053,2059,2064,2060,2120,2051,2047,2025
2049,2051,2064,2062,2133,2052,2042,2024
2046,2049,2064,2068,2135,2047,2028,2021
2050,2050,2069,2069,2158,2025,2042,2014
2044,2045,2068,2059,2115,2022,2031,2017
2039,2046,2067,2034,2016,2040,2010,2019
2042,2053,2063,2039,2025,2036,2017,2018
2037,2040,2055,2016,1937,2017,2003,2010
2026,2020,2043,1979,1830,1995,2011,2019
2035,2036,2049,2016,1911,2010,2053,2025
2046,2043,2047,2040,1989,2026,2052,2033
2044,2034,2038,2063,2070,2054,2057,2029
2034,2035,2034,2081,2122,2077,2055,2019
2037,2039,2029,2067,2035,2053,2048,2019
2039,2039,2026,2041,2019,2048,2054,2032
2046,2042,2020,2050,2071,2061,2063,2038
2050,2034,2009,2052,2040,2060,2062,2046
2046,2027,2014,2053,2011,2048,2064,2055
2047,2026,2030,2076,2005,2063,2078,2061
2052,2029,2049,2083,1977,2065,2066,2066
2042,2030,2054,2096,2020,2079,2075,2071
2046,2034,2056,2090,2093,2094,2063,2068
2039,2026,2037,2062,2074,2063,2039,2061
2032,2009,2024,2032,2057,2054,2026,2059
2036,2015,2027,2033,2093,2052,2043,2061
2045,2030,2049,2067,2130,2017,2039,2064
2047,2038,2062,2073,2113,2009,2046,2062
2044,2035,2064,2068,2052,2019,2058,2055
2043,2042,2069,2070,2019,2042,2062,2059
2056,2055,2085,2084,1999,2042,2050,2056
2053,2067,2101,2067,1952,2032,2051,2054
2060,2064,2092,2056,1910,2020,2052,2047
2049,2056,2083,2052,1977,2039,2052,2048
2055,2061,2078,2059,2061,2054,2065,2052
2058,2066,2081,2052,2120,2065,2069,2051
2060,2069,2073,2039,2116,2062,2074,2040
2061,2063,2059,2005,2123,2080,2060,2038
2061,2054,2035,1971,2083,2106,2070,2033
2054,2045,2035,1972,2041,2110,2062,2034
2048,2038,2034,1984,1987,2103,2054,2019
2038,2027,2036,1986,1903,2065,2063,2027
2046,2044,2046,1990,1801,2031,2059,2037
2055,2047,2058,2019,1902,2040,2083,2048
2058,2059,2058,2025,1933,2058,2072,2047
2058,2049,2049,2012,1912,2050,2067,2037
2054,2047,2048,2038,1998,2054,2057,2045
2055,2047,2051,2068,2064,2028,2050,2046
2050,2046,2052,2069,2020,2017,2042,2052
2053,2046,2051,2046,1928,2003,2039,2066
2059,2055,2052,2051,1952,2029,2056,2072
2057,2056,2058,2064,2014,2072,2079,2073
2065,2047,2056,2048,2041,2067,2076,2072
2054,2043,2046,2020,1926,2087,2058,2064
2056,2039,2041,2010,1848,2105,2062,2067
2046,2042,2036,1991,1728,2054,2051,2068
2044,2033,2031,1994,1830,1987,2003,2061
2034,2025,2023,1994,1885,1958,1990,2052
2032,2027,2027,2035,2102,1982,2018,2053
2035,2028,2034,2100,2415,2081,2051,2060
2032,2035,2043,2132,2453,2109,2058,2061
2042,2038,2048,2093,2243,2056,2059,2057
2047,2042,2038,2051,2075,2037,2054,2055
2050,2043,2029,2023,2045,2042,2031,2047
2051,2038,2021,2012,2110,2033,2030,2034
2041,2031,2018,2025,2129,2042,2016,2027
2039,2022,2015,2035,2167,2070,2034,2020
2037,2019,2020,2047,2158,2097,2058,2016
2033,2027,2029,2061,2187,2126,2070,2023
2037,2036,2037,2068,2160,2117,2061,2023
2044,2034,2034,2059,2089,2069,2071,2028
2050,2043,2034,2044,2014,2036,2053,2031
2044,2045,2039,2042,2005,2031,2051,2023
2041,2038,2034,2045,1998,1993,2039,2022
2033,2040,2031,2036,1948,1962,2030,2016
2042,2046,2044,2020,1934,1949,2023,2027
2052,2051,2049,2012,1889,1956,2054,2034
2052,2054,2054,2019,1931,1980,2045,2041
2046,2047,2059,2033,2010,1998,2053,2043
2044,2052,2061,2060,2105,2032,2043,2045
2038,2056,2067,2092,2176,2073,2050,2047
2048,2057,2075,2089,2113,2101,2069,2046
2047,2058,2070,2056,1969,2123,2045,2046
2056,2061,2060,2025,1868,2106,2044,2047
2050,2050,2052,1990,1791,2076,2031,2064
2043,2041,2041,1972,1671,1994,2026,2076
2044,2038,2052,2008,1826,1952,2027,2080
2043,2042,2063,2055,1933,1964,2049,2072
2049,2040,2059,2072,1995,1996,2040,2076
2039,2040,2056,2069,2065,2039,2034,2066
2044,2029,2054,2066,2183,2088,2065,2072
2052,2043,2065,2100,2280,2124,2086,2076
2057,2043,2062,2101,2176,2092,2069,2070
2051,2035,2060,2070,2083,2043,2026,2062
2045,2034,2043,2055,2079,2020,2042,2061
2041,2024,2034,2021,1921,1976,2041,2050
2033,2012,2005,1971,1848,1976,2008,2038
2035,2003,2013,1990,1950,2016,2021,2038
2054,2030,2039,2060,2155,2051,2032,2047
2072,2054,2062,2110,2264,2087,2046,2055
2076,2064,2066,2138,2277,2116,2063,2049
2066,2050,2047,2106,2160,2083,2054,2034
2046,2039,2039,2066,2124,2067,2039,2019
2032,2029,2033,2066,2160,2079,2049,2011
2031,2039,2034,2073,2160,2063,2037,2010
2027,2028,2020,2044,1988,2009,2035,2017
2037,2036,2026,2057,2144,2037,2039,2031
2061,2052,2041,2080,2236,2069,2057,2038
2053,2047,2032,2086,2257,2086,2046,2035
2052,2045,2049,2116,2361,2126,2068,2051
2060,2055,2058,2138,2322,2142,2072,2056
2064,2057,2067,2123,2239,2125,2060,2056
2070,2055,2061,2115,2216,2100,2050,2061
2067,2051,2055,2073,2089,2091,2051,2055
2055,2048,2044,1999,1815,2078,2048,2054
2045,2042,2049,2019,2031,2068,2050,2064
2043,2048,2057,2029,2010,2016,2021,2062
2041,2048,2060,1998,1808,1979,2014,2062
2033,2035,2047,1940,1493,1910,2004,2045
2024,2020,2031,1918,1489,1877,2005,2048
2026,2020,2035,1963,1710,1930,2017,2052
2019,2016,2038,2034,1948,2003,2032,2056
2027,2026,2038,2061,2106,2037,2047,2060
2046,2038,2042,2061,2185,2057,2040,2065
2050,2043,2049,2047,2157,2047,2034,2062
2044,2043,2042,2039,2132,2034,2029,2056
2039,2040,2039,2053,2178,2050,2051,2052
2050,2036,2043,2077,2171,2076,2056,2050
2040,2041,2044,2058,2110,2083,2045,2035
2042,2036,2041,2052,2059,2075,2029,2034
2044,2041,2049,2044,2020,2068,2040,2040
2041,2041,2049,2055,2047,2072,2035,2038
2034,2046,2058,2061,2076,2084,2047,2022
2040,2053,2059,2070,2123,2088,2049,2026
2040,2056,2056,2076,2188,2100,2062,2029
2046,2060,2061,2089,2197,2082,2052,2047
2053,2055,2061,2086,2153,2051,2053,2041
2047,2053,2049,2063,2081,2002,2035,2025
2043,2055,2047,2034,1990,1958,2036,2034
2049,2057,2058,2042,2013,1989,2055,2038
2051,2063,2057,2040,1997,2021,2056,2050
2055,2062,2052,2036,1971,2039,2052,2046
2056,2057,2049,2034,1967,2047,2051,2042
2047,2059,2046,2036,1965,2043,2062,2040
2056,2057,2053,2042,1966,2047,2046,2040
2042,2051,2047,2042,1977,2049,2031,2025
2028,2042,2039,2048,2006,2049,2037,2020
2023,2038,2033,2047,2078,2058,2041,2031
2023,2038,2040,2077,2170,2087,2058,2046
2035,2043,2052,2092,2196,2093,2054,2076
2041,2050,2053,2109,2251,2067,2056,2085
2047,2050,2050,2109,2223,2058,2056,2080
2043,2046,2045,2087,2153,2055,2057,2079
2037,2027,2030,2051,2117,2048,2034,2063
2026,2009,2013,2007,1988,2034,2040,2069
2025,2028,2028,2043,1991,2056,2046,2074
2034,2050,2052,2070,2015,2075,2056,2064
2036,2051,2052,2078,2012,2085,2066,2071
2040,2050,2046,2070,2009,2084,2068,2063
2053,2054,2048,2061,1910,2081,2058,2056
2056,2053,2046,2047,1894,2087,2070,2058
2044,2045,2041,2048,1988,2083,2067,2055
2053,2052,2049,2057,2044,2072,2073,2056
2056,2060,2052,2060,2101,2065,2065,2046
2049,2052,2038,2034,2021,2025,2046,2036
2049,2041,2033,2021,2027,2008,2044,2028
2045,2030,2027,2022,2054,2003,2021,2026
2042,2028,2028,2031,2055,1988,2005,2018
2042,2032,2039,2054,2128,2016,2014,2016
2035,2040,2041,2068,2131,2027,2034,2011
2027,2047,2043,2070,2090,2035,2054,2018
2038,2050,2059,2064,2076,2048,2068,2016
2045,2051,2061,2068,2074,2058,2079,2015
2039,2050,2059,2069,2084,2069,2068,2020
2044,2052,2051,2072,2101,2058,2058,2032
2050,2052,2059,2078,2096,2064,2051,2046
2050,2057,2059,2078,2103,2063,2070,2052
2043,2059,2047,2073,2112,2057,2060,2052
2045,2051,2038,2060,2088,2055,2088,2053
2042,2045,2032,2041,2079,2046,2070,2061
2037,2045,2030,2039,2074,2058,2047,2068
2051,2052,2029,2036,2028,2057,2055,2072
2050,2046,2031,2040,2052,2051,2059,2066
2042,2043,2030,2051,2021,2040,2036,2062
2037,2038,2032,2053,1983,2028,2032,2066
2038,2039,2035,2050,1980,2026,2025,2059
2037,2027,2032,2045,2034,2057,2032,2061
2038,2039,2039,2063,2134,2095,2041,2063
2041,2045,2044,2071,2203,2108,2054,2066
2043,2052,2054,2056,2168,2079,2046,2062
2044,2055,2054,2050,2123,2068,2047,2057
2047,2058,2043,2056,2147,2073,2038,2051
2045,2050,2044,2052,2128,2064,2027,2042
2046,2055,2044,2066,2129,2062,2034,2038
2054,2058,2052,2070,2093,2058,2025,2038
2048,2060,2052,2046,1937,2034,2024,2033
2047,2056,2053,2032,1930,2035,2027,2034
2055,2063,2055,2047,2018,2041,2061,2042
2060,2059,2058,2047,2039,2037,2060,2038
2056,2058,2052,2049,2032,2046,2057,2036
2050,2052,2046,2043,2036,2058,2060,2032
2047,2047,2042,2042,2050,2069,2033,2019
2033,2031,2028,2036,2045,2053,2024,2014
2029,2028,2033,2046,2048,2047,2041,2018
2035,2039,2042,2043,2041,2015,2025,2016
2033,2036,2034,2040,2044,2013,1994,2024
2040,2045,2040,2049,2067,2032,2030,2031
2045,2055,2048,2053,2070,2027,2036,2032
2048,2055,2058,2057,2070,2052,2044,2041
2052,2050,2053,2062,2068,2060,2056,2044
2046,2049,2052,2062,2062,2056,2074,2045
2044,2049,2048,2060,2040,2057,2069,2055
2045,2046,2047,2058,2051,2049,2065,2055
2043,2049,2050,2059,2043,2046,2066,2059
2043,2041,2052,2058,2025,2047,2061,2061
2042,2045,2044,2058,2018,2051,2072,2074
2046,2047,2044,2050,2011,2056,2068,2078
2045,2050,2049,2051,2025,2055,2058,2083
2041,2046,2043,2046,2041,2053,2064,2070
2038,2037,2038,2041,2058,2057,2076,2077
2046,2050,2044,2053,2069,2073,2073,2076
2042,2046,2042,2052,2086,2072,2080,2070
2044,2048,2042,2072,2108,2071,2068,2072
2045,2050,2053,2065,2097,2061,2079,2064
2046,2053,2051,2054,2057,2071,2068,2063
2045,2050,2049,2047,2056,2074,2072,2053
2050,2053,2050,2044,2047,2074,2072,2044
2050,2054,2053,2045,2046,2057,2069,2043
2049,2056,2051,2056,2062,2046,2064,2033
2048,2051,2057,2066,2055,2045,2058,2032
2041,2050,2058,2084,2129,2056,2033,2029
2043,2046,2056,2100,2216,2097,2034,2028
2042,2042,2054,2105,2220,2148,2049,2025
2039,2047,2052,2099,2182,2167,2062,2018
2041,2037,2045,2078,2129,2149,2053,2014
2037,2039,2043,2054,2086,2122,2060,2019
2045,2047,2049,2039,2022,2035,2033,2027
2044,2046,2045,1989,1857,1917,2019,2027
2046,2056,2048,1988,1873,1883,2023,2036
2060,2061,2054,2029,1906,1949,2064,2051
2054,2065,2058,2064,1955,2021,2084,2056
2057,2065,2050,2083,2051,2079,2085,2058
2045,2047,2044,2083,2088,2065,2088,2053
2044,2045,2037,2081,2123,2040,2061,2051
2044,2050,2044,2080,2127,2028,2074,2062
2041,2047,2037,2068,2100,2020,2071,2060
2039,2047,2046,2074,2131,2056,2075,2063
2045,2052,2061,2089,2130,2079,2066,2065
2045,2050,2049,2071,2128,2092,2057,2067
2042,2043,2037,2047,2112,2075,2031,2061
2035,2028,2026,2032,2103,2056,2018,2056
2026,2030,2026,2020,2049,2041,2033,2064
2036,2047,2039,2018,2013,2076,2064,2063
2036,2046,2047,2047,2096,2128,2078,2067
2046,2052,2055,2060,2078,2156,2072,2065
2047,2049,2043,2035,1979,2096,2033,2061
2047,2049,2045,2045,2038,2008,2013,2041
2046,2051,2047,2052,2048,1930,2015,2034
2045,2054,2042,2048,2045,1961,2028,2037
2045,2057,2043,2048,2054,2006,2049,2035
2047,2057,2046,2048,2050,2027,2051,2022
2048,2056,2044,2053,2048,2025,2041,2021
2044,2049,2045,2048,2037,2018,2052,2022
2045,2051,2045,2040,2020,2016,2047,2020
2044,2052,2045,2047,2022,2020,2061,2020
2046,2055,2044,2055,2044,2041,2042,2011
2041,2046,2041,2047,2051,2033,2030,2012
2038,2045,2036,2043,2037,2022,2044,2021
2043,2048,2047,2058,2069,2035,2059,2019
2043,2055,2048,2055,2081,2047,2056,2028
2046,2052,2047,2061,2112,2051,2055,2026
2042,2053,2053,2061,2105,2044,2034,2029
2047,2054,2054,2063,2090,2036,2033,2034
2050,2055,2054,2067,2130,2064,2034,2041
2048,2052,2056,2062,2149,2073,2043,2032
2046,2050,2044,2039,2072,2057,2025,2045
2043,2047,2046,2039,2057,2065,2038,2049
2044,2050,2046,2037,1938,2052,2061,2048
2042,2049,2045,2030,1924,2024,2058,2057
2043,2045,2041,2053,2037,2011,2044,2057
2036,2038,2040,2093,2204,2060,2070,2076
2045,2045,2050,2114,2273,2090,2090,2078
2038,2040,2034,2076,2221,2063,2070,2071
2025,2030,2030,2030,2125,2047,2053,2073
2039,2041,2040,2045,2080,2046,2053,2073
2042,2048,2042,2029,1966,2035,2032,2052
2034,2037,2021,1969,1715,1997,2003,2041
2033,2039,2021,1987,1788,1974,2027,2048
2039,2050,2036,2018,1839,1997,2067,2057
2056,2054,2051,2057,1979,2059,2093,2055
2060,2054,2056,2084,2135,2095,2092,2047
2049,2048,2049,2064,2192,2095,2041,2031
2049,2043,2056,2060,2190,2096,2037,2029
2052,2055,2062,2062,2169,2090,2034,2031
2044,2051,2056,2055,2169,2062,2052,2024
2048,2047,2047,2049,2258,2055,2053,2015
2044,2051,2045,2049,2164,2032,2052,2021
2041,2047,2046,2042,2040,2016,2032,2016
2033,2039,2049,2057,1993,2014,2045,2018
2035,2043,2052,2068,1977,2028,2046,2029
2049,2055,2059,2066,1988,2041,2055,2038
2050,2058,2053,2057,2030,2044,2057,2042
2051,2054,2047,2032,2016,2041,2050,2030
2043,2051,2041,2019,2039,2055,2029,2024
2036,2053,2046,2029,2091,2077,2042,2032
2047,2061,2052,2041,2095,2055,2031,2034
2044,2056,2058,2048,2049,2008,2044,2035
2042,2050,2052,2065,1995,1999,2051,2047
2045,2054,2058,2079,2014,2035,2061,2057
2043,2052,2056,2076,2065,2063,2070,2069
2052,2059,2060,2088,2120,2080,2079,2077
2057,2055,2061,2087,2146,2092,2062,2076
2050,2051,2054,2070,2125,2075,2047,2072
2034,2041,2046,2056,2106,2059,2043,2062
2024,2031,2033,2052,2104,2052,2033,2060
2025,2032,2038,2039,2040,2030,2030,2071
2036,2041,2043,2039,2039,2032,2042,2070
2038,2041,2049,2062,2072,2037,2032,2058
2038,2043,2060,2065,2064,2030,2042,2057
2039,2043,2054,2066,2085,2041,2037,2047
2037,2042,2049,2063,2116,2048,2048,2051
2040,2045,2055,2062,2127,2059,2046,2044
2038,2045,2051,2067,2134,2061,2042,2046
2045,2047,2053,2063,2113,2062,2042,2042
2045,2049,2048,2057,2044,2053,2038,2036
2049,2050,2051,2058,2026,2048,2014,2033
2040,2042,2050,2059,2047,2042,2049,2032
2043,2047,2051,2058,2062,2045,2047,2023
2044,2044,2050,2056,2023,2034,2034,2028
2040,2052,2051,2049,2001,2038,2044,2018
2039,2041,2047,2036,1982,2049,2060,2021
2041,2048,2044,2042,1993,2057,2052,2024
2052,2060,2053,2040,2004,2054,2066,2024
2045,2060,2052,2040,2026,2050,2059,2026
2050,2056,2053,2059,2077,2028,2073,2039
2053,2057,2061,2067,2109,2037,2064,2041
2049,2059,2056,2056,2098,2035,2063,2039
2052,2068,2062,2057,2120,2020,2031,2047
2051,2073,2074,2076,2179,2024,2056,2051
2056,2077,2071,2093,2165,2026,2049,2056
2051,2070,2068,2098,2153,2042,2047,2065
2046,2067,2068,2100,2160,2048,2047,2070
2052,2062,2059,2092,2159,2044,2041,2073
2048,2056,2054,2071,2124,2039,2036,2069
2042,2046,2050,2032,1997,2026,2014,2063
2030,2033,2041,2022,2022,2024,2030,2054
2025,2034,2040,2035,2069,2043,2053,2064
2027,2057,2063,2076,2125,2063,2056,2072
2040,2070,2072,2088,2153,2054,2063,2078
2050,2072,2074,2086,2149,2048,2054,2068
2057,2067,2062,2086,2166,2050,2069,2064
2050,2064,2067,2077,2131,2042,2061,2061
2046,2059,2058,2072,2077,2034,2052,2039
2035,2054,2053,2053,1991,2037,2044,2027
2038,2049,2045,2016,1871,2035,2051,2036
2046,2054,2047,2033,1945,2060,2059,2030
2044,2049,2049,2044,1982,2055,2053,2031
2039,2045,2042,2051,2007,2053,2051,2031
2039,2033,2037,2048,2049,2059,2037,2029
2038,2036,2040,2056,2114,2072,2047,2034
2055,2051,2050,2073,2163,2082,2044,2036
2055,2052,2057,2070,2157,2056,2038,2023
2046,2042,2045,2048,2051,2020,2049,2018
2041,2049,2054,2056,2015,2027,2052,2023
2041,2050,2054,2054,2020,2026,2047,2018
2045,2042,2045,2054,2041,2031,2056,2023
2044,2045,2042,2054,2065,2034,2059,2033
2045,2044,2049,2056,2065,2046,2058,2038
2054,2059,2057,2060,2069,2048,2058,2050
2053,2058,2053,2059,2065,2041,2057,2059
2057,2058,2055,2064,2057,2042,2032,2062
2063,2062,2050,2066,2034,2037,2050,2066
2055,2055,2049,2058,2018,2041,2042,2067
2059,2053,2049,2070,2040,2044,2056,2071
2054,2048,2054,2078,2082,2061,2054,2076
2052,2049,2047,2070,2069,2048,2049,2078
2051,2047,2031,2060,2070,2045,2046,2073
2048,2040,2024,2048,2072,2039,2043,2071
2039,2031,2025,2038,2037,2041,2047,2075
2040,2043,2033,2061,2090,2042,2047,2081
2050,2050,2032,2063,2081,2035,2043,2074
2052,2049,2033,2051,2055,2031,2039,2066
2042,2041,2028,2053,2083,2052,2021,2062
2050,2042,2031,2062,2089,2059,2036,2052
2046,2043,2025,2048,2091,2068,2050,2048
2050,2039,2023,2047,2098,2063,2065,2058
2052,2036,2019,2039,2090,2056,2065,2045
2040,2034,2016,2037,2076,2056,2064,2044
2052,2039,2035,2052,2084,2062,2060,2038
2060,2041,2051,2067,2072,2061,2048,2034
2054,2046,2061,2070,2047,2040,2052,2032
2049,2044,2072,2069,2007,2042,2049,2027
2045,2049,2083,2098,2050,2050,2050,2015
2041,2054,2081,2105,2011,2034,2034,2010
2039,2033,2083,2111,1985,2023,2018,2007
2039,2032,2092,2109,2000,2022,2029,2016
2047,2042,2098,2109,2028,2040,2044,2026
2045,2039,2087,2085,2030,2046,2034,2026
2042,2038,2086,2088,2086,2082,2049,2036
2041,2042,2077,2089,2094,2088,2056,2034
2037,2039,2066,2087,2085,2072,2049,2036
2040,2038,2064,2085,2078,2069,2062,2046
2041,2042,2065,2093,2069,2076,2060,2054
2041,2052,2062,2095,2073,2068,2058,2064
2045,2054,2064,2084,2080,2060,2060,2074
2048,2046,2057,2080,2096,2051,2045,2072
2050,2043,2051,2064,2107,2035,2046,2077
2045,2046,2049,2050,2101,2030,2054,2088
2047,2054,2049,2029,2080,2028,2063,2084
2048,2051,2054,2009,2065,2027,2056,2074
2037,2041,2046,1997,2051,2014,2031,2066
2036,2037,2049,2001,2040,2013,2025,2073
2035,2045,2062,2007,2029,2018,2019,2073
2049,2052,2061,2008,2033,2033,2031,2073
2051,2051,2056,2012,2052,2050,2053,2078
2054,2056,2066,2023,2067,2055,2060,2079
2058,2053,2066,2027,2067,2048,2049,2068
2054,2050,2063,2027,2056,2036,2054,2056
2045,2046,2066,2036,2072,2040,2014,2054
2048,2048,2053,2050,2133,2037,2025,2051
2051,2047,2049,2056,2165,2051,2037,2046
2060,2049,2043,2062,2183,2060,2051,2040
2054,2054,2043,2074,2194,2059,2045,2033
2051,2049,2037,2077,2171,2051,2043,2043
2043,2036,2026,2066,2114,2041,2044,2037
2045,2034,2019,2053,2028,2020,2021,2026
2041,2028,2012,2017,1850,2005,2031,2028
2043,2030,2015,2027,1892,2027,2025,2028
2050,2042,2020,2041,1941,2040,2035,2029
2052,2040,2021,2058,2015,2071,2041,2034
2056,2041,2021,2070,2072,2097,2043,2038
2057,2043,2020,2071,2085,2101,2065,2044
2048,2044,2021,2058,2072,2087,2036,2048
2047,2043,2018,2048,2081,2076,2051,2051
2043,2044,2014,2049,2094,2067,2049,2059
2046,2036,2016,2046,2097,2062,2049,2071
2045,2037,2013,2041,2095,2066,2033,2069
2045,2042,2013,2035,2089,2066,2031,2065
2044,2039,2012,2025,2079,2059,2022,2071
2037,2038,2010,2020,2063,2051,2035,2079
2047,2041,2021,2020,2046,2046,2022,2085
2040,2045,2033,2021,2040,2049,2012,2083
2047,2053,2032,2017,2039,2044,2047,2090
2053,2060,2030,2017,2008,2033,2036,2092
2053,2067,2043,2033,2018,2037,2047,2086
2059,2061,2049,2052,2054,2057,2053,2078
2055,2054,2037,2041,2052,2042,2029,2074
2048,2037,2010,2028,2055,2044,2012,2061
2046,2033,2006,2038,2042,2059,2028,2050
2044,2022,1998,2037,2013,2050,2023,2047
2040,2020,1986,2025,2005,2024,2034,2045
2036,2019,1982,2026,2028,2021,2030,2040
2034,2010,1969,2029,2037,2009,2025,2039
2036,2018,1962,2032,2032,2016,2030,2032
2042,2021,1952,2044,2053,2020,2038,2030
2038,2024,1953,2051,2090,2035,2035,2027
2039,2019,1951,2056,2145,2054,2023,2021
2034,2020,1968,2048,2168,2051,2035,2016
2038,2018,1986,2041,2172,2040,2031,2014
2041,2022,2009,2036,2215,2046,2021,2016
2042,2032,2044,2040,2206,2057,2019,2017
2043,2049,2075,2044,2166,2065,2021,2020
2046,2066,2115,2045,2063,2057,2028,2025
2050,2076,2128,2024,1910,2038,2030,2032
2047,2076,2120,2032,1958,2044,2034,2039
2047,2076,2116,2049,1988,2044,2040,2042
2050,2070,2115,2062,2019,2052,2049,2048
2050,2072,2112,2064,2034,2056,2050,2056
2054,2079,2119,2076,2061,2067,2046,2068
2065,2080,2124,2078,2099,2077,2054,2079
2066,2088,2126,2087,2096,2069,2049,2080
2064,2080,2119,2080,2064,2068,2050,2086
2065,2080,2110,2071,2018,2042,2032,2085
2058,2074,2093,2032,1954,1993,2034,2084
2048,2055,2073,2016,1982,1998,2025,2082
2048,2056,2076,2026,2058,2036,2029,2084
2054,2062,2071,2040,2111,2058,2043,2079
2053,2058,2067,2028,2068,2064,2031,2073
2046,2052,2065,2026,2014,2080,2046,2074
2056,2052,2064,2037,2003,2086,2060,2069
2055,2053,2075,2055,2006,2093,2048,2063
2051,2053,2089,2065,1999,2073,2057,2052
2049,2050,2088,2068,1991,2014,2046,2050
2049,2042,2074,2080,2015,2008,2042,2046
2049,2041,2079,2093,2084,2019,2048,2039
2052,2059,2082,2107,2131,2038,2047,2040
2050,2052,2065,2101,2106,2043,2040,2043
2047,2052,2056,2104,2084,2041,2037,2034
2049,2045,2037,2095,2076,2049,2048,2030
2044,2044,2024,2088,2060,2037,2038,2027
2041,2032,2009,2083,2075,2044,2030,2018
2042,2036,2011,2078,2099,2051,2042,2036
2051,2049,2019,2083,2096,2059,2055,2037
2054,2061,2043,2077,2081,2062,2056,2040
2050,2059,2040,2074,2079,2054,2069,2037
2053,2061,2041,2068,2075,2051,2051,2044
2044,2054,2035,2052,2072,2039,2053,2041
2041,2041,2027,2038,2041,2029,2042,2040
2037,2024,2006,1995,2019,2014,2048,2042
2029,2016,2001,1961,2031,2021,2024,2043
2028,2023,2014,1953,2050,2027,2028,2052
2033,2045,2052,1970,2049,2031,2036,2060
2043,2067,2103,1996,2061,2040,2040,2073
2047,2073,2120,2006,2065,2046,2052,2084
2058,2090,2117,2024,2074,2047,2052,2093
2068,2089,2101,2030,2079,2045,2061,2100
2064,2079,2074,2024,2074,2039,2048,2095
2060,2063,2058,2023,2072,2046,2040,2096
2072,2063,2065,2033,2069,2047,2050,2098
2066,2063,2061,2038,2059,2045,2056,2094
2070,2059,2064,2039,2068,2043,2050,2080
2064,2065,2064,2044,2075,2044,2052,2078
2065,2068,2080,2066,2073,2054,2052,2070
2062,2065,2071,2070,2063,2048,2059,2063
2061,2060,2065,2075,2060,2046,2052,2057
2071,2058,2060,2076,2065,2049,2047,2045
2063,2053,2046,2074,2057,2069,2052,2037
2052,2041,2030,2059,2026,2080,2067,2027
2053,2033,2005,2042,1986,2062,2016,2023
2043,2024,1979,2029,1971,2055,2006,2020
2049,2031,1984,2040,1965,2028,2025,2014
2048,2026,2004,2054,1995,1999,2036,2017
2042,2033,2014,2075,2061,2027,2035,2024
2048,2036,2022,2102,2101,2057,2054,2024
2049,2045,2024,2100,2099,2057,2071,2036
2050,2053,2031,2097,2089,2028,2042,2042
2058,2049,2016,2081,2048,2023,2056,2046
2052,2056,2035,2082,2066,2033,2038,2049
2061,2058,2057,2080,2040,2037,2055,2047
2060,2062,2067,2081,2031,2040,2053,2047
2063,2064,2075,2070,2051,2041,2050,2054
2065,2071,2056,2053,2084,2042,2050,2066
2062,2066,2054,2044,2071,2025,2048,2071
2057,2070,2064,2065,2099,2045,2078,2077
2062,2072,2074,2072,2097,2057,2087,2084
2059,2067,2060,2049,2098,2052,2065,2089
2052,2058,2056,2046,2111,2056,2079,2093
2050,2055,2061,2054,2100,2064,2048,2088
2048,2050,2073,2036,2058,2063,2038,2083
2048,2055,2077,2024,1996,2064,2068,2086
2049,2054,2077,2020,2037,2085,2076,2086
2058,2066,2075,2029,2064,2084,2080,2089
2062,2067,2086,2028,2066,2054,2067,2089
2058,2067,2092,2011,2033,2024,2057,2075
2064,2062,2108,2017,2027,2024,2039,2074
2064,2074,2127,2030,2033,2023,2033,2063
2062,2070,2144,2036,2037,2020,2026,2051
2056,2060,2134,2059,2058,2036,2044,2050
2052,2057,2119,2055,2056,2053,2044,2045
2051,2052,2100,2057,2050,2075,2058,2039
2047,2052,2103,2069,2057,2088,2037,2040
2049,2061,2100,2077,2075,2085,2046,2032
2055,2061,2096,2078,2090,2076,2045,2028
2058,2056,2087,2077,2107,2053,2028,2029
2050,2058,2075,2070,2048,2012,2028,2024
2054,2049,2062,2067,1973,1991,2027,2018
2053,2051,2063,2079,1965,2007,2030,2028
2051,2055,2078,2084,1985,2014,2024,2023
2050,2051,2088,2077,1967,2013,2032,2019
2050,2058,2097,2074,1973,2032,2035,2025
2058,2072,2103,2075,1994,2032,2028,2030
2061,2080,2103,2071,1990,2016,2022,2037
2060,2082,2095,2089,2008,1982,2010,2045
2070,2078,2083,2088,2036,1996,2013,2050
2064,2068,2059,2079,2072,2049,2061,2066
2065,2064,2040,2066,2084,2070,2047,2075
2061,2051,2017,2060,2077,2075,2059,2076
2060,2045,2000,2054,2052,2054,2055,2082
2055,2037,1987,2044,2050,2042,2048,2081
2054,2026,1986,2054,2107,2054,2062,2081
2058,2031,2006,2052,2110,2045,2041,2072
2049,2016,1993,2023,2064,2023,2026,2072
2049,2017,1992,2025,2069,2045,2044,2072
2062,2042,2000,2022,2064,2046,2031,2066
2055,2040,1989,2025,2053,2033,2036,2064
2047,2033,1977,2033,2049,2030,2034,2072
2060,2039,1968,2048,2060,2039,2036,2062
2060,2035,1970,2059,2075,2055,2042,2054
2065,2040,1982,2063,2080,2063,2053,2045
2062,2045,1981,2074,2078,2065,2057,2036
2046,2044,1989,2069,2055,2062,2049,2035
2049,2038,1988,2060,2040,2060,2058,2036
2049,2032,1983,2034,2030,2047,2040,2029
2047,2019,1981,1996,2009,2030,2026,2020
2042,2021,1998,1977,2002,2020,2031,2021
2036,2017,2015,1955,1981,2019,2034,2017
2026,2020,2029,1941,1974,2011,2025,2022
2025,2008,2050,1925,1986,2011,2034,2024
2030,2022,2085,1942,2023,2025,2032,2039
2052,2061,2113,1981,2043,2044,2042,2049
2048,2068,2129,2008,2067,2053,2058,2051
2064,2075,2130,2029,2065,2054,2052,2057
2070,2077,2125,2039,2040,2030,2022,2060
2062,2073,2116,2033,2007,2012,2023,2065
2066,2073,2105,2022,1977,2012,2045,2067
2067,2070,2078,2007,1977,2018,2036,2061
2059,2058,2046,2000,1999,2038,2033,2067
2061,2045,2026,2026,2044,2061,2044,2071
2068,2048,2037,2060,2093,2076,2071,2078
2067,2051,2057,2081,2124,2090,2077,2082
2062,2051,2048,2085,2128,2099,2080,2089
2058,2040,2024,2069,2071,2080,2061,2087
2057,2036,2001,2065,2038,2063,2061,2078
2052,2029,1983,2052,2039,2042,2048,2069
2043,2016,1958,2052,2047,2037,2039,2068
2051,2024,1956,2056,2054,2047,2040,2076
2057,2035,1959,2066,2096,2053,2046,2086
2054,2043,1966,2077,2129,2055,2034,2076
2056,2051,1977,2091,2146,2060,2032,2064
2055,2044,1983,2097,2174,2073,2042,2050
2046,2043,2012,2093,2155,2093,2056,2040
2052,2038,2044,2072,2102,2097,2049,2037
2042,2036,2070,2045,1963,2062,2030,2028
2043,2030,2093,1998,1714,2022,2018,2027
2040,2034,2122,2013,1806,1990,2006,2034
2050,2057,2172,2052,1953,1964,2029,2042
2060,2078,2202,2081,2054,1986,2013,2036
2065,2074,2182,2076,2074,2019,2006,2028
2062,2069,2157,2072,2092,2053,2035,2034
2070,2072,2146,2102,2134,2094,2067,2038
2068,2068,2132,2131,2165,2102,2067,2043
2063,2062,2104,2139,2161,2092,2085,2036
2065,2061,2084,2135,2126,2065,2073,2041
2070,2056,2067,2101,2040,2046,2053,2035
2057,2044,2040,2046,1899,2007,2040,2030
2046,2032,2032,2036,1930,1999,2030,2031
2047,2030,2052,2038,1961,1997,2042,2030
2051,2032,2065,2055,1956,2014,2040,2030
2045,2031,2060,2042,1990,2038,2049,2033
2045,2025,2043,2024,1993,2052,2046,2036
2046,2024,2042,2036,1988,2063,2064,2045
2041,2020,2035,2034,1982,2059,2045,2046
2038,2020,2028,2054,1995,2059,2037,2062
2039,2022,2040,2052,2002,2047,2070,2067
2051,2039,2060,2046,2001,2029,2040,2072
2049,2051,2064,2035,1991,2016,2074,2070
2050,2044,2052,2022,2014,1998,2054,2062
2049,2045,2045,2031,2039,2010,2034,2070
2055,2041,2045,2042,2043,2029,2047,2069
2059,2047,2047,2050,2051,2050,2058,2069
2065,2053,2048,2039,2052,2054,2065,2072
2067,2064,2052,2028,2043,2051,2057,2071
2063,2069,2067,2015,2033,2047,2057,2055
2063,2080,2085,2006,2020,2037,2039,2052
2075,2092,2101,2006,2020,2042,2046,2050
2077,2084,2077,2004,2021,2040,2043,2046
2074,2070,2062,2005,2011,2032,2047,2044
2066,2072,2064,2027,2043,2041,2054,2045
2058,2069,2065,2040,2056,2067,2064,2041
2062,2068,2058,2049,2055,2082,2069,2040
2055,2055,2054,2054,2055,2086,2069,2041
2052,2048,2048,2049,2062,2083,2080,2042
2054,2043,2051,2051,2071,2039,2068,2049
2049,2041,2044,2050,2091,2026,2060,2055
2048,2046,2045,2037,2052,2037,2058,2049
2057,2045,2036,2018,1977,2044,2051,2050
2054,2043,2042,2023,1986,2051,2075,2049
2057,2048,2058,2041,2014,2059,2070,2052
2061,2050,2078,2064,2032,2064,2065,2052
2059,2051,2080,2075,2049,2064,2061,2044
2055,2052,2092,2075,2061,2068,2056,2048
2058,2054,2088,2065,2059,2070,2066,2041
2054,2047,2076,2046,2048,2063,2041,2044
2050,2042,2066,2040,2034,2050,2041,2050
2054,2043,2063,2044,2031,2049,2026,2059
2051,2039,2054,2048,2030,2052,2021,2059
2049,2041,2046,2059,2040,2032,2029,2077
2055,2051,2049,2060,2011,2018,2048,2081
2052,2039,2043,2060,2037,2027,2049,2077
2050,2028,2024,2054,2036,2037,2044,2073
2047,2018,2015,2054,2026,2053,2050,2075
2049,2040,2014,2049,1993,2070,2030,2071
2051,2042,2009,2046,1986,2072,2045,2067
2054,2042,2004,2031,1980,2067,2042,2056
2049,2043,1988,2000,1954,2031,2033,2054
2052,2039,1983,1988,1989,2009,2035,2059
2064,2044,1997,2025,2058,2030,2045,2059
2074,2049,2006,2040,2077,2041,2039,2052
2058,2037,2014,2042,2080,2043,2046,2046
2047,2026,2005,2037,2083,2054,2040,2046
2057,2019,2007,2047,2096,2062,2053,2034
2058,2032,2017,2066,2112,2075,2043,2028
2061,2035,2020,2078,2112,2074,2052,2023
2050,2019,2001,2065,2103,2067,2032,2021
2046,2025,2000,2067,2099,2061,2043,2013
2056,2039,2018,2080,2070,2038,2026,2010
2050,2034,2013,2071,2045,2028,2018,2013
2058,2037,2019,2077,2003,2028,2052,2021
2068,2061,2092,2100,1974,2030,2037,2026
2070,2076,2120,2108,2006,2039,2047,2031
2070,2072,2127,2116,2025,2048,2045,2032
2064,2067,2123,2129,2027,2054,2058,2037
2064,2069,2122,2132,2001,2043,2042,2036
2065,2068,2118,2115,1980,2034,2057,2041
2054,2057,2121,2100,1975,2017,2040,2043
2049,2049,2104,2091,1965,2006,2046,2045
2048,2053,2101,2076,1955,2004,2030,2054
2045,2053,2100,2046,1969,2010,2046,2057
2044,2057,2094,2033,2001,2025,2042,2056
2047,2058,2096,2037,2049,2046,2055,2073
2048,2056,2075,2023,2069,2058,2049,2078
2051,2048,2057,2009,2053,2059,2046,2085
2054,2048,2049,1994,2018,2041,2056,2083
2051,2038,2025,1972,1975,2022,2051,2079
2058,2044,2018,1942,1944,2008,2039,2085
2060,2048,2014,1924,1920,2000,2054,2079
2067,2058,2014,1935,1914,2007,2036,2083
2075,2059,2021,1972,1963,2027,2055,2084
2072,2055,2024,1992,1988,2031,2028,2074
2072,2053,2033,2016,2035,2064,2045,2072
2071,2057,2041,2033,2057,2090,2062,2062
2068,2050,2035,2037,2031,2075,2059,2045
2060,2036,2029,2031,2009,2058,2053,2038
2051,2035,2029,2020,2002,2046,2050,2030
2042,2043,2043,2026,2029,2041,2041,2025
2043,2053,2050,2032,2061,2055,2063,2032
2056,2062,2058,2042,2062,2057,2065,2032
2063,2061,2054,2041,2037,2054,2049,2027
2049,2048,2038,2030,2030,2038,2026,2018
2046,2045,2037,2031,2038,2040,2047,2021
2049,2052,2044,2049,2050,2047,2058,2030
2056,2057,2048,2048,2036,2044,2065,2038
2065,2056,2051,2043,2031,2059,2057,2038
2059,2060,2050,2043,2035,2068,2077,2036
2062,2055,2047,2044,2026,2068,2075,2037
2060,2055,2051,2040,2001,2075,2050,2036
2060,2053,2045,2032,1952,2068,2044,2036
2054,2049,2041,2027,1970,2071,2047,2042
2050,2047,2041,2032,1995,2081,2028,2045
2049,2045,2035,2030,2006,2049,2043,2065
2056,2047,2041,2047,2053,2025,2045,2076
2058,2052,2038,2062,2083,2050,2052,2081
2057,2050,2038,2063,2100,2082,2055,2085
2049,2046,2036,2062,2100,2105,2069,2082
2050,2046,2030,2052,2098,2092,2049,2077
2042,2039,2022,2052,2095,2083,2061,2080
2038,2035,2017,2043,2091,2079,2052,2078
2048,2044,2021,2052,2107,2087,2062,2071
2051,2050,2027,2056,2128,2084,2061,2072
2058,2054,2024,2064,2147,2069,2061,2072
2058,2053,2030,2055,2091,2036,2040,2059
2057,2051,2035,2054,2030,2036,2051,2059
2056,2049,2034,2068,2025,2050,2060,2058
2063,2053,2028,2076,2029,2056,2055,2050
2056,2049,2031,2073,2026,2045,2069,2040
2055,2053,2031,2077,2010,2034,2040,2036
2056,2053,2031,2080,1999,2019,2008,2030
2042,2044,2025,2071,2014,2023,2015,2017
2047,2040,2022,2073,2023,2036,2012,2025
2053,2040,2013,2069,2022,2044,2050,2030
2050,2042,2018,2069,2027,2050,2054,2028
2052,2040,2015,2060,2019,2045,2058,2032
2054,2040,2010,2048,2021,2048,2050,2029
2054,2043,2010,2031,2003,2043,2051,2033
2053,2033,1991,2004,2002,2034,2056,2035
2052,2033,1991,1997,2006,2028,2052,2036
2053,2039,2007,1995,1994,2020,2058,2037
2057,2047,2025,1994,1988,2017,2058,2049
2052,2050,2040,2000,1982,2012,2074,2057
2053,2049,2039,1996,1964,2007,2056,2054
2044,2039,2033,1993,1962,2017,2028,2060
2052,2044,2042,2015,2005,2048,2048,2076
2064,2054,2060,2030,2040,2055,2062,2086
2067,2060,2069,2040,2069,2063,2075,2086
2065,2062,2077,2040,2064,2069,2072,2085
2058,2062,2078,2035,2054,2072,2053,2083
2059,2066,2081,2037,2043,2065,2062,2087
2056,2057,2073,2044,2052,2060,2037,2087
2050,2053,2071,2056,2085,2051,2040,2087
2054,2052,2074,2063,2086,2042,2054,2089
2062,2058,2073,2060,2050,2035,2026,2089
2069,2057,2060,2050,2021,2041,2061,2087
2066,2066,2050,2046,2037,2044,2060,2070
2065,2056,2037,2041,2068,2058,2061,2059
2061,2050,2035,2037,2084,2089,2069,2047
2060,2052,2040,2023,2090,2104,2070,2044
2059,2054,2042,2008,2072,2090,2052,2035
2048,2046,2043,2015,2052,2078,2057,2036
2051,2047,2046,2022,2042,2036,2054,2040
2055,2060,2063,2026,2040,2035,2054,2040
2064,2080,2082,2027,1945,2043,2063,2045
2072,2080,2086,2036,1957,2063,2064,2045
2071,2074,2072,2027,1975,2059,2056,2045
2073,2057,2058,2004,1977,2064,2043,2037
2063,2048,2047,2000,2028,2076,2039,2032
2052,2045,2052,2019,2064,2074,2031,2036
2059,2048,2074,2051,2048,2053,2037,2048
2060,2054,2078,2065,1991,2023,2044,2047
2057,2041,2071,2079,2016,2041,2034,2033
2043,2030,2059,2088,2070,2065,2056,2041
2053,2033,2052,2120,2121,2078,2068,2047
2054,2033,2043,2112,2136,2058,2051,2051
2050,2032,2033,2099,2143,2061,2060,2062
2056,2037,2036,2093,2108,2062,2073,2066
2057,2040,2031,2077,2083,2082,2063,2070
2057,2041,2021,2044,2022,2104,2074,2064
2060,2030,2016,2023,2005,2125,2073,2072
2051,2029,2007,2020,2004,2102,2077,2072
2040,2030,1999,2001,2011,2076,2046,2076
2038,2022,1992,1975,1960,2010,2024,2077
2042,2035,2024,1984,1924,1951,2033,2102
2066,2074,2075,2029,1975,1978,2027,2099
2061,2078,2103,2048,1982,2010,2001,2065
2046,2060,2111,2045,2000,2027,2004,2055
2034,2052,2120,2046,1988,2064,2019,2043
2036,2056,2120,2054,1977,2070,2021,2041
2051,2061,2109,2064,1981,2049,2025,2047
2060,2063,2113,2089,2010,2025,2046,2064
2064,2064,2119,2123,2050,2025,2068,2054
2066,2062,2117,2138,2074,2042,2052,2049
2062,2053,2113,2134,2065,2053,2048,2044
2059,2050,2081,2122,2062,2052,2059,2036
2058,2051,2066,2126,2073,2060,2063,2040
2065,2047,2030,2112,2059,2058,2059,2037
2054,2031,1984,2083,2034,2050,2038,2037
2039,2012,1951,2047,2007,2038,2050,2027
2034,2007,1942,2014,2042,2047,2053,2024
2045,2041,1949,2001,2072,2055,2051,2030
2056,2061,1975,2002,2081,2035,2047,2033
2068,2073,1991,2004,2102,2027,2045,2046
2074,2082,2014,2021,2134,2029,2045,2048
2071,2074,2025,2016,2134,2020,2043,2051
2066,2064,2033,1999,2121,2028,2044,2050
2062,2068,2046,2003,2112,2029,2059,2060
2066,2066,2066,1985,1987,2015,2032,2064
2065,2066,2084,1986,1930,2017,2049,2067
2062,2060,2082,2002,1965,2029,2053,2073
2063,2058,2070,2000,1979,2029,2048,2077
2063,2068,2072,2005,1943,2030,2061,2087
2070,2075,2087,2021,1966,2041,2064,2082
2067,2074,2081,2017,1978,2029,2053,2086
2058,2057,2059,1994,1954,1994,2043,2075
2049,2046,2054,1987,1942,1992,2053,2088
2055,2052,2062,2005,1987,2012,2050,2084
2057,2052,2054,2009,2000,2024,2028,2080
2058,2052,2050,2007,2027,2047,2041,2081
2068,2060,2058,2039,2066,2074,2077,2092
2080,2062,2064,2059,2055,2085,2099,2091
2075,2066,2078,2067,2071,2091,2098,2080
2074,2071,2069,2074,2084,2098,2076,2080
2078,2065,2061,2057,2053,2078,2071,2069
2073,2054,2057,2017,1888,2030,2056,2047
2058,2045,2051,1980,1760,1994,2042,2040
2059,2041,2044,1977,1827,1988,2039,2033
2053,2038,2053,1987,1900,2005,2031,2025
2046,2043,2050,1997,1914,2015,2024,2023
2049,2053,2056,2009,1946,2028,2033,2034
2059,2058,2061,2028,1964,2029,2024,2026
2046,2044,2042,2027,1965,2011,2027,2015
2041,2035,2033,2022,1998,2016,2034,2016
2041,2036,2034,2035,2058,2020,2037,2021
2042,2034,2039,2060,2138,2046,2044,2025
2046,2046,2063,2087,2179,2049,2053,2025
2053,2055,2073,2084,2136,2047,2056,2036
2049,2056,2070,2075,2088,2040,2057,2040
2046,2053,2064,2066,2051,2032,2058,2044
2049,2042,2058,2058,2041,2027,2051,2050
2049,2039,2057,2067,2057,2026,2038,2057
2054,2046,2065,2072,2067,2024,2049,2067
2054,2056,2068,2078,2070,2027,2046,2065
2054,2053,2062,2070,2068,2027,2054,2074
2050,2052,2066,2068,2066,2032,2037,2082
2050,2050,2062,2070,2086,2033,2032,2077
2049,2040,2054,2063,2070,2026,2024,2075
2047,2041,2041,2056,2048,2020,2022,2072
2034,2026,2019,2032,2005,2028,2024,2067
2028,2020,2008,2026,1989,2039,2025,2067
2029,2018,2004,2023,1984,2036,2012,2060
2033,2017,2004,2020,1971,2032,2006,2056
2030,2027,2004,2021,1981,1997,2038,2063
2035,2034,2021,2033,2021,2000,2050,2061
2046,2036,2017,2048,2083,2036,2058,2068
2049,2042,2024,2045,2126,2074,2072,2060
2049,2051,2028,2046,2163,2088,2088,2055
2054,2059,2044,2042,2127,2067,2071,2049
2056,2057,2038,2023,2038,2033,2059,2046
2060,2054,2053,2024,1983,2026,2047,2044
2064,2056,2056,2040,1996,2030,2050,2049
2062,2064,2067,2052,2013,2023,2058,2045
2063,2066,2077,2060,2023,2023,2069,2043
2059,2067,2086,2053,2029,2019,2038,2037
2058,2060,2074,2043,2014,2012,2025,2038
2052,2038,2057,2022,2020,2034,2020,2036
2050,2045,2068,2038,2065,2072,2055,2037
2063,2062,2088,2063,2086,2081,2038,2038
2064,2072,2097,2068,2078,2075,2033,2039
2058,2075,2097,2064,2081,2080,2067,2041
2055,2066,2090,2060,2075,2071,2054,2039
2053,2062,2083,2055,2060,2077,2069,2043
2055,2060,2074,2061,2044,2088,2054,2047
2060,2066,2075,2057,2035,2100,2049,2056
2060,2060,2066,2053,2030,2095,2073,2061
2058,2057,2068,2051,2035,2074,2072,2068
2060,2059,2070,2061,2043,2026,2061,2075
2065,2055,2065,2074,2055,2015,2047,2071
2055,2052,2067,2065,2054,2027,2051,2076
2055,2048,2067,2062,2017,2036,2058,2085
2058,2047,2062,2063,2046,2042,2061,2085
2053,2049,2060,2057,2071,2030,2040,2082
2048,2050,2054,2063,2098,2018,2033,2089
2054,2055,2056,2066,2119,2046,2035,2087
2054,2055,2063,2067,2122,2060,2058,2079
2051,2055,2061,2070,2125,2072,2062,2082
2059,2053,2056,2062,2088,2071,2052,2076
2058,2056,2058,2046,2052,2030,2055,2086
2067,2062,2064,2053,2078,2015,2044,2081
2071,2066,2073,2066,2041,2017,2041,2078
2067,2064,2066,2056,1936,2018,2052,2071
2064,2058,2062,2051,1944,2040,2061,2056
2057,2054,2058,2045,1991,2064,2063,2048
2051,2055,2050,2055,2019,2076,2057,2048
2046,2051,2055,2050,2010,2066,2074,2047
2052,2044,2050,2042,1947,2033,2059,2036
2048,2047,2048,2018,1880,2004,2026,2032
2044,2040,2049,2013,1918,2007,2036,2017
2042,2039,2041,2024,1955,2026,2031,2017
2040,2042,2048,2036,1975,2037,2049,2023
2053,2051,2058,2049,2015,2052,2058,2031
2055,2050,2062,2053,2036,2057,2076,2037
2054,2051,2059,2061,2041,2056,2077,2035
2051,2049,2058,2070,2038,2053,2079,2048
2047,2043,2049,2063,2041,2051,2048,2042
2045,2040,2042,2061,2061,2052,2049,2046
2048,2039,2041,2064,2082,2067,2042,2048
2044,2039,2044,2073,2111,2085,2037,2049
2041,2041,2036,2084,2118,2086,2062,2058
2052,2040,2040,2083,2111,2085,2051,2063
2050,2037,2029,2075,2090,2083,2045,2062
2048,2032,2018,2068,2060,2061,2057,2069
2040,2026,2013,2052,2016,2009,2028,2060
2039,2026,2008,2034,2001,1980,2043,2066
2042,2031,2010,2043,2058,2000,2042,2068
2036,2024,2013,2055,2098,2024,2049,2073
2037,2023,2003,2043,2105,2046,2056,2078
2043,2033,2013,2037,2080,2041,2056,2081
2052,2037,2027,2032,2052,2033,2057,2075
2045,2046,2046,2032,2035,2024,2071,2071
2052,2052,2056,2016,2000,2031,2066,2061
2051,2056,2058,2007,1985,2033,2056,2056
2055,2057,2060,2012,2003,2028,2056,2060
2062,2056,2052,2001,1957,2024,2047,2049
2057,2052,2049,2006,1962,2035,2057,2047
2060,2058,2058,2016,1982,2048,2070,2042
2060,2062,2062,2022,1984,2046,2051,2045
2056,2058,2069,2023,1998,2035,2053,2037
2058,2057,2069,2025,1984,2018,2054,2033
2046,2045,2058,2030,1982,2019,2040,2030
2047,2045,2051,2029,1988,2030,2022,2021
2039,2029,2037,2008,1999,2050,2025,2015
2032,2027,2035,2021,2048,2080,2048,2024
2040,2036,2051,2060,2093,2104,2042,2032
2051,2044,2065,2065,2082,2105,2033,2029
2057,2049,2064,2065,2078,2112,2053,2037
2064,2060,2072,2061,2074,2105,2068,2045
2066,2060,2072,2060,2092,2106,2062,2051
2064,2059,2064,2054,2108,2104,2026,2045
2058,2052,2064,2048,2092,2084,2025,2049
2057,2049,2057,2046,2095,2058,2042,2058
2059,2052,2061,2045,2104,2058,2058,2077
2063,2055,2069,2052,2088,2054,2068,2079
2063,2061,2066,2049,2011,2032,2048,2082
2064,2055,2066,2038,1960,2003,2041,2074
2057,2049,2053,2029,1958,1996,2038,2075
2043,2032,2040,2015,1961,1998,2062,2072
2045,2037,2048,2027,2004,2010,2064,2083
2046,2039,2053,2038,2044,2008,2057,2078
2040,2037,2053,2046,2056,2014,2046,2085
2051,2043,2057,2041,2051,2034,2047,2084
2052,2047,2060,2042,2029,2046,2039,2077
2054,2052,2060,2044,2019,2055,2049,2070
2050,2050,2055,2033,2002,2053,2049,2072
2049,2049,2056,2039,2001,2054,2032,2071
2052,2050,2063,2050,2016,2076,2037,2062
2056,2052,2070,2056,2026,2090,2046,2049
2052,2046,2071,2058,2024,2089,2044,2038
2053,2044,2067,2054,2025,2072,2010,2033
2050,2037,2059,2055,2020,2051,2025,2025
2044,2044,2060,2073,2059,2010,2024,2035
2049,2047,2068,2092,2105,2011,2057,2040
2050,2057,2074,2087,2085,2022,2053,2034
2056,2063,2070,2082,2088,2031,2043,2037
2057,2063,2060,2073,2077,2029,2021,2029
2049,2044,2040,2062,2053,2037,2013,2035
2042,2041,2036,2057,2060,2053,2042,2047
2057,2048,2042,2064,2062,2052,2057,2046
2056,2055,2043,2061,2072,2043,2075,2042
2053,2052,2042,2056,2096,2043,2078,2044
2046,2044,2036,2035,2121,2042,2064,2045
2047,2041,2030,2008,2069,2042,2060,2046
2047,2042,2021,1980,1965,2040,2072,2051
2051,2045,2013,1961,1959,2035,2076,2056
2053,2040,2015,1970,2031,2037,2075,2058
2058,2041,2019,1994,2051,2036,2069,2070
2060,2040,2031,2022,2032,2036,2065,2060
2054,2044,2038,2033,2023,2040,2059,2062
2050,2043,2037,2034,2020,2050,2037,2066
2042,2036,2031,2027,2027,2072,2044,2078
2037,2036,2032,2033,2062,2073,2053,2086
2042,2042,2040,2036,2081,2057,2048,2091
2040,2043,2043,2039,2084,2057,2046,2095
2045,2042,2052,2044,2071,2058,2067,2094
2052,2055,2061,2042,2077,2063,2067,2087
2058,2055,2060,2048,2102,2067,2064,2088
2056,2057,2057,2053,2134,2084,2084,2089
2054,2054,2055,2053,2121,2069,2070,2079
2045,2052,2045,2040,2063,2052,2071,2067
2042,2046,2040,2015,1939,2060,2073,2059
2036,2049,2045,2021,1952,2083,2069,2054
2045,2048,2053,2032,1979,2088,2059,2052
2056,2051,2053,2042,2027,2082,2062,2049
2053,2049,2051,2042,2069,2069,2044,2040
2042,2054,2050,2045,2090,2082,2071,2040
2044,2054,2047,2045,2097,2092,2067,2031
2050,2044,2035,2046,2057,2081,2059,2031
2047,2043,2028,2038,2027,2050,2055,2028
2042,2034,2016,2022,2009,2034,2043,2025
2041,2022,2016,2006,1965,1985,2032,2021
2032,2034,2027,2010,1980,1992,2035,2029
2032,2042,2039,2026,2014,2000,2036,2030
2038,2051,2049,2042,2033,2012,2040,2028
2047,2057,2066,2053,2042,2021,2052,2037
2046,2048,2065,2059,2040,2039,2054,2041
2045,2045,2069,2062,2039,2048,2049,2043
2047,2039,2073,2070,2037,2072,2053,2052
2045,2045,2073,2076,2035,2089,2049,2059
2043,2046,2064,2069,2010,2109,2056,2059
2047,2035,2057,2062,1990,2091,2057,2063
2042,2036,2055,2060,1982,2039,2037,2064
2040,2035,2056,2059,1975,2008,2022,2060
2040,2047,2064,2061,1981,1986,2031,2069
2044,2056,2067,2077,2030,1974,2036,2077
2046,2057,2067,2081,2069,1995,2036,2074
2039,2045,2048,2075,2080,2032,2030,2072
2042,2036,2038,2070,2086,2058,2039,2078
2044,2043,2045,2064,2074,2067,2021,2081
2040,2045,2040,2048,2054,2057,2034,2081
2038,2045,2036,2031,2035,2037,2007,2070
2028,2037,2034,2007,2028,2014,2024,2061
2025,2033,2033,1994,2015,2004,2004,2059
2035,2043,2039,1989,2054,2023,2023,2059
2044,2047,2041,1990,2090,2036,2027,2054
2052,2049,2045,2002,2097,2035,2031,2052
2047,2059,2051,2012,2095,2037,2048,2049
2050,2065,2071,2022,2100,2044,2036,2045
2053,2059,2078,2029,2064,2035,2028,2044
2047,2059,2065,2017,2023,2027,2016,2033
2044,2057,2057,2023,2002,2022,2015,2025
2051,2062,2065,2033,1958,1999,2041,2032
2053,2060,2072,2035,1879,1958,2037,2035
2053,2052,2060,2041,1910,1970,2046,2045
2057,2057,2060,2043,1955,1994,2034,2050
2060,2061,2064,2026,1987,2024,2035,2038
2062,2056,2056,2019,2021,2047,2046,2037
2052,2053,2053,2025,2043,2052,2041,2040
2052,2052,2046,2026,2034,2056,2039,2040
2050,2047,2048,2032,2048,2054,2031,2049
2048,2042,2048,2047,2072,2056,2026,2049
2052,2049,2059,2055,2063,2050,2013,2052
2054,2048,2058,2055,2057,2046,2005,2055
2050,2051,2059,2049,2058,2042,2058,2060
2043,2045,2059,2043,2104,2034,2045,2054
2035,2043,2047,2051,2130,2027,2047,2055
2035,2036,2045,2040,2086,2028,2057,2069
2036,2040,2045,2046,2074,2060,2072,2072
2042,2036,2050,2053,2082,2086,2078,2073
2046,2041,2045,2052,2086,2083,2067,2074
2042,2036,2042,2052,2078,2082,2048,2070
2037,2037,2043,2053,2061,2082,2054,2078
2042,2039,2045,2041,2039,2069,2046,2071
2046,2040,2047,2026,1980,2044,2055,2064
2039,2038,2048,2011,1967,2035,2048,2062
2043,2045,2051,2027,1992,2037,2055,2062
2046,2044,2057,2034,2008,2037,2050,2062
2048,2048,2054,2044,2020,2041,2053,2062
2051,2051,2053,2046,2032,2048,2063,2059
2046,2044,2052,2051,2042,2062,2055,2048
2050,2043,2046,2041,2048,2072,2066,2041
2046,2038,2040,2036,2042,2068,2054,2033
2040,2037,2039,2032,2036,2052,2047,2035
2043,2036,2040,2036,2032,2047,2042,2025
2040,2040,2050,2040,2026,2042,2038,2023
2042,2042,2046,2034,2026,2046,2033,2021
2038,2035,2035,2027,2016,2060,2039,2018
2033,2036,2041,2029,2015,2064,2039,2021
2045,2051,2052,2042,2019,2068,2037,2021
2052,2051,2059,2046,2018,2057,2047,2026
2049,2060,2063,2054,2024,2022,2046,2035
2060,2061,2066,2052,2035,2018,2058,2044
2052,2057,2055,2051,2044,2036,2052,2045
2055,2054,2057,2049,2047,2054,2058,2055
2053,2054,2054,2049,2042,2053,2056,2052
2046,2044,2052,2051,2032,2043,2052,2052
2046,2043,2049,2048,1997,2027,2042,2060
2046,2041,2048,2041,1988,2023,2058,2064
2044,2043,2041,2030,1973,2020,2036,2058
2033,2034,2034,2020,1976,2033,2017,2062
2043,2035,2047,2036,2004,2049,2006,2067
2042,2040,2047,2051,2033,2062,2040,2068
2041,2039,2045,2051,2046,2057,2062,2066
2031,2029,2050,2051,2062,2052,2060,2080
2037,2040,2055,2064,2094,2047,2084,2090
2048,2048,2056,2068,2092,2053,2081,2091
2054,2053,2051,2061,2080,2064,2056,2085
2052,2053,2051,2049,2083,2079,2053,2077
2051,2054,2050,2053,2088,2088,2065,2070
2056,2053,2050,2065,2083,2085,2058,2062
2050,2049,2051,2062,2072,2078,2061,2054
2046,2045,2047,2055,2060,2066,2063,2039
2039,2039,2042,2048,2044,2055,2062,2021
2030,2035,2038,2028,2008,2034,2050,2022
2035,2033,2037,2028,1987,2047,2051,2018
2034,2040,2042,2034,2017,2047,2057,2019
2029,2040,2046,2029,2004,2033,2054,2020
2034,2041,2043,2026,1991,2029,2056,2015
2030,2043,2039,2026,1973,2020,2047,2010
2030,2023,2018,1998,1973,2045,2038,2010
2028,2026,2025,2026,2041,2079,2063,2028
2051,2051,2051,2077,2096,2062,2057,2039
2057,2055,2059,2079,2084,2039,2049,2039
2049,2051,2050,2065,2085,2045,2042,2040
2050,2040,2048,2058,2072,2068,2058,2035
2045,2039,2041,2047,2072,2079,2058,2030
2040,2034,2034,2047,2067,2080,2068,2036
2038,2039,2035,2043,2057,2073,2075,2039
2039,2033,2035,2044,2060,2072,2069,2050
2044,2032,2044,2050,2055,2061,2056,2057
2041,2040,2046,2052,2055,2047,2045,2063
2044,2043,2041,2053,2067,2043,2029,2070
2044,2039,2039,2057,2064,2054,2046,2078
2048,2042,2041,2058,2060,2061,2044,2076
2047,2039,2037,2044,2050,2052,2070,2072
2042,2029,2028,2035,2037,2032,2048,2070
2032,2029,2027,2031,2028,2025,2043,2075
2036,2035,2036,2034,2008,2025,2042,2078
2042,2030,2029,2035,2014,2017,2055,2073
2043,2030,2031,2030,2022,2027,2041,2066
2039,2036,2035,2038,2041,2033,2034,2063
2049,2040,2045,2056,2064,2046,2043,2064
2045,2046,2051,2055,2042,2046,2053,2054
2045,2047,2044,2050,2023,2043,2068,2054
2053,2051,2052,2044,2000,2067,2067,2045
2054,2058,2046,2038,1974,2081,2074,2045
2053,2057,2049,2040,1955,2080,2074,2045
2053,2052,2043,2034,1955,2073,2077,2037
2052,2055,2039,2034,1932,2028,2065,2042
2059,2056,2045,2052,2000,1993,2083,2043
2061,2053,2052,2062,2042,2035,2080,2039
2053,2045,2045,2066,2096,2095,2070,2017
2042,2035,2035,2061,2097,2139,2082,2019
2036,2038,2045,2063,2102,2131,2076,2031
2050,2043,2048,2054,2059,2090,2087,2033
2051,2045,2050,2026,1958,2022,2090,2044
2056,2042,2045,2030,2012,2036,2105,2050
2051,2049,2050,2050,2087,2043,2092,2052
2056,2054,2047,2048,2066,2046,2080,2047
2058,2047,2053,2038,2037,2062,2058,2042
2056,2039,2044,2034,2032,2067,2066,2033
2044,2039,2045,2038,2042,2069,2066,2039
2045,2040,2047,2043,2081,2073,2056,2038
2038,2043,2044,2055,2081,2064,2062,2052
2039,2041,2050,2050,2054,2042,2042,2056
2040,2040,2047,2043,2028,2039,2051,2063
2043,2041,2040,2036,2007,2042,2044,2060
2040,2035,2036,2021,1978,2052,2018,2041
2024,2027,2025,2005,1945,2063,2008,2035
2019,2022,2016,1994,1906,2060,2001,2037
2025,2040,2025,1979,1839,2066,2004,2032
2032,2037,2031,1985,1855,2050,2022,2044
2038,2043,2041,2024,1981,2028,2042,2057
2051,2054,2049,2060,2121,2084,2044,2063
2050,2048,2046,2076,2177,2106,2043,2055
2046,2042,2047,2071,2164,2061,2045,2037
2050,2042,2038,2055,2120,2023,2047,2031
2045,2044,2041,2047,2094,2041,2054,2032
2049,2043,2042,2048,2099,2064,2058,2029
2051,2042,2046,2057,2103,2064,2056,2028
2054,2050,2044,2061,2097,2054,2063,2028
2053,2046,2046,2051,2088,2027,2050,2025
2054,2048,2041,2046,2073,1996,2030,2019
2050,2046,2040,2038,2048,1986,2028,2019
2041,2035,2041,2033,2040,1986,2026,2020
2043,2041,2041,2042,2041,2003,2004,2029
2053,2051,2050,2051,2056,2025,2040,2028
2057,2054,2057,2050,2047,2029,2046,2028
2048,2051,2056,2042,2036,2027,2045,2023
2047,2047,2054,2035,2029,2020,2030,2018
2045,2044,2052,2035,2031,2019,2042,2022
2041,2043,2053,2045,2040,2018,2050,2037
2042,2042,2058,2044,2041,2008,2039,2031
2043,2043,2059,2040,2039,2000,2038,2036
2040,2042,2053,2042,2031,1991,2012,2044
2038,2043,2055,2042,2042,1990,2024,2063
2037,2037,2051,2044,2041,1996,2021,2066
2030,2040,2053,2035,2026,2003,2031,2067
2037,2041,2047,2026,2011,2025,2043,2072
2042,2043,2051,2027,2002,2058,2045,2079
2044,2037,2039,2019,1998,2068,2056,2075
2037,2033,2028,2020,2037,2083,2041,2086
2048,2044,2044,2042,2111,2099,2093,2088
2055,2051,2056,2057,2165,2109,2103,2084
2049,2054,2057,2058,2189,2128,2085,2077
2055,2057,2059,2057,2209,2138,2085,2064
2053,2058,2051,2058,2183,2142,2068,2064
2060,2052,2053,2058,2156,2139,2089,2056
2056,2061,2059,2056,2123,2112,2070,2054
2052,2060,2054,2052,2054,2081,2074,2052
2054,2049,2050,2039,1933,2075,2047,2044
2046,2046,2047,2037,1962,2096,2041,2038
2044,2047,2052,2038,2009,2068,2035,2035
2046,2050,2050,2034,2023,2026,2031,2023
2037,2049,2053,2030,2015,2015,2009,2024
2044,2058,2056,2049,2042,2042,2023,2026
2049,2060,2055,2055,2050,2051,2050,2016
2038,2052,2057,2045,2032,2042,2038,2008
2029,2048,2044,2028,2007,2039,2021,2002
2029,2051,2047,2019,1992,2032,2026,2013
2036,2051,2046,2025,1998,2045,2022,2022
2042,2053,2050,2028,2000,2016,2021,2040
2055,2056,2049,2044,2056,1981,2022,2055
2061,2057,2061,2087,2187,2028,2056,2069
2070,2074,2070,2122,2254,2081,2061,2073
2066,2064,2064,2123,2247,2107,2065,2070
2061,2056,2060,2121,2241,2136,2067,2077
2059,2054,2058,2111,2212,2152,2061,2069
2056,2051,2052,2078,2184,2146,2066,2065
2051,2046,2047,2054,2159,2109,2056,2073
2057,2046,2041,2031,2048,2074,2071,2082
2052,2046,2036,2001,1975,2039,2059,2086
2047,2039,2035,1978,1869,2015,2052,2080
2033,2037,2034,1994,1895,2004,2014,2070
2036,2038,2041,2029,2002,2020,2013,2074
2043,2057,2056,2043,2065,2052,2037,2084
2051,2064,2056,2046,2056,2028,2035,2086
2051,2053,2049,2035,2031,2047,2053,2073
2042,2043,2042,2033,2017,2074,2083,2069
2037,2048,2045,2025,1989,2060,2074,2067
2043,2049,2041,2026,1979,2072,2073,2061
2041,2050,2036,2044,2005,2041,2088,2057
2044,2044,2039,2041,2030,2013,2052,2041
2037,2039,2033,2033,2031,2022,2063,2032
2027,2036,2030,2032,2020,2021,2056,2036
2030,2040,2029,2036,2020,2038,2045,2037
2034,2046,2039,2041,2004,2046,2063,2031
2037,2045,2046,2048,2037,2040,2066,2016
2029,2046,2042,2052,2058,2039,2050,2008
2027,2044,2043,2056,2063,2039,2023,1997
2013,2026,2035,2038,2023,2014,1999,2002
2010,2023,2031,2032,2003,1992,2013,2001
2021,2033,2034,2035,2008,1985,2015,2007
2026,2032,2040,2026,1997,1984,2013,2010
2029,2038,2036,2013,1938,1985,2031,2022
2037,2032,2034,2000,1919,1992,2004,2007
2027,2035,2029,2003,1951,1984,2000,2017
2030,2038,2036,2014,1997,2012,2028,2031
2042,2046,2046,2037,2015,2061,2060,2048
2051,2055,2049,2036,1991,2097,2070,2057
2051,2052,2049,2017,1955,2096,2052,2059
2042,2047,2039,2002,1943,2073,2058,2051
2037,2043,2038,2010,1998,2074,2038,2062
2044,2042,2042,2020,2012,2053,2039,2072
2044,2044,2042,2037,1969,2040,2042,2082
2048,2055,2047,2046,1927,2018,2019,2073
2045,2048,2042,2040,1923,1976,2032,2061
2039,2046,2040,2036,1965,1981,2018,2065
2043,2053,2043,2070,2047,2026,2049,2076
2049,2050,2046,2072,2028,2023,2055,2070
2045,2047,2042,2046,1941,2029,2077,2062
2049,2037,2034,2042,2007,2064,2110,2068
2050,2042,2040,2044,2061,2075,2104,2057
2040,2039,2030,2053,2168,2091,2091,2045
2034,2027,2034,2065,2244,2112,2084,2039
2034,2035,2033,2067,2223,2126,2085,2037
2041,2036,2039,2062,2183,2136,2084,2037
2053,2049,2046,2059,2139,2176,2082,2038
2045,2044,2050,2047,2088,2226,2104,2027
2045,2040,2041,2037,2060,2226,2107,2027
2040,2034,2041,2037,2051,2180,2100,2020
2041,2043,2047,2044,2053,2081,2094,2026
2055,2046,2055,2054,2072,1994,2062,2028
2044,2051,2055,2054,2070,1958,2030,2022
2035,2045,2051,2045,2037,1972,2018,2019
2038,2044,2047,2041,2018,2022,2017,2022
2040,2039,2050,2040,2018,2058,2037,2020
2038,2043,2049,2043,2047,2057,2060,2019
2037,2046,2056,2059,2089,2001,2046,2037
2048,2050,2066,2073,2121,1986,2068,2045
2047,2052,2064,2077,2131,2011,2052,2047
2035,2054,2054,2073,2137,2028,2054,2047
2030,2044,2049,2071,2134,2048,2046,2048
2038,2041,2051,2064,2117,2057,2029,2050
2031,2037,2046,2053,2095,2054,2030,2055
2024,2029,2039,2048,2050,2042,2044,2059
2034,2034,2044,2049,2072,2034,2033,2064
2030,2033,2043,2063,2132,2020,2033,2067
2022,2031,2049,2067,2171,2023,2028,2065
2028,2029,2046,2065,2183,2056,2052,2072
2031,2040,2047,2069,2202,2081,2069,2077
2044,2052,2054,2072,2210,2086,2082,2068
2046,2062,2054,2077,2212,2090,2056,2063
2045,2062,2054,2076,2221,2099,2060,2059
2038,2059,2049,2070,2170,2080,2035,2050
2037,2051,2049,2059,2043,2066,2031,2051
2037,2054,2045,2041,1896,2045,2032,2038
2033,2048,2043,2020,1893,2020,2039,2036
2037,2043,2041,2027,1969,2021,2034,2036
2036,2046,2045,2038,2011,2043,2026,2028
2036,2051,2046,2046,2027,2049,2031,2030
2035,2049,2052,2046,2034,2067,2039,2026
2032,2054,2046,2044,2031,2077,2029,2020
2031,2050,2048,2047,2030,2109,2063,2022
2034,2050,2043,2046,2029,2148,2055,2020
2036,2045,2041,2041,2020,2165,2054,2011
2038,2039,2040,2036,2029,2140,2031,2015
2045,2049,2050,2046,2034,2044,2027,2022
2042,2045,2051,2049,2045,2027,2014,2010
2040,2043,2052,2051,2053,2033,2021,2016
2039,2042,2049,2054,2046,2000,2018,2018
2037,2038,2044,2049,2041,1998,2002,2025
2027,2043,2038,2041,2051,2022,2025,2020
2032,2033,2041,2042,2044,2044,2055,2026
2029,2033,2036,2047,2079,2055,2037,2045
2033,2036,2040,2052,2118,2034,2025,2053
2035,2040,2045,2052,2128,2009,2034,2048
2035,2043,2050,2058,2133,2006,2026,2056
2033,2046,2053,2060,2134,2027,2052,2067
2038,2045,2054,2058,2123,2056,2062,2063
2039,2048,2054,2057,2103,2064,2062,2062
2039,2047,2050,2054,2064,2057,2060,2058
2030,2044,2052,2048,1945,2040,2045,2069
2036,2058,2058,2042,1913,2024,2041,2072
2053,2059,2056,2045,1945,2004,2035,2064
2046,2064,2057,2037,1948,1988,2021,2057
2036,2055,2051,2027,1949,1977,2018,2041
2030,2048,2041,2022,1967,1991,2013,2035
2038,2049,2052,2038,2015,2022,2037,2035
2040,2056,2054,2057,2065,2055,2031,2041
2045,2054,2056,2061,2090,2082,2033,2046
2046,2060,2056,2062,2079,2089,2027,2035
2049,2062,2061,2061,2067,2083,2056,2035
2051,2056,2066,2064,2068,2081,2065,2033
2046,2056,2058,2056,2047,2093,2058,2017
2039,2050,2056,2052,2024,2115,2069,2025
2046,2052,2057,2061,2025,2113,2071,2025
2050,2054,2059,2052,2025,2088,2043,2017
2043,2040,2045,2037,2022,2085,2056,2010
2033,2038,2048,2043,2108,2123,2062,2008
2035,2048,2056,2065,2162,2140,2058,2017
2035,2042,2052,2061,2128,2113,2054,2018
2036,2044,2054,2053,2084,2095,2073,2025
2036,2050,2048,2045,2078,2095,2066,2030
2035,2043,2047,2046,2054,2095,2062,2035
2038,2037,2046,2024,1998,2049,2045,2041
2036,2039,2049,2030,1998,2039,2047,2039
2031,2041,2046,2031,1959,2049,2045,2042
2029,2036,2045,2033,1945,2052,2031,2049
2035,2039,2052,2044,2012,2086,2054,2058
2042,2047,2058,2046,2016,2086,2066,2069
2045,2051,2051,2040,1993,2025,2053,2079
2050,2050,2058,2053,2016,1976,2044,2078
2047,2057,2055,2069,2144,2025,2034,2062
2035,2052,2054,2068,2145,2066,2033,2051
2036,2045,2048,2052,2078,2071,2029,2044
2036,2049,2047,2032,2044,2124,2026,2029
2031,2039,2040,2026,2006,2127,2018,2019
2026,2028,2031,2016,1978,2093,2010,2020
2027,2031,2030,2009,1976,2090,2033,2022
2030,2030,2032,2021,2002,2025,2036,2029
2040,2049,2047,2057,2067,1997,2053,2052
2049,2065,2060,2094,2129,2034,2067,2050
2054,2062,2063,2101,2123,2069,2075,2039
2052,2064,2063,2099,2090,2077,2069,2036
2048,2055,2060,2076,2046,2058,2058,2024
2046,2056,2054,2065,2044,2040,2065,2023
2043,2052,2057,2050,1981,1990,2049,2023
2045,2054,2051,2021,1896,1929,2034,2021
2050,2058,2058,2032,1997,1932,2000,2020
2048,2050,2055,2053,2108,1981,2015,2028
2046,2050,2051,2066,2136,2027,2025,2031
2055,2054,2049,2066,2127,2047,2040,2028
2049,2043,2046,2051,2104,2111,2054,2027
2038,2041,2043,2048,2112,2156,2051,2026
2041,2040,2044,2043,2106,2148,2065,2027
2039,2047,2035,2038,2051,2071,2067,2029
2043,2043,2039,2033,2002,2001,2071,2030
2040,2044,2039,2041,2028,2016,2091,2044
2036,2041,2036,2039,2039,2062,2093,2053
2031,2033,2035,2032,2036,2079,2062,2043
2028,2028,2020,2024,2064,2113,2078,2058
2032,2037,2039,2051,2124,2141,2093,2059
2043,2045,2055,2064,2130,2133,2077,2053
2033,2054,2048,2062,2140,2120,2059,2049
2032,2050,2047,2053,2137,2109,2043,2042
2032,2033,2029,2045,2104,2120,2050,2048
2031,2035,2040,2042,2078,2137,2053,2060
2040,2040,2036,2037,2023,2080,2041,2059
2044,2045,2040,2026,1980,1970,2019,2057
2040,2039,2034,2028,1992,1936,2038,2052
2040,2043,2031,2036,2018,1993,2048,2049
2052,2053,2039,2040,2040,2056,2055,2047
2055,2052,2045,2052,2046,2083,2055,2038
2052,2052,2046,2056,2044,2082,2032,2030
2050,2049,2042,2052,2039,2030,2050,2021
2045,2040,2042,2044,2039,2021,2047,2017
2042,2037,2037,2041,2039,2050,2062,2018
2041,2039,2040,2039,2042,2067,2060,2011
2034,2034,2038,2039,2040,2059,2059,2011
2031,2036,2039,2039,2045,2046,2048,2014
2030,2045,2040,2045,2054,2037,2054,2010
2036,2032,2038,2048,2056,2042,2045,2016
2039,2036,2042,2059,2067,2044,2047,2022
2050,2048,2051,2059,2060,2036,2040,2019
2046,2051,2056,2054,2057,2036,2022,2012
2043,2052,2056,2053,2049,2033,2006,2011
2041,2053,2056,2050,2055,2026,2032,2017
2041,2056,2054,2052,2055,2008,2013,2017
2039,2053,2052,2053,2056,1988,2021,2025
2042,2051,2050,2053,2053,2018,2024,2041
2036,2052,2046,2038,2045,2060,2018,2041
2042,2052,2041,2029,2002,2083,2050,2050
2041,2050,2047,2024,1937,2077,2039,2051
2040,2046,2043,2019,1896,2042,2024,2060
2038,2042,2043,2016,1906,1960,2018,2070
2042,2049,2047,2042,1971,1946,2046,2082
2051,2054,2066,2078,2064,2003,2060,2084
2046,2055,2060,2083,2101,2018,2049,2084
2047,2049,2060,2083,2092,1990,2047,2082
2048,2049,2062,2067,2043,1985,2044,2082
2047,2051,2061,2059,2018,1993,2053,2066
2044,2050,2049,2051,2079,2068,2050,2046
2044,2052,2046,2058,2131,2127,2058,2043
2046,2049,2042,2056,2108,2170,2074,2028
2045,2048,2033,2040,2078,2163,2064,2028
2044,2048,2038,2045,2083,2112,2050,2025
2048,2049,2040,2050,2110,2074,2049,2020
2045,2050,2047,2062,2145,2081,2056,2019
2036,2048,2044,2053,2155,2073,2033,2001
2031,2040,2034,2030,2070,2058,2028,1998
2029,2038,2040,2003,1960,2076,2051,1989
2026,2040,2036,2008,1996,2092,2064,1990
2021,2040,2034,2011,1997,2083,2034,1995
2017,2033,2024,2003,1974,2028,2028,2005
2029,2027,2028,2022,2029,1977,2051,2023
2042,2045,2046,2052,2100,2004,2041,2027
2046,2050,2047,2052,2122,2038,2049,2033
2052,2058,2053,2060,2123,2076,2061,2041
2050,2060,2056,2056,2116,2078,2072,2044
2050,2066,2058,2058,2083,2074,2059,2042
2047,2061,2053,2054,2073,2073,2047,2047
2052,2058,2051,2050,2074,2069,2068,2045
2048,2056,2049,2046,2070,2079,2073,2057
2049,2053,2039,2043,2072,2097,2085,2065
2043,2049,2042,2045,2078,2093,2060,2054
2044,2043,2038,2046,2090,2096,2065,2068
2038,2045,2041,2046,2084,2116,2086,2075
2035,2043,2036,2051,2069,2074,2069,2077
2038,2044,2036,2046,2092,2047,2038,2061
2033,2033,2036,2037,2111,2022,2024,2063
2042,2039,2036,2040,2107,2030,2013,2060
2043,2045,2047,2055,2124,2070,2046,2058
2039,2053,2042,2058,2126,2082,2039,2036
2037,2045,2037,2046,2111,2057,2042,2030
2031,2041,2035,2040,2081,2033,2036,2029
2033,2047,2041,2035,2019,2024,2042,2030
2031,2045,2034,2032,1933,2033,2056,2030
2035,2049,2040,2036,1960,2030,2044,2030
2040,2050,2040,2035,1982,2003,2044,2027
2042,2046,2037,2027,1926,1997,2033,2012
2036,2039,2030,2030,1950,2019,2014,1999
2029,2035,2024,2020,1964,2021,2019,1994
2026,2027,2020,2016,1953,2018,2008,1999
2016,2024,2012,2013,1957,2011,2019,1999
2020,2035,2026,2033,2020,2031,2027,2013
2030,2038,2038,2066,2105,2062,2052,2016
2029,2044,2046,2068,2108,2086,2049,2029
2029,2048,2046,2052,2104,2136,2079,2045
2027,2041,2048,2048,2099,2165,2091,2038
2060,2041,2044,2042,2079,2139,2116,2051
2088,2046,2035,2042,2086,2104,2101,2062
2068,2035,2036,2052,2133,2123,2091,2074
2054,2032,2041,2054,2142,2126,2075,2083
2049,2044,2043,2057,2117,2111,2064,2082
2043,2045,2047,2057,2075,2104,2072,2086
2038,2046,2044,2055,2060,2090,2057,2084
2030,2041,2050,2049,2063,2044,2073,2071
2035,2044,2051,2048,2047,1997,2046,2078
2037,2042,2056,2052,2046,1972,2018,2066
2041,2039,2054,2058,2049,1987,1997,2050
2029,2046,2045,2052,2056,1994,1991,2038
2030,2044,2039,2050,2057,2009,1989,2033
2037,2045,2043,2050,2068,2022,2033,2026
2032,2049,2043,2048,2087,2028,2025,2021
2023,2044,2041,2048,2102,2028,2050,2032
2034,2050,2047,2058,2108,2034,2070,2045
2059,2057,2036,2046,2079,2046,2035,2041
2061,2058,2034,2027,2013,2050,2013,2026
2054,2053,2043,2020,2021,2052,2038,2023
2039,2048,2038,2021,2046,2061,2051,2015
2042,2044,2039,2026,2049,2052,2058,2018
2062,2054,2042,2036,2055,2014,2064,2024
2067,2053,2048,2043,2063,2008,2071,2015
2061,2057,2044,2044,2066,2031,2057,2020
2060,2053,2045,2048,2061,2039,2025,2015
2053,2053,2043,2042,2063,2037,2064,2007
2048,2043,2038,2035,2062,2033,2018,1997
2035,2040,2039,2040,2058,2033,2037,1996
2036,2043,2037,2043,2062,2044,2054,2009
2047,2048,2039,2045,2055,2049,2066,2021
2050,2048,2036,2046,2048,2043,2038,2010
2053,2049,2045,2041,2045,2050,2008,2017
2051,2051,2041,2038,2061,2051,2019,2022
2054,2051,2042,2042,2073,2053,2017,2034
2049,2053,2048,2044,2073,2049,2024,2037
2046,2050,2045,2050,2085,2048,2031,2038
2047,2052,2050,2047,2088,2047,2032,2041
2047,2046,2046,2045,2088,2045,2045,2046
2046,2052,2045,2046,2090,2054,2050,2059
2046,2049,2045,2040,2081,2042,2059,2071
2049,2053,2045,2041,2068,2024,2046,2076
2051,2050,2047,2039,2062,2024,2067,2078
2054,2043,2036,2036,2038,2007,2043,2082
2045,2035,2034,2028,2027,2011,2035,2074
2048,2049,2045,2038,2035,2050,2050,2075
2057,2059,2045,2045,2053,2091,2048,2075
2056,2056,2047,2045,2070,2115,2043,2062
2052,2056,2047,2060,2089,2086,2058,2059
2055,2054,2045,2056,2055,2041,2029,2051
2050,2051,2041,2045,2043,2031,2048,2041
2050,2056,2043,2052,2050,2041,2060,2040
2050,2055,2039,2044,2059,2022,2050,2036
2047,2055,2041,2045,2047,2021,2060,2016
2047,2052,2036,2039,2050,2034,2076,2010
2045,2049,2039,2036,2042,2043,2072,2020
2041,2046,2036,2035,2033,2052,2062,2013
2041,2045,2040,2033,2024,2029,2057,2020
2048,2049,2039,2041,2032,2026,2067,2015
2042,2041,2034,2042,2024,2029,2065,2004
2032,2036,2030,2034,2005,2044,2049,2004
2036,2040,2038,2037,2004,2056,2049,2017
2044,2042,2034,2037,2021,2073,2064,2026
2044,2043,2037,2044,2034,2087,2088,2024
2046,2046,2035,2045,2050,2076,2078,2036
2043,2046,2037,2048,2050,2058,2082,2032
2040,2042,2039,2038,2049,2029,2068,2040
2039,2046,2032,2038,2020,2003,2038,2034
2039,2042,2028,2016,2006,1982,2034,2036
2039,2047,2045,2047,2084,2009,2054,2049
2046,2057,2054,2074,2128,2052,2066,2062
2051,2056,2050,2068,2110,2070,2044,2062
2049,2052,2048,2061,2096,2086,2061,2066
2042,2049,2048,2057,2072,2097,2053,2061
2034,2046,2037,2045,2050,2105,2050,2062
2033,2039,2028,2037,2036,2100,2056,2063
2036,2042,2036,2039,2036,2078,2064,2064
2043,2046,2043,2045,2037,2097,2071,2064
2043,2047,2041,2045,2051,2143,2062,2057
2036,2040,2035,2040,2046,2119,2044,2042
2037,2046,2030,2037,2044,2017,2037,2039
2035,2044,2029,2048,2039,1969,2033,2039
2027,2042,2033,2041,2033,2014,2053,2040
2039,2047,2039,2045,2066,2047,2056,2035
2040,2042,2028,2052,2094,2047,2052,2024
2037,2041,2033,2058,2110,2037,2043,2021
2036,2041,2032,2056,2112,2037,2065,2022
2043,2039,2041,2061,2119,2054,2058,2030
2049,2050,2036,2065,2110,2056,2059,2028
2049,2043,2042,2056,2085,2049,2060,2033
2045,2048,2040,2054,2055,2042,2077,2034
2048,2044,2039,2042,2016,2023,2065,2020
2045,2051,2040,2024,1983,2030,2060,2025
2060,2058,2049,2030,2013,2070,2078,2040
2067,2066,2057,2049,2027,2091,2086,2045
2065,2065,2054,2053,2047,2125,2094,2041
2060,2062,2048,2055,2050,2164,2098,2040
2059,2064,2050,2059,2050,2148,2102,2044
2057,2065,2051,2058,2043,2036,2070,2048
2062,2062,2054,2049,2031,1943,2060,2049
2051,2056,2050,2050,2029,1979,2064,2052
2047,2052,2050,2052,2035,2019,2072,2060
2044,2051,2046,2050,2036,2030,2072,2064
2048,2045,2046,2048,2040,2037,2060,2070
2041,2049,2045,2053,2051,2054,2059,2069
2038,2050,2047,2052,2062,2068,2043,2074
2040,2052,2040,2059,2080,2058,2041,2072
2032,2035,2028,2036,2047,2041,2019,2071
2028,2034,2027,2042,2055,2060,2028,2071
2040,2046,2036,2066,2084,2063,2052,2072
2042,2041,2042,2057,2074,2027,2031,2063
2043,2041,2038,2060,2064,2001,2014,2047
2037,2040,2038,2059,2106,2001,2010,2045
2043,2042,2037,2068,2162,2004,2061,2055
2048,2048,2043,2061,2099,1985,2069,2054
2056,2057,2049,2059,2031,1977,2058,2048
2060,2056,2045,2062,2024,1980,2045,2049
2053,2056,2043,2056,2008,1977,2040,2039
2056,2059,2045,2054,1965,1963,2033,2028
2046,2051,2047,2047,1993,1943,2015,2021
2051,2051,2039,2039,1949,1938,2011,2024
2049,2046,2036,2037,1927,1936,2011,2020
2043,2043,2038,2027,1917,1954,2007,2013
2041,2039,2036,2032,1942,2007,2070,2037
2060,2050,2046,2053,2014,2072,2104,2041
2057,2056,2052,2052,2063,2132,2101,2044
2057,2052,2049,2045,2124,2205,2110,2037
2050,2050,2050,2042,2125,2222,2109,2033
2043,2049,2034,2029,2078,2184,2077,2022
2033,2039,2029,2020,2057,2145,2040,2016
2037,2039,2030,2037,2107,2082,2063,2044
2053,2054,2050,2071,2182,2028,2084,2067
2063,2057,2047,2085,2185,2028,2083,2062
2056,2053,2043,2073,2043,2034,2060,2056
2056,2055,2043,2071,2063,2068,2066,2053
2050,2055,2045,2080,2129,2070,2076,2061
2047,2046,2039,2067,2122,2031,2068,2065
2044,2043,2035,2061,2087,1996,2054,2068
2041,2040,2032,2036,1990,2008,2050,2068
2041,2040,2027,2031,1952,2036,2048,2074
2043,2039,2030,2033,1979,2042,2049,2074
2052,2051,2043,2055,1996,2037,2053,2070
2051,2052,2050,2055,2027,2025,2044,2072
2054,2066,2050,2064,2067,2023,2055,2065
2043,2056,2048,2055,2086,2036,2050,2050
2039,2057,2035,2048,2064,2089,2048,2045
2045,2057,2040,2051,2059,2109,2041,2049
2050,2064,2045,2046,2029,2052,2059,2046
2048,2064,2054,2045,2019,2003,2044,2042
2053,2064,2052,2044,2024,2005,2053,2047
2054,2064,2054,2047,2036,2014,2054,2048
2057,2064,2052,2050,2024,2006,2046,2040
2055,2056,2051,2052,2027,2001,2046,2037
2052,2062,2048,2052,2069,2019,2050,2030
2044,2053,2044,2056,2085,2044,2060,2024
2037,2049,2031,2052,2112,2064,2064,2016
2044,2038,2027,2058,2166,2093,2089,2019
2052,2049,2036,2059,2173,2099,2095,2029
2053,2048,2036,2053,2120,2086,2078,2018
2052,2049,2037,2060,2132,2058,2070,2027
2055,2050,2039,2062,2159,2045,2035,2027
2056,2047,2041,2067,2135,2046,2047,2036
2058,2055,2045,2053,2093,2037,2042,2040
2050,2051,2039,2031,1942,2003,2033,2042
2052,2047,2037,2026,1910,1994,2039,2050
2053,2048,2042,2045,1981,2024,2052,2057
2048,2040,2046,2047,2014,2028,2054,2059
2049,2043,2045,2050,2037,2054,2057,2065
2048,2045,2050,2059,2046,2066,2043,2071
2049,2052,2053,2055,2053,2046,2052,2067
2047,2049,2048,2055,2042,2065,2061,2070
2038,2043,2042,2042,2025,2063,2050,2071
2035,2044,2036,2045,2024,2050,2055,2068
2040,2050,2044,2044,2024,2049,2065,2069
2050,2050,2050,2041,2026,2042,2050,2070
2054,2054,2057,2054,2037,2006,2034,2077
2057,2055,2059,2055,2034,1992,2031,2064
2055,2057,2052,2052,2017,1990,2013,2056
2054,2053,2042,2043,2005,2019,2028,2046
2042,2051,2033,2031,1981,2051,2047,2034
2042,2044,2031,2030,1973,2066,2042,2030
2044,2045,2037,2019,1970,2068,2042,2017
2046,2035,2028,2013,1983,2043,2036,2015
2050,2047,2040,2046,2046,2024,2059,2034
2062,2057,2050,2067,2095,2041,2068,2040
2059,2055,2052,2068,2096,2056,2055,2038
2060,2054,2048,2069,2101,2073,2065,2027
2056,2047,2049,2059,2081,2061,2061,2026
2051,2048,2045,2056,2056,2047,2056,2026
2060,2050,2049,2054,2060,2045,2059,2031
2057,2061,2048,2058,2036,2035,2064,2037
2057,2056,2048,2052,2032,2028,2059,2031
2048,2054,2045,2046,2036,2033,2055,2037
2049,2062,2051,2053,2063,2051,2060,2036
2055,2056,2049,2057,2072,2064,2076,2046
2052,2060,2054,2064,2082,2068,2069,2042
2046,2060,2051,2063,2092,2063,2070,2045
2046,2059,2048,2062,2096,2070,2066,2057
2049,2063,2047,2062,2099,2084,2075,2068
2054,2052,2048,2061,2103,2092,2064,2080
2047,2050,2042,2058,2098,2097,2064,2078
2052,2047,2042,2056,2097,2101,2068,2088
2049,2046,2039,2052,2067,2090,2074,2084
2044,2038,2031,2039,2038,2068,2066,2074
2037,2029,2028,2036,2034,2058,2055,2081
2038,2039,2036,2036,2003,2059,2054,2073
2040,2036,2036,2035,1991,2063,2054,2064
2037,2032,2032,2036,1979,2061,2041,2055
2039,2033,2026,2038,1989,2052,2044,2056
2043,2033,2025,2041,2021,2037,2035,2060
2046,2046,2035,2047,2023,2029,2061,2063
2044,2049,2038,2041,2007,2038,2063,2048
2047,2058,2039,2052,2040,2048,2061,2040
2055,2055,2043,2053,2070,2049,2062,2041
2049,2046,2042,2044,2059,2053,2047,2034
2040,2043,2026,2038,2022,2083,2048,2031
2036,2040,2027,2032,2005,2102,2050,2024
2040,2037,2024,2031,2002,2103,2050,2027
2041,2045,2026,2031,2006,2073,2050,2032
2051,2051,2034,2046,2030,2002,2054,2042
2045,2046,2037,2061,2072,2006,2051,2035
2055,2052,2045,2061,2101,2030,2052,2037
2054,2052,2042,2058,2108,2044,2063,2037
2058,2055,2045,2061,2099,2055,2064,2042
2056,2055,2041,2062,2068,2058,2059,2043
2055,2058,2046,2055,2058,2050,2065,2039
2055,2056,2048,2058,2057,2035,2038,2036
2054,2054,2049,2061,2061,2029,2043,2039
2052,2050,2046,2062,2054,2023,2048,2040
2052,2054,2047,2062,2056,2020,2027,2047
2050,2048,2042,2058,2042,2022,2038,2066
2049,2050,2048,2050,2052,2027,2058,2081
2048,2047,2042,2045,2049,2041,2070,2084
2046,2046,2043,2049,2072,2049,2068,2089
2047,2040,2045,2059,2080,2046,2062,2084
2048,2038,2035,2056,2062,2043,2040,2084
2039,2029,2031,2054,2065,2053,2046,2084
2044,2038,2039,2062,2094,2070,2052,2083
2054,2045,2042,2065,2075,2063,2047,2082
2060,2039,2038,2063,2061,2062,2046,2080
2064,2043,2043,2067,2040,2032,2044,2068
2059,2051,2048,2060,2045,2004,2038,2065
2062,2052,2043,2060,2031,1992,2036,2058
2054,2049,2031,2038,2001,1983,2022,2049
2055,2050,2031,2040,2022,2007,2032,2038
2050,2047,2033,2047,2054,2036,2052,2036
2054,2039,2037,2052,2078,2050,2053,2035
2054,2042,2039,2054,2064,2049,2053,2036
2055,2048,2036,2049,2043,2046,2028,2033
2045,2040,2031,2041,2037,2036,2033,2028
2049,2044,2038,2043,2041,2018,2039,2020
2049,2036,2040,2046,2039,2014,2051,2016
2042,2034,2034,2040,2031,2014,2044,2011
2042,2037,2037,2035,2026,2027,2043,2015
2057,2050,2042,2049,2075,2064,2050,2037
2060,2059,2049,2057,2092,2081,2083,2048
2066,2058,2049,2054,2086,2069,2080,2051
2068,2061,2052,2050,2059,2044,2054,2052
2065,2058,2049,2058,2040,2029,2061,2048
2066,2057,2048,2061,2057,2050,2048,2047
2054,2051,2041,2062,2076,2063,2059,2046
2059,2053,2043,2067,2078,2070,2059,2056
2056,2054,2047,2060,2069,2059,2066,2071
2054,2058,2044,2058,2063,2058,2087,2077
2054,2051,2043,2057,2060,2058,2074,2082
2055,2042,2045,2055,2059,2057,2079,2089
2051,2047,2045,2054,2051,2053,2070,2091
2057,2045,2042,2048,2041,2050,2063,2086
2048,2037,2036,2043,2034,2062,2060,2085
2053,2036,2036,2042,2027,2073,2053,2090
2062,2052,2048,2050,2040,2090,2061,2081
2064,2058,2049,2060,2062,2086,2049,2070
2065,2058,2052,2065,2068,2062,2028,2063
2057,2058,2050,2066,2066,2068,2024,2050
2051,2051,2039,2057,2058,2053,2024,2048
2043,2050,2038,2054,2054,2011,2025,2044
2051,2051,2045,2054,2060,1983,2030,2043
2052,2057,2045,2060,2061,2006,2045,2042
2059,2053,2047,2063,2062,2022,2058,2037
2056,2053,2048,2064,2068,2060,2062,2040
2057,2047,2057,2067,2086,2099,2062,2035
2054,2050,2051,2066,2084,2145,2055,2033
2056,2046,2045,2066,2079,2137,2057,2036
2060,2050,2052,2070,2075,2069,2071,2037
2059,2040,2045,2063,2059,1977,2052,2031
2051,2041,2043,2070,2060,2002,2059,2037
2057,2051,2052,2071,2052,2019,2043,2037
2054,2048,2053,2059,2027,2004,2038,2044
2053,2051,2051,2040,2005,2005,2024,2032
2061,2047,2050,2045,2016,2011,2026,2034
2057,2048,2047,2050,2006,2007,2043,2044
2052,2048,2047,2044,1979,1984,2040,2039
