CH1,CH2,CH3,CH4,CH5,CH6,CH7,CH8
2058,2063,2058,2050,2047,2060,2042,2014
2054,2060,2050,2042,2035,2054,2025,2000
2044,2057,2047,2042,2037,2042,2014,1997
2047,2060,2056,2043,2041,2037,2019,1995
2048,2059,2046,2046,2036,2022,2002,1980
2027,2029,2037,2038,2034,2029,2019,1978
2022,2027,2036,2051,2052,2048,2053,1999
2047,2050,2046,2064,2069,2052,2065,1996
2051,2053,2032,2071,2067,2056,2060,2004
2050,2059,2029,2070,2070,2059,2065,2013
2047,2054,2032,2068,2069,2061,2067,2014
2056,2057,2032,2069,2070,2052,2057,2022
2061,2062,2036,2070,2070,2053,2050,2027
2050,2060,2039,2073,2064,2044,2058,2034
2050,2056,2042,2068,2074,2054,2054,2045
2057,2062,2047,2071,2073,2052,2065,2059
2047,2056,2047,2073,2074,2058,2061,2065
2051,2054,2050,2067,2074,2053,2051,2078
2044,2049,2053,2046,2066,2048,2053,2091
2040,2044,2055,2034,2055,2044,2045,2093
2043,2047,2069,2034,2056,2034,2014,2083
2025,2030,2072,2030,2043,2034,2033,2099
2032,2036,2088,2040,2055,2056,2047,2108
2047,2055,2103,2046,2055,2050,2028,2104
2050,2046,2101,2051,2043,2040,2033,2092
2047,2031,2092,2061,2036,2040,2043,2084
2038,2034,2092,2055,2034,2042,2053,2077
2039,2034,2077,2048,2036,2044,2056,2070
2045,2033,2077,2057,2040,2043,2041,2063
2053,2040,2071,2067,2046,2047,2029,2048
2048,2037,2067,2067,2051,2047,2036,2034
2045,2038,2066,2069,2055,2048,2028,2033
2047,2055,2072,2067,2054,2054,2048,2028
2051,2061,2083,2069,2054,2048,2050,2016
2053,2056,2074,2062,2051,2055,2026,2010
2051,2055,2067,2062,2056,2057,2046,2005
2056,2054,2063,2050,2045,2042,2025,1983
2035,2026,2039,2027,2035,2032,2023,1984
2031,2016,2035,2026,2036,2050,2050,1998
2053,2048,2059,2027,2051,2060,2052,2001
2057,2056,2049,2020,2052,2056,2056,2005
2050,2054,2036,2016,2044,2051,2063,2014
2054,2059,2042,2028,2051,2057,2060,2020
2052,2061,2041,2037,2055,2061,2057,2030
2054,2058,2048,2050,2061,2062,2059,2028
2059,2061,2050,2046,2063,2066,2061,2039
2053,2051,2048,2047,2060,2062,2066,2050
2048,2049,2046,2056,2059,2057,2064,2066
2052,2050,2043,2050,2064,2054,2043,2078
2046,2045,2037,2061,2060,2052,2056,2091
2054,2045,2029,2065,2050,2047,2052,2095
2045,2045,2029,2068,2052,2045,2060,2092
2044,2042,2022,2073,2052,2044,2038,2091
2029,2022,2009,2053,2034,2033,2021,2085
2026,2024,2016,2052,2039,2038,2023,2105
2042,2056,2058,2071,2047,2049,2029,2105
2049,2060,2074,2070,2046,2043,2063,2097
2050,2060,2073,2070,2038,2045,2042,2091
2045,2058,2074,2066,2043,2044,2067,2080
2047,2051,2061,2060,2048,2046,2056,2068
2047,2048,2057,2056,2038,2044,2040,2053
2047,2049,2049,2041,2030,2044,2022,2044
2040,2048,2045,2021,2025,2042,2032,2029
2050,2051,2046,2013,2025,2047,2058,2016
2045,2043,2033,2003,2028,2052,2046,2010
2041,2038,2023,1999,2032,2045,2042,2011
2041,2034,2022,2002,2039,2050,2042,1998
2037,2032,2032,2016,2029,2059,2044,1994
2039,2034,2046,2027,2036,2055,2042,1981
2027,2012,2036,2014,2029,2040,2032,1980
2011,2010,2032,2010,2034,2041,2043,1990
2030,2034,2045,2035,2052,2063,2053,1999
2040,2049,2055,2040,2057,2063,2051,2010
2045,2060,2047,2046,2044,2063,2047,2004
2046,2066,2057,2045,2051,2059,2058,2020
2052,2067,2050,2046,2061,2054,2061,2025
2058,2060,2044,2046,2053,2059,2070,2030
2056,2058,2044,2054,2053,2059,2064,2043
2054,2060,2041,2055,2060,2063,2060,2057
2059,2054,2038,2054,2066,2064,2065,2062
2055,2054,2038,2052,2055,2057,2076,2076
2052,2054,2036,2050,2056,2054,2070,2087
2053,2046,2038,2052,2054,2057,2071,2096
2052,2053,2045,2060,2056,2061,2055,2103
2054,2052,2063,2062,2061,2057,2033,2105
2043,2037,2052,2044,2047,2039,2019,2096
2028,2024,2049,2034,2042,2043,2050,2101
2038,2045,2062,2057,2057,2059,2056,2102
2046,2044,2060,2062,2062,2062,2055,2100
2042,2046,2057,2059,2065,2059,2035,2096
2040,2050,2058,2059,2064,2058,2051,2087
2043,2052,2056,2066,2060,2062,2055,2076
2051,2048,2049,2050,2054,2060,2041,2069
2051,2048,2046,2054,2051,2062,2051,2052
2045,2052,2044,2056,2050,2057,2050,2040
2049,2051,2034,2054,2054,2054,2056,2027
2055,2049,2025,2051,2040,2051,2048,2023
2045,2040,2020,2042,2028,2049,2056,2008
2045,2039,2012,2035,2025,2040,2047,2006
2041,2035,2010,2039,2041,2046,2044,2001
2041,2039,2029,2041,2043,2044,2047,1998
2040,2034,2033,2023,2029,2024,2028,1974
2020,2008,2015,2006,2018,2020,2025,1964
2014,2009,2014,2005,2020,2039,2057,1990
2036,2032,2036,2018,2029,2045,2054,2000
2047,2049,2069,2039,2043,2053,2064,2002
2050,2062,2088,2059,2055,2054,2064,2010
2054,2065,2097,2068,2058,2052,2070,2012
2050,2070,2099,2070,2062,2057,2069,2019
2054,2070,2093,2068,2052,2058,2065,2031
2055,2072,2082,2060,2057,2055,2071,2037
2061,2064,2076,2060,2062,2056,2073,2053
2055,2064,2072,2055,2056,2053,2064,2064
2051,2057,2064,2051,2059,2053,2061,2070
2052,2049,2062,2048,2062,2050,2069,2092
2048,2049,2064,2049,2055,2041,2062,2104
2051,2051,2058,2051,2050,2039,2057,2110
2047,2058,2069,2053,2055,2035,2052,2104
2025,2025,2042,2033,2034,2025,2014,2095
2023,2021,2038,2032,2029,2024,2025,2103
2042,2049,2059,2037,2032,2039,2040,2107
2049,2056,2057,2036,2022,2032,2066,2100
2051,2058,2049,2037,2022,2035,2059,2102
2059,2059,2054,2034,2016,2039,2048,2088
2060,2062,2067,2045,2024,2042,2039,2082
2051,2060,2053,2050,2024,2036,2055,2065
2052,2050,2040,2035,2022,2028,2045,2053
2050,2046,2030,2034,2026,2029,2048,2038
2048,2047,2023,2037,2033,2032,2060,2031
2045,2046,2019,2045,2037,2034,2054,2029
2047,2045,2022,2047,2046,2036,2049,2017
2046,2039,2023,2048,2043,2040,2047,2003
2046,2033,2020,2054,2038,2037,2040,2003
2047,2026,2015,2056,2032,2041,2038,2003
2043,2013,1998,2038,2020,2028,2021,1982
2030,2007,2003,2036,2021,2039,2013,1985
2032,2036,2027,2060,2046,2069,2055,1998
2051,2056,2047,2060,2056,2075,2065,2002
2054,2060,2061,2061,2055,2080,2068,2001
2054,2055,2058,2059,2053,2072,2053,2008
2057,2051,2047,2059,2053,2073,2064,2017
2051,2054,2049,2058,2049,2082,2066,2023
2049,2058,2052,2063,2062,2077,2070,2036
2055,2056,2057,2068,2066,2081,2081,2046
2061,2059,2057,2081,2069,2070,2077,2058
2056,2064,2065,2088,2070,2072,2069,2067
2052,2061,2062,2088,2068,2069,2073,2078
2047,2049,2059,2078,2068,2066,2059,2089
2047,2055,2068,2084,2065,2065,2069,2089
2043,2048,2071,2081,2059,2060,2052,2105
2045,2045,2058,2072,2046,2035,2046,2085
2016,2017,2046,2060,2032,2030,2031,2088
2021,2025,2046,2071,2044,2048,2033,2106
2043,2054,2057,2074,2045,2052,2036,2102
2049,2051,2056,2076,2046,2059,2046,2100
2051,2054,2060,2078,2048,2050,2044,2093
2052,2047,2057,2064,2030,2050,2041,2085
2051,2048,2054,2036,2026,2043,2055,2068
2050,2051,2061,2028,2022,2046,2046,2061
2054,2059,2090,2036,2028,2048,2064,2052
2057,2073,2111,2039,2032,2061,2049,2045
2058,2082,2110,2052,2045,2075,2049,2041
2064,2082,2102,2056,2049,2082,2045,2036
2067,2084,2091,2061,2047,2087,2037,2023
2060,2079,2078,2063,2040,2083,2047,2012
2052,2067,2064,2058,2038,2082,2051,2007
2050,2065,2068,2048,2037,2082,2039,1992
2034,2024,2039,2021,2021,2062,2020,1980
2026,2025,2039,2013,2017,2034,2041,1992
2047,2046,2057,2024,2036,2020,2052,1988
2048,2054,2060,2027,2043,2028,2051,2009
2051,2052,2057,2026,2051,2042,2059,2013
2053,2050,2050,2026,2045,2057,2063,2011
2054,2054,2048,2030,2056,2061,2065,2017
2052,2054,2052,2041,2059,2070,2060,2030
2063,2060,2057,2046,2065,2066,2049,2042
2061,2059,2049,2052,2070,2064,2052,2055
2053,2056,2052,2056,2057,2065,2060,2064
2053,2062,2049,2064,2077,2062,2058,2069
2047,2061,2052,2061,2076,2065,2079,2081
2044,2055,2046,2054,2068,2059,2067,2087
2039,2049,2035,2045,2054,2049,2055,2094
2042,2049,2046,2043,2053,2049,2046,2099
2041,2047,2029,2022,2028,2020,2027,2092
2019,2021,2019,2009,2020,2015,2018,2096
2017,2029,2024,2034,2020,2033,2050,2101
2043,2045,2036,2037,2025,2029,2022,2097
2042,2042,2029,2037,2017,2031,2038,2091
2040,2039,2031,2042,2022,2037,2032,2083
2034,2041,2035,2046,2026,2048,2041,2066
2037,2038,2028,2045,2026,2059,2035,2059
2046,2042,2021,2036,2031,2067,2035,2044
2040,2031,2015,2036,2029,2068,2052,2031
2033,2023,2013,2040,2038,2064,2032,2021
2039,2025,2016,2039,2055,2052,2028,2012
2044,2026,2022,2053,2058,2029,2039,2016
2046,2031,2029,2057,2056,2021,2040,2009
2046,2027,2019,2052,2047,2026,2050,2000
2044,2032,2024,2048,2022,2018,2049,1998
2046,2031,2020,2043,2003,2015,2017,1989
2031,2006,2005,2022,1988,1992,2008,1980
2026,2006,2003,2026,1983,1989,2021,1987
2042,2033,2015,2036,1996,2010,2034,1999
2050,2044,2022,2037,2020,2036,2045,2005
2064,2059,2049,2057,2063,2056,2066,2018
2063,2071,2077,2070,2075,2059,2063,2023
2072,2090,2093,2077,2079,2069,2071,2029
2072,2091,2101,2078,2088,2071,2079,2034
2079,2091,2110,2071,2065,2065,2066,2043
2070,2083,2100,2069,2069,2068,2063,2054
2072,2074,2087,2068,2075,2059,2066,2066
2064,2066,2077,2062,2065,2047,2060,2081
2064,2064,2059,2058,2048,2044,2054,2088
2060,2056,2041,2059,2044,2039,2059,2102
2065,2055,2025,2076,2045,2043,2062,2114
2059,2049,2012,2089,2049,2042,2052,2106
2049,2042,2014,2087,2048,2043,2037,2093
2026,2017,2005,2088,2067,2051,2053,2104
2034,2024,2012,2101,2086,2060,2062,2121
2051,2049,2027,2106,2082,2061,2058,2121
2060,2045,2027,2098,2076,2046,2056,2110
2052,2041,2029,2096,2080,2044,2032,2096
2048,2039,2024,2089,2070,2033,2051,2078
2052,2036,2024,2077,2061,2036,2054,2070
2051,2035,2026,2073,2058,2044,2053,2058
2052,2038,2026,2057,2050,2041,2057,2041
2048,2038,2034,2039,2045,2030,2028,2032
2041,2026,2029,2014,2043,2030,2048,2024
2040,2031,2041,1998,2029,2027,2047,2013
2038,2028,2038,1976,2024,2027,2041,2010
2036,2024,2025,1969,2029,2030,2058,2009
2036,2035,2006,1976,2035,2040,2061,2006
2048,2040,2010,1993,2044,2045,2050,2007
2049,2027,2006,2000,2033,2029,2049,1993
2032,2011,2012,2003,2027,2022,2031,1993
2029,2025,2029,2030,2049,2046,2056,2007
2054,2046,2048,2046,2058,2049,2061,2006
2054,2060,2053,2042,2058,2050,2061,2008
2061,2067,2061,2052,2060,2050,2078,2013
2060,2068,2063,2059,2065,2061,2075,2016
2055,2075,2088,2062,2066,2060,2088,2021
2059,2081,2093,2072,2064,2062,2082,2042
2064,2077,2090,2069,2066,2065,2083,2048
2061,2072,2087,2071,2074,2066,2083,2058
2061,2064,2074,2068,2072,2071,2078,2071
2057,2061,2072,2066,2072,2067,2071,2077
2054,2057,2068,2065,2072,2065,2063,2094
2054,2061,2070,2067,2071,2056,2066,2103
2050,2061,2070,2062,2065,2055,2054,2106
2055,2064,2070,2060,2062,2046,2056,2105
2036,2037,2054,2044,2050,2031,2048,2103
2033,2036,2050,2040,2036,2026,2042,2110
2052,2063,2061,2058,2050,2043,2060,2115
2062,2069,2058,2054,2056,2052,2066,2111
2054,2062,2053,2055,2051,2051,2061,2103
2060,2061,2054,2058,2049,2042,2069,2094
2060,2064,2052,2059,2046,2029,2054,2085
2063,2057,2053,2058,2037,2024,2042,2066
2058,2057,2049,2050,2032,2037,2039,2052
2047,2057,2061,2051,2049,2053,2069,2043
2053,2058,2059,2052,2054,2057,2074,2035
2053,2054,2061,2057,2054,2069,2070,2029
2048,2056,2055,2060,2054,2068,2071,2021
2054,2048,2055,2059,2057,2060,2071,2015
2051,2052,2053,2055,2049,2056,2067,2012
2058,2047,2048,2050,2053,2053,2069,2010
2052,2046,2050,2047,2052,2043,2056,1995
2038,2017,2031,2033,2037,2031,2043,1985
2027,2021,2023,2033,2036,2043,2056,1994
2050,2049,2047,2052,2058,2058,2074,2002
2050,2056,2046,2049,2057,2046,2068,1997
2052,2049,2045,2052,2060,2048,2049,2010
2054,2050,2046,2058,2058,2051,2062,2016
2059,2053,2050,2061,2065,2057,2061,2018
2060,2053,2049,2060,2077,2056,2065,2033
2053,2060,2052,2057,2078,2053,2058,2045
2052,2060,2055,2064,2080,2057,2051,2051
2054,2059,2059,2064,2075,2052,2040,2063
2050,2060,2060,2066,2078,2050,2057,2068
2048,2054,2055,2057,2077,2051,2070,2082
2055,2060,2055,2060,2066,2047,2065,2096
2057,2053,2054,2059,2058,2051,2064,2097
2055,2052,2051,2058,2048,2037,2053,2101
2054,2051,2040,2043,2030,2017,2005,2093
2029,2020,2020,2044,2022,2013,2016,2091
2022,2013,2023,2056,2038,2028,2024,2105
2043,2041,2041,2074,2050,2044,2051,2105
2038,2044,2051,2085,2065,2051,2056,2104
2043,2043,2051,2085,2058,2048,2064,2101
2042,2047,2046,2086,2060,2050,2058,2091
2051,2050,2047,2084,2059,2051,2049,2078
2050,2050,2043,2087,2054,2047,2046,2061
2055,2049,2035,2090,2058,2050,2051,2053
2058,2046,2028,2088,2066,2048,2052,2042
2048,2043,2020,2090,2068,2046,2060,2029
2049,2039,2007,2082,2067,2046,2049,2021
2046,2033,1997,2074,2055,2044,2038,2011
2038,2023,1987,2050,2043,2036,2026,2008
2031,2008,1982,2022,2032,2031,2028,1994
2032,2022,2004,2010,2031,2035,2029,1997
2041,2029,2020,2000,2022,2025,2026,1988
2034,2042,2062,2009,2029,2024,2031,1987
2054,2070,2103,2039,2055,2057,2060,2008
2070,2087,2116,2047,2066,2062,2048,2013
2067,2086,2106,2052,2067,2064,2055,2017
2067,2073,2086,2057,2065,2060,2057,2027
2063,2069,2074,2048,2060,2057,2070,2028
2058,2056,2071,2038,2062,2054,2065,2033
2056,2056,2069,2042,2057,2053,2050,2039
2052,2055,2068,2041,2067,2055,2066,2045
2058,2054,2068,2058,2065,2055,2064,2055
2060,2058,2070,2068,2065,2059,2062,2067
2056,2049,2069,2074,2074,2053,2056,2077
2055,2047,2068,2070,2064,2051,2060,2089
2045,2047,2057,2061,2056,2043,2053,2095
2042,2046,2057,2049,2046,2044,2053,2103
2044,2044,2053,2054,2046,2037,2041,2100
2029,2019,2033,2038,2039,2026,2037,2100
2024,2010,2026,2037,2036,2035,2056,2116
2044,2034,2042,2041,2045,2047,2050,2112
2045,2035,2039,2041,2040,2042,2038,2108
2048,2043,2042,2047,2040,2046,2057,2100
2051,2051,2041,2045,2035,2045,2057,2089
2052,2044,2035,2036,2041,2047,2041,2078
2049,2046,2036,2028,2034,2047,2055,2057
2045,2039,2037,2020,2018,2045,2042,2059
2046,2042,2039,2017,2006,2045,2048,2047
2048,2038,2031,2019,2013,2040,2042,2040
2050,2039,2023,2021,2036,2044,2054,2030
2042,2040,2031,2025,2035,2041,2050,2022
2044,2038,2035,2023,2027,2017,2031,2012
2046,2035,2039,2023,2003,2004,2048,2003
2045,2040,2036,2024,1984,1996,2038,2003
2046,2041,2017,2010,1965,1982,2019,1980
2027,2013,2005,2004,1970,1988,2006,1977
2023,2012,1997,2004,1997,2021,2034,1992
2041,2032,2000,2002,2018,2031,2046,1985
2047,2031,2009,2027,2051,2051,2053,1995
2052,2034,2021,2036,2075,2063,2040,2013
2053,2043,2024,2037,2083,2069,2055,2019
2048,2051,2031,2041,2089,2068,2058,2022
2052,2044,2016,2047,2077,2054,2053,2032
2053,2042,2007,2048,2069,2048,2047,2038
2051,2038,1998,2051,2071,2048,2049,2044
2046,2038,1993,2045,2068,2045,2052,2055
2046,2037,1998,2046,2074,2044,2057,2068
2042,2035,2012,2062,2083,2040,2063,2088
2050,2054,2045,2083,2084,2048,2058,2107
2060,2068,2077,2095,2082,2051,2060,2110
2063,2079,2101,2109,2083,2061,2029,2103
2045,2064,2087,2098,2072,2037,2018,2101
2040,2051,2079,2084,2069,2033,2037,2110
2046,2070,2089,2094,2069,2047,2023,2114
2049,2070,2088,2093,2074,2043,2039,2102
2046,2060,2080,2078,2072,2038,2043,2097
2046,2053,2069,2060,2049,2033,2031,2082
2049,2058,2072,2040,2029,2019,2029,2074
2055,2068,2078,2027,2017,2014,2029,2066
2060,2073,2081,2012,2015,2018,2038,2063
2057,2069,2069,2005,2022,2027,2037,2043
2058,2066,2063,1996,2037,2038,2044,2033
2054,2061,2052,2005,2071,2065,2054,2037
2057,2062,2029,2008,2082,2065,2047,2037
2065,2050,2019,2020,2077,2059,2048,2027
2063,2052,2032,2031,2069,2050,2021,2019
2066,2049,2041,2042,2060,2048,2021,2010
2063,2049,2039,2039,2049,2023,2029,1992
2038,2022,2029,2029,2042,2019,2008,1988
2039,2026,2033,2051,2059,2044,2041,2010
2063,2061,2061,2058,2073,2057,2062,2009
2064,2065,2063,2058,2077,2063,2047,2007
2058,2061,2063,2057,2074,2062,2050,2010
2059,2060,2058,2058,2067,2054,2051,2010
2052,2056,2061,2060,2066,2052,2054,2018
2052,2060,2060,2059,2065,2047,2052,2025
2054,2062,2054,2060,2071,2048,2044,2035
2054,2065,2063,2065,2074,2040,2045,2046
2058,2072,2069,2057,2065,2037,2024,2064
2054,2064,2060,2040,2065,2031,2051,2073
2056,2054,2059,2037,2060,2019,2043,2090
2047,2058,2069,2037,2062,2026,2047,2100
2047,2067,2077,2046,2069,2038,2042,2100
2057,2068,2070,2057,2067,2038,2034,2096
2036,2028,2042,2036,2058,2035,2041,2098
2032,2014,2024,2041,2054,2042,2057,2107
2045,2045,2033,2051,2063,2046,2048,2105
2035,2044,2038,2056,2069,2039,2042,2104
2036,2043,2030,2048,2051,2040,2042,2096
2040,2040,2032,2030,2043,2041,2046,2088
2047,2050,2039,2014,2032,2057,2036,2073
2054,2057,2047,2009,2027,2063,2046,2063
2054,2070,2064,2006,2028,2075,2044,2055
2054,2066,2058,2010,2032,2074,2044,2037
2059,2057,2052,2011,2030,2068,2043,2029
2054,2054,2059,2013,2024,2040,2054,2024
2060,2055,2051,2020,2031,2028,2043,2017
2051,2045,2040,2022,2031,2036,2049,2010
2045,2041,2035,2026,2043,2048,2046,2006
2052,2040,2034,2028,2042,2047,2028,1988
2039,2017,2018,2018,2024,2035,2025,1985
2026,2014,2010,2018,2038,2043,2041,2000
2045,2045,2012,2031,2059,2053,2047,2004
2046,2041,1993,2034,2065,2053,2048,2004
2044,2033,1990,2033,2072,2051,2040,2007
2046,2033,1994,2031,2067,2064,2052,2017
2043,2036,1992,2039,2063,2077,2052,2021
2038,2035,2006,2036,2058,2075,2060,2030
2040,2030,2010,2033,2051,2066,2061,2034
2039,2033,2024,2036,2042,2052,2033,2041
2038,2030,2045,2035,2044,2037,2029,2058
2034,2030,2049,2047,2062,2018,2046,2069
2037,2026,2036,2047,2061,2029,2060,2085
2037,2033,2033,2034,2051,2032,2050,2098
2038,2040,2045,2036,2052,2043,2056,2108
2043,2059,2072,2050,2052,2042,2052,2099
2030,2033,2071,2046,2040,2033,2044,2093
2029,2032,2071,2042,2040,2043,2058,2112
2044,2056,2086,2052,2041,2043,2045,2109
2051,2059,2086,2049,2044,2033,2052,2108
2057,2059,2090,2054,2051,2032,2051,2094
2056,2065,2092,2060,2052,2040,2050,2087
2043,2058,2089,2056,2050,2048,2049,2069
2040,2057,2076,2047,2043,2049,2047,2057
2040,2059,2072,2049,2044,2050,2056,2046
2045,2059,2073,2055,2050,2051,2046,2036
2053,2060,2066,2065,2052,2050,2042,2029
2053,2062,2060,2061,2051,2055,2061,2023
2054,2059,2056,2046,2044,2048,2045,2021
2051,2055,2045,2034,2019,2052,2042,2018
2057,2059,2046,2039,2019,2049,2052,2017
2056,2062,2051,2046,2045,2045,2037,1998
2044,2044,2039,2035,2065,2043,2025,1994
2049,2043,2031,2032,2067,2057,2035,1997
2059,2064,2053,2041,2061,2050,2053,1992
2050,2052,2048,2033,2053,2053,2040,1997
2043,2039,2038,2036,2052,2040,2040,1998
2041,2042,2030,2045,2060,2026,2034,2000
2042,2036,2030,2048,2083,2019,2042,2014
2044,2031,2022,2062,2116,2031,2053,2020
2045,2031,2015,2064,2117,2051,2062,2030
2045,2028,2011,2059,2102,2061,2054,2039
2048,2023,2012,2040,2040,2053,2050,2055
2040,2015,2003,2030,1975,2042,2044,2069
2043,2018,2011,2040,1998,2038,2035,2081
2039,2021,2018,2045,2010,2049,2041,2088
2045,2022,2022,2057,2028,2062,2052,2086
2045,2020,2007,2058,2025,2052,2020,2084
2023,2003,1979,2048,2032,2051,2014,2096
2031,2010,1997,2053,2037,2062,2034,2118
2062,2042,2017,2062,2038,2038,2020,2120
2056,2041,2012,2066,2036,1998,2042,2111
2053,2039,2017,2058,2006,1989,2029,2097
2054,2044,2024,2048,1981,2000,2043,2084
2050,2046,2029,2045,1978,2014,2047,2069
2055,2051,2034,2035,1981,2023,2047,2047
2052,2050,2030,2014,1995,2039,2063,2035
2061,2047,2015,1997,2016,2056,2053,2030
2060,2045,1994,1980,2038,2048,2080,2034
2061,2056,1997,1969,2048,2054,2069,2027
2064,2064,2018,1986,2059,2061,2061,2019
2062,2064,2032,2003,2039,2049,2059,2013
2064,2064,2037,1999,2041,2049,2051,2006
2061,2061,2031,1998,2045,2042,2038,1992
2036,2027,2016,2006,2051,2031,2027,1983
2032,2020,2021,2018,2056,2046,2025,1999
2052,2047,2030,2029,2061,2057,2035,2002
2056,2060,2024,2039,2084,2060,2052,2007
2061,2067,2037,2061,2092,2063,2044,2014
2066,2064,2044,2063,2087,2062,2045,2023
2067,2059,2055,2062,2078,2060,2031,2029
2064,2057,2061,2058,2076,2054,2050,2034
2056,2047,2039,2059,2066,2052,2058,2036
2053,2040,2034,2058,2054,2049,2053,2048
2052,2032,2038,2061,2062,2053,2059,2059
2043,2035,2046,2057,2070,2061,2049,2070
2046,2032,2048,2051,2067,2058,2044,2082
2042,2027,2045,2045,2063,2056,2046,2089
2048,2032,2049,2039,2084,2057,2062,2098
2044,2030,2068,2038,2080,2050,2030,2094
2024,2008,2056,2034,2064,2048,2037,2091
2018,2011,2066,2049,2080,2061,2058,2102
2045,2040,2075,2068,2124,2074,2065,2103
2054,2050,2073,2072,2150,2080,2046,2101
2051,2046,2058,2076,2134,2076,2050,2090
2042,2039,2053,2072,2127,2067,2042,2076
2041,2032,2050,2067,2108,2062,2035,2062
2047,2034,2049,2060,2065,2058,2044,2052
2052,2036,2031,2050,2028,2069,2037,2038
2053,2042,2024,2040,1993,2072,2038,2030
2054,2045,2023,2039,1944,2072,2031,2021
2054,2043,2025,2021,1903,2050,2034,2018
2052,2042,2021,2010,1896,2031,2025,2005
2045,2047,2041,2014,1949,2004,2056,2014
2058,2068,2069,2045,2013,1981,2059,2018
2067,2080,2088,2058,2036,1990,2057,1999
2051,2064,2086,2052,2056,2010,2027,2001
2057,2060,2083,2056,2081,2049,2065,2000
2073,2078,2092,2054,2086,2064,2042,1998
2057,2072,2082,2050,2074,2062,2058,1998
2066,2072,2085,2053,2064,2062,2068,2007
2066,2071,2088,2056,2063,2060,2066,2013
2069,2072,2089,2050,2043,2054,2060,2020
2067,2073,2074,2041,2019,2049,2055,2034
2067,2063,2077,2039,2012,2048,2055,2039
2054,2057,2063,2039,2008,2045,2062,2049
2046,2055,2050,2031,1994,2051,2077,2056
2051,2049,2047,2022,2007,2063,2065,2065
2053,2054,2053,2042,2029,2069,2061,2084
2053,2052,2058,2052,2037,2064,2038,2086
2052,2049,2040,2048,2049,2058,2038,2095
2053,2039,2037,2057,2081,2065,2009,2088
2034,2021,2014,2052,2074,2046,2011,2092
2032,2030,2024,2060,2061,2029,2034,2114
2059,2064,2056,2062,2037,2034,2043,2103
2060,2065,2059,2054,2033,2046,2040,2089
2060,2064,2063,2046,2035,2045,2047,2076
2058,2059,2059,2050,2054,2026,2025,2080
2073,2065,2057,2051,2037,2028,2032,2069
2070,2064,2056,2044,2027,2043,2045,2050
2063,2058,2046,2039,2034,2054,2037,2034
2051,2051,2037,2033,2016,2060,2031,2026
2048,2051,2041,2028,1991,2046,2024,2022
2046,2057,2050,2026,1987,2021,2036,2021
2048,2053,2050,2033,1993,2016,2042,2019
2039,2060,2049,2037,1987,2024,2029,2013
2051,2059,2058,2043,2020,2032,2050,2010
2054,2054,2053,2046,2056,2026,2034,1993
2031,2029,2036,2035,2056,2016,2034,1989
2030,2029,2046,2029,2053,2033,2064,2008
2050,2055,2066,2042,2089,2038,2053,2013
2050,2045,2060,2047,2132,2051,2069,2013
2054,2048,2056,2056,2162,2060,2083,2013
2056,2060,2059,2070,2187,2064,2077,2021
2056,2067,2069,2097,2188,2060,2081,2032
2057,2080,2093,2113,2172,2052,2067,2049
2060,2079,2089,2117,2136,2038,2070,2056
2062,2076,2084,2112,2051,2035,2062,2067
2060,2068,2069,2096,2044,2041,2068,2066
2052,2053,2052,2087,2084,2060,2043,2071
2039,2034,2034,2076,2103,2062,2045,2086
2038,2035,2033,2067,2086,2062,2038,2090
2036,2030,2037,2058,2051,2066,2057,2097
2037,2034,2034,2058,2050,2040,2036,2092
2020,2001,2018,2043,2024,2030,2045,2094
2019,2003,2020,2031,1999,2024,2055,2111
2036,2026,2015,2008,1974,2022,2047,2102
2031,2017,2005,1993,1970,2022,2050,2097
2029,2014,1999,1991,1990,2034,2048,2082
2028,2010,1993,1985,2014,2048,2038,2074
2032,2010,1996,1994,2044,2072,2054,2069
2032,2013,2001,2000,2078,2080,2055,2062
2036,2017,2003,2018,2093,2084,2067,2056
2038,2019,2000,2028,2110,2098,2072,2041
2040,2024,1992,2027,2104,2075,2059,2036
2040,2029,1972,2020,2090,2054,2044,2031
2038,2025,1951,2032,2084,2045,2043,2018
2039,2023,1928,2043,2077,2043,2056,2020
2039,2028,1931,2055,2069,2042,2059,2011
2037,2028,1916,2054,2037,2027,2040,1989
2021,2001,1876,2050,2017,2024,2026,1989
2027,2011,1890,2071,2052,2036,2032,2010
2039,2041,1905,2083,2068,2043,2037,2013
2047,2039,1903,2073,2070,2048,2041,2016
2048,2049,1908,2067,2064,2046,2033,2024
2055,2058,1916,2064,2048,2052,2065,2031
2054,2065,1945,2062,2033,2062,2049,2036
2055,2074,1977,2061,2035,2073,2060,2041
2056,2077,2008,2057,2041,2075,2070,2048
2055,2072,2033,2051,2062,2084,2083,2057
2055,2073,2061,2032,2056,2078,2068,2072
2056,2083,2110,2034,2082,2060,2079,2093
2066,2102,2148,2056,2115,2068,2090,2113
2072,2112,2161,2061,2106,2081,2072,2125
2066,2100,2163,2068,2118,2095,2071,2124
2056,2088,2158,2063,2113,2084,2055,2108
2034,2064,2159,2069,2104,2091,2057,2110
2040,2076,2161,2084,2102,2107,2073,2132
2057,2098,2154,2086,2086,2096,2063,2131
2055,2099,2142,2066,2044,2064,2070,2114
2054,2095,2130,2041,1966,2016,2047,2107
2056,2095,2130,2024,1904,1984,2039,2096
2050,2092,2124,2026,1877,2009,2046,2078
2047,2088,2105,2025,1895,2039,2018,2056
2058,2098,2117,2049,1959,2038,2030,2056
2068,2110,2128,2065,1968,2019,2043,2058
2070,2107,2127,2081,2007,2037,2046,2059
2067,2097,2125,2092,2063,2029,2055,2054
2068,2091,2129,2089,2080,2041,2056,2038
2065,2077,2117,2082,2044,2045,2045,2030
2059,2076,2105,2055,1987,2044,2058,2025
2060,2079,2102,2040,2028,2045,2042,2010
2042,2048,2072,2017,2055,2047,2036,2006
2039,2045,2061,2015,2092,2066,2054,2013
2052,2065,2077,2048,2143,2079,2057,2020
2058,2066,2080,2069,2165,2073,2049,2026
2060,2072,2080,2076,2155,2072,2061,2022
2062,2078,2081,2063,2120,2070,2066,2023
2059,2069,2074,2046,2099,2062,2060,2034
2062,2062,2068,2040,2078,2049,2054,2035
2058,2061,2060,2032,1996,2041,2056,2033
2050,2054,2062,2035,1958,2027,2040,2044
2047,2056,2064,2044,1976,1993,2055,2064
2052,2065,2068,2059,2037,1989,2070,2081
2053,2060,2070,2068,2092,2013,2068,2092
2051,2068,2073,2071,2096,2041,2061,2106
2051,2058,2074,2058,2082,2055,2039,2114
2052,2056,2066,2045,2079,2069,2055,2119
2045,2042,2051,2042,2122,2065,2037,2116
2040,2037,2045,2053,2184,2093,2042,2114
2035,2052,2058,2067,2262,2140,2081,2134
2052,2062,2061,2076,2279,2167,2090,2130
2053,2061,2062,2065,2196,2175,2110,2128
2054,2063,2065,2067,2166,2185,2089,2124
2055,2065,2070,2070,2210,2213,2099,2111
2059,2069,2066,2082,2224,2226,2102,2092
2059,2065,2058,2058,2135,2177,2081,2073
2051,2056,2040,2025,1992,2074,2059,2058
2045,2054,2035,2018,1976,1993,2065,2034
2046,2050,2037,2019,1998,1949,2054,2022
2040,2049,2053,2047,1998,1939,2050,2014
2044,2045,2053,2059,1965,1950,2042,2011
2041,2035,2047,2031,1866,1950,2043,2004
2042,2025,2030,2003,1839,1954,2051,1999
2035,2019,2011,1956,1762,1935,2001,1973
2013,1985,1996,1941,1720,1916,2002,1966
2009,1989,2007,1985,1858,1939,2023,1986
2032,2023,2038,2021,1975,1971,2043,1993
2048,2050,2059,2060,2042,1988,2058,2006
2062,2056,2075,2068,2022,2002,2042,2019
2069,2060,2077,2068,1997,2010,2049,2020
2061,2072,2077,2065,1992,2025,2028,2032
2051,2061,2057,2034,1978,2011,2010,2030
2048,2050,2046,2028,2018,2024,2021,2036
2045,2048,2052,2051,2090,2051,2047,2047
2051,2046,2054,2067,2112,2054,2051,2064
2049,2055,2060,2058,2088,2047,2041,2078
2051,2060,2059,2051,2093,2037,2051,2080
2048,2062,2058,2057,2182,2049,2067,2091
2054,2062,2053,2078,2274,2068,2059,2108
2061,2056,2045,2068,2287,2053,2041,2100
2034,2024,2032,2072,2286,2061,2037,2105
2038,2026,2042,2074,2252,2075,2033,2110
2057,2049,2053,2073,2216,2084,2053,2104
2048,2041,2043,2072,2228,2088,2062,2098
2050,2049,2046,2077,2230,2107,2048,2084
2043,2053,2052,2079,2195,2112,2046,2089
2054,2058,2052,2075,2129,2059,2052,2086
2062,2062,2062,2056,2003,2001,2050,2090
2068,2070,2056,2031,1908,1977,2047,2082
2064,2064,2052,2031,1938,2008,2026,2060
2059,2057,2059,2063,2015,2048,2044,2044
2060,2056,2064,2078,2060,2066,2047,2040
2068,2053,2056,2061,2031,2057,2043,2032
2067,2046,2052,2050,1996,2047,2042,2019
2056,2035,2048,2044,1976,2044,2062,2006
2060,2040,2039,2033,1990,2042,2035,1990
2035,2013,2023,2032,1996,2051,2051,1978
2036,2010,2027,2042,2014,2069,2055,1991
2051,2036,2036,2050,1994,2065,2060,1993
2050,2041,2047,2061,2010,2055,2037,2001
2053,2047,2044,2064,2043,2051,2045,2003
2051,2042,2046,2054,2025,2041,2066,2007
2048,2039,2051,2055,1999,2031,2065,2019
2056,2041,2052,2059,2046,2024,2068,2027
2045,2035,2042,2057,2049,2000,2071,2030
2043,2027,2043,2050,2009,1996,2078,2044
2043,2039,2050,2071,2025,2018,2074,2069
2043,2048,2059,2094,2068,2045,2084,2082
2052,2049,2056,2096,2111,2050,2071,2102
2050,2055,2062,2094,2120,2047,2071,2108
2065,2056,2065,2098,2101,2053,2079,2112
2067,2065,2059,2092,2085,2046,2062,2108
2045,2039,2042,2071,2042,2049,2030,2103
2043,2043,2042,2063,2029,2074,2056,2120
2059,2071,2053,2063,2039,2090,2050,2107
2058,2062,2050,2057,2054,2095,2042,2105
2054,2062,2047,2039,2056,2088,2037,2090
2050,2053,2054,2040,2097,2081,2030,2074
2043,2048,2047,2043,2091,2067,2042,2062
2048,2046,2050,2039,2008,2044,2053,2054
2057,2045,2056,2035,1968,2029,2060,2050
2049,2047,2060,2035,1983,2035,2063,2040
2052,2056,2059,2045,2008,2045,2056,2040
2056,2061,2061,2057,2002,2053,2055,2022
2057,2062,2061,2065,2008,2054,2062,2018
2062,2065,2064,2067,2048,2051,2066,2009
2064,2062,2055,2072,2111,2036,2038,2009
2066,2050,2052,2054,2108,1988,2009,1984
2035,2020,2021,2027,2068,1964,2040,1971
2025,2019,2024,2025,1995,1984,2062,1988
2051,2049,2051,2050,2034,2018,2030,2001
2054,2059,2059,2061,2036,2029,2061,2004
2052,2060,2057,2054,1975,2029,2056,2011
2052,2056,2052,2047,1962,2027,2060,2011
2056,2062,2054,2044,1979,2027,2064,2017
2056,2058,2052,2047,2002,2025,2072,2027
2053,2054,2049,2046,2026,2029,2062,2039
2054,2045,2044,2050,2078,2034,2071,2052
2054,2038,2042,2058,2132,2049,2056,2066
2046,2028,2032,2057,2153,2046,2056,2072
2040,2031,2036,2052,2123,2039,2043,2086
2045,2045,2055,2052,2100,2039,2050,2100
2057,2066,2065,2061,2088,2043,2049,2106
2058,2057,2057,2057,2035,2029,2038,2103
2033,2027,2035,2039,2025,2025,2035,2106
2035,2022,2042,2053,2066,2043,2050,2118
2061,2057,2062,2069,2073,2044,2061,2115
2063,2057,2060,2058,2038,2050,2066,2113
2063,2059,2061,2058,2008,2047,2077,2113
2070,2057,2052,2060,2012,2055,2076,2104
2054,2052,2046,2051,2033,2064,2079,2091
2056,2052,2049,2047,2004,2065,2092,2069
2057,2036,2044,2030,1958,2062,2087,2063
2057,2033,2031,2014,1973,2063,2069,2045
2042,2030,2028,2021,1934,2073,2092,2032
2045,2034,2042,2015,1845,2074,2085,2029
2045,2033,2038,2005,1905,2083,2083,2014
2046,2026,2030,2019,2028,2088,2066,2012
2034,2019,2027,2055,2106,2093,2062,1989
2032,2009,2023,2068,2148,2065,2047,1973
2010,1981,1995,2042,2081,1999,2026,1967
2005,1991,1994,2026,2011,1964,2043,1991
2039,2034,2032,2051,2015,1995,2049,2002
2058,2052,2062,2078,2083,2039,2040,2013
2065,2057,2069,2088,2119,2045,2040,2013
2064,2060,2065,2098,2182,2064,2058,2008
2052,2052,2061,2091,2186,2060,2047,2019
2060,2056,2068,2089,2175,2073,2042,2030
2059,2056,2070,2093,2186,2085,2048,2036
2057,2056,2066,2101,2212,2105,2082,2060
2053,2057,2063,2102,2206,2116,2078,2078
2040,2047,2061,2090,2222,2106,2069,2079
2041,2043,2048,2088,2218,2102,2062,2090
2039,2034,2046,2054,2076,2071,2051,2096
2040,2036,2041,2031,2021,2032,2048,2107
2045,2039,2053,2035,1971,2015,2026,2098
2035,2020,2035,2040,1980,2026,2009,2107
2027,2022,2038,2051,2032,2057,2043,2117
2041,2048,2064,2080,2076,2090,2056,2119
2046,2054,2069,2085,2074,2097,2058,2111
2050,2055,2068,2086,2047,2091,2068,2099
2046,2049,2068,2089,2048,2092,2064,2096
2054,2048,2061,2101,2104,2092,2061,2095
2061,2053,2060,2115,2198,2104,2070,2090
2061,2047,2048,2106,2206,2085,2066,2065
2051,2033,2039,2078,2175,2054,2052,2048
2047,2031,2037,2069,2201,2038,2044,2043
2054,2032,2037,2071,2213,2025,2040,2029
2042,2026,2036,2050,2141,1973,2022,1990
2031,2024,2037,2032,2068,1955,2007,1990
2030,2039,2044,2049,2089,1986,2020,2002
2049,2049,2049,2067,2115,2029,2031,2002
2051,2041,2042,2083,2158,2040,2034,2011
2054,2037,2042,2094,2179,2062,2021,2015
2064,2051,2056,2104,2213,2079,2054,2011
2055,2054,2050,2077,2170,2062,2055,1995
2045,2052,2043,2038,2000,2042,2031,1992
2048,2033,2038,2011,1864,2031,2038,2001
2045,2025,2043,2027,1840,2044,2038,2009
2042,2031,2050,2018,1722,2028,2040,2025
2041,2040,2057,2006,1743,2017,2031,2045
2057,2048,2057,2037,1875,2003,2050,2078
2072,2064,2074,2063,1982,2015,2089,2091
2072,2065,2081,2076,2040,2041,2091,2099
2070,2069,2080,2073,2091,2071,2104,2105
2074,2070,2066,2062,2129,2074,2097,2102
2061,2054,2050,2046,2144,2072,2070,2111
2046,2055,2052,2042,2049,2059,2076,2115
2038,2025,2038,2016,2029,2036,2046,2102
2034,2028,2032,2030,2102,2040,2049,2112
2050,2049,2043,2056,2134,2065,2046,2123
2053,2052,2037,2049,2117,2049,2035,2102
2052,2043,2028,2038,2054,2025,2029,2091
2045,2036,2026,2052,2033,2028,2049,2079
2043,2041,2032,2066,2046,2026,2038,2067
2041,2046,2033,2064,2037,2024,2046,2054
2049,2040,2028,2064,2035,2026,2037,2056
2060,2041,2028,2055,2052,2034,2036,2043
2050,2035,2024,2058,2054,2029,2021,2021
2039,2028,2027,2058,2051,2034,2021,1998
2045,2026,2030,2052,2062,2052,2028,2002
2042,2025,2033,2060,2068,2057,2045,1998
2038,2028,2040,2060,2052,2049,2050,1991
2035,2027,2049,2057,2041,2034,2020,1985
2035,2018,2033,2045,2026,2017,2021,1971
2015,1996,2018,2037,2020,2021,2018,1969
2015,2010,2029,2056,2044,2048,2033,1990
2043,2043,2052,2064,2056,2058,2050,1998
2050,2044,2058,2070,2067,2057,2054,1999
2052,2043,2069,2068,2066,2060,2057,2010
2049,2039,2066,2073,2064,2060,2056,2013
2059,2041,2058,2076,2061,2055,2066,2014
2060,2047,2047,2071,2019,2054,2067,2030
2058,2046,2043,2066,1989,2043,2052,2036
2049,2034,2034,2064,1989,2036,2041,2050
2042,2030,2034,2066,1998,2047,2045,2062
2042,2038,2042,2066,1997,2036,2053,2072
2052,2039,2040,2067,1982,2017,2049,2087
2048,2041,2038,2067,1955,2010,2045,2091
2051,2041,2024,2055,1946,2014,2039,2100
2042,2040,2016,2044,1937,2020,2034,2088
2024,2002,1995,2022,1944,2020,2008,2085
2016,1992,1990,2028,2020,2021,2005,2085
2022,2013,2022,2066,2127,2025,2015,2083
2029,2021,2030,2087,2160,2028,2025,2089
2040,2035,2052,2095,2145,2051,2035,2088
2051,2041,2061,2091,2119,2063,2056,2087
2052,2046,2051,2076,2105,2069,2058,2074
2052,2052,2047,2062,2084,2055,2059,2058
2054,2053,2061,2058,2085,2057,2041,2053
2053,2064,2071,2052,2088,2062,2056,2045
2055,2062,2079,2056,2091,2063,2069,2031
2051,2059,2075,2057,2099,2068,2055,2025
2049,2055,2072,2053,2143,2064,2035,2010
2042,2052,2056,2052,2167,2070,2034,2008
2042,2046,2057,2054,2173,2070,2031,2003
2054,2052,2068,2069,2173,2078,2039,2005
2058,2053,2060,2056,2139,2071,2042,1988
2043,2041,2062,2049,2077,2070,2066,1995
2050,2057,2076,2063,2007,2090,2084,2022
2078,2072,2078,2057,2006,2079,2087,2012
2069,2071,2080,2054,2012,2075,2079,2010
2061,2071,2078,2037,1896,2062,2065,2010
2054,2068,2079,2024,1834,2037,2065,2027
2064,2068,2087,2043,1874,2005,2058,2048
2065,2068,2090,2027,1819,1970,2038,2043
2060,2064,2070,2023,1903,1992,2043,2039
2046,2058,2058,2029,2021,2018,2046,2042
2044,2047,2051,2055,2097,2058,2048,2049
2046,2042,2054,2081,2153,2095,2063,2072
2052,2052,2070,2097,2187,2064,2044,2082
2050,2046,2069,2091,2173,2038,2061,2099
2052,2053,2068,2085,2157,2050,2065,2099
2040,2034,2046,2069,2130,2035,2022,2076
2018,2006,2031,2052,2149,2016,2018,2072
2020,2022,2041,2051,2069,2037,2045,2076
2025,2028,2042,2056,2068,2062,2030,2080
2032,2031,2051,2064,2093,2065,2030,2080
2041,2034,2048,2069,2092,2062,2015,2066
2043,2036,2053,2073,2085,2052,2027,2055
2043,2034,2045,2053,2043,2041,2010,2028
2028,2027,2039,2042,2018,2025,2021,2024
2039,2029,2050,2058,2024,2003,2026,2020
2047,2034,2048,2064,2041,2013,2030,2015
2045,2026,2045,2066,2050,2031,2050,2011
2046,2031,2043,2073,2059,2049,2015,2000
2041,2030,2041,2066,2078,2054,2015,1994
2040,2030,2039,2069,2073,2049,2011,1995
2046,2027,2040,2077,2076,2053,2026,1986
2034,2004,2014,2059,2066,2029,2009,1978
2027,1991,2005,2055,2071,2031,2022,1988
2047,2016,2023,2072,2088,2053,2032,1994
2054,2015,2022,2067,2094,2053,2046,1991
2051,2021,2016,2066,2075,2052,2054,1992
2046,2022,2014,2054,2026,2041,2053,1994
2047,2033,2010,2047,2011,2041,2056,1994
2049,2031,2007,2044,2026,2046,2048,2001
2041,2021,1999,2035,2036,2053,2056,2013
2042,2019,1997,2024,2026,2025,2036,2028
2046,2020,2008,2023,2024,2000,2032,2040
2040,2030,2016,2029,2035,2008,2065,2057
2047,2045,2044,2045,2054,2015,2057,2076
2049,2065,2063,2052,2056,2023,2048,2089
2057,2060,2062,2054,2051,2023,2041,2100
2055,2056,2065,2051,2043,2014,2033,2089
2034,2033,2060,2038,2031,2004,2032,2088
2028,2026,2065,2047,2037,2013,2064,2101
2050,2052,2089,2064,2038,2022,2070,2097
2051,2061,2092,2073,2043,2032,2070,2085
2044,2060,2092,2078,2056,2035,2073,2079
2044,2057,2079,2080,2055,2045,2068,2067
2052,2055,2081,2069,2053,2056,2069,2057
2052,2052,2071,2070,2047,2066,2072,2038
2046,2049,2065,2068,2045,2070,2079,2030
2045,2039,2055,2068,2047,2082,2073,2022
2041,2041,2058,2063,2044,2074,2063,2012
2042,2038,2057,2059,2042,2067,2065,2007
2045,2040,2050,2054,2031,2066,2071,1998
2046,2038,2042,2049,2026,2058,2061,2002
2058,2039,2053,2056,2036,2070,2079,2003
2058,2051,2058,2057,2027,2063,2048,1992
2044,2025,2035,2043,2021,2059,2054,1986
2043,2025,2041,2053,2042,2089,2090,2011
2066,2060,2065,2069,2055,2087,2098,2008
2061,2062,2060,2069,2053,2089,2082,2000
2058,2057,2064,2068,2059,2093,2076,2002
2064,2059,2059,2072,2064,2083,2066,2011
2066,2058,2058,2068,2061,2071,2051,2013
2064,2056,2056,2069,2070,2071,2072,2011
2063,2056,2056,2072,2074,2065,2064,2016
2049,2053,2061,2071,2073,2068,2062,2016
2047,2044,2053,2070,2071,2056,2063,2037
2037,2044,2051,2061,2066,2042,2041,2046
2026,2034,2041,2058,2064,2028,2026,2061
2030,2037,2049,2060,2062,2037,2036,2080
2032,2036,2040,2062,2062,2041,2049,2089
2042,2037,2031,2053,2040,2026,2033,2076
2017,2006,2020,2045,2030,2023,2030,2080
2020,2013,2037,2061,2048,2041,2050,2090
2043,2032,2034,2060,2046,2044,2047,2093
2045,2038,2040,2057,2044,2044,2055,2075
2040,2037,2041,2057,2037,2046,2051,2068
2039,2037,2037,2057,2033,2044,2058,2056
2036,2040,2038,2052,2027,2052,2054,2047
2044,2040,2043,2059,2040,2057,2059,2046
2040,2042,2042,2058,2037,2056,2056,2026
2046,2044,2041,2056,2035,2060,2058,2013
2047,2048,2046,2056,2039,2062,2066,2013
2046,2060,2054,2056,2040,2063,2064,2007
2054,2059,2060,2062,2047,2075,2065,2005
2056,2064,2061,2066,2044,2084,2064,2004
2056,2070,2068,2063,2052,2086,2068,1993
2049,2050,2051,2058,2032,2063,2039,1977
2033,2032,2045,2053,2023,2055,2039,1974
2043,2048,2064,2074,2049,2066,2060,1981
2054,2059,2075,2073,2056,2064,2054,1990
2050,2055,2067,2072,2058,2055,2049,1990
2053,2051,2061,2069,2058,2053,2055,1998
2049,2047,2056,2073,2065,2045,2033,2000
2053,2052,2058,2076,2063,2041,2040,2009
2051,2050,2058,2071,2062,2042,2050,2012
2050,2048,2050,2079,2063,2033,2038,2021
2056,2047,2048,2078,2069,2037,2045,2031
2050,2040,2048,2065,2061,2042,2041,2044
2041,2033,2037,2056,2061,2046,2041,2057
2034,2024,2026,2056,2045,2047,2050,2070
2031,2019,2030,2051,2045,2052,2050,2076
2028,2020,2028,2055,2041,2054,2045,2079
2023,2000,2013,2035,2027,2030,2034,2079
2011,1989,2003,2034,2028,2033,2027,2081
2027,2015,2023,2050,2032,2041,2037,2093
2034,2022,2019,2042,2030,2039,2047,2089
2036,2022,2023,2046,2020,2034,2030,2082
2041,2026,2027,2047,2022,2036,2031,2075
2044,2032,2030,2044,2014,2026,2032,2063
2042,2037,2026,2048,2012,2030,2019,2043
2037,2039,2022,2045,2017,2036,1997,2032
2038,2032,2016,2044,2016,2040,2024,2025
2037,2029,2015,2051,2018,2042,2034,2016
2038,2032,2011,2052,2025,2037,2028,2018
2036,2031,2010,2047,2027,2037,2021,2003
2035,2031,2013,2050,2023,2036,2017,1995
2038,2037,2020,2056,2031,2037,2024,1992
2045,2050,2027,2062,2037,2044,2027,1984
2041,2027,2018,2051,2030,2034,2016,1966
2032,2020,2024,2047,2022,2030,2011,1971
2041,2043,2045,2061,2044,2050,2037,1984
2053,2049,2044,2052,2042,2044,2034,1985
2050,2055,2049,2048,2034,2038,2025,1988
2046,2053,2054,2056,2042,2034,2026,1996
2044,2054,2060,2060,2046,2041,2045,2000
2053,2061,2070,2067,2059,2054,2047,2018
2056,2063,2064,2067,2057,2062,2059,2026
2056,2060,2064,2066,2055,2054,2059,2034
2059,2061,2061,2063,2058,2060,2058,2048
2058,2064,2051,2066,2070,2063,2054,2060
2057,2065,2043,2066,2069,2055,2055,2073
2056,2054,2038,2062,2052,2048,2037,2081
2054,2056,2037,2063,2052,2038,2032,2086
2045,2044,2035,2058,2052,2036,2033,2079
2028,2016,2013,2037,2026,2017,2021,2074
2020,2001,2002,2032,2027,2027,2029,2076
2031,2022,2031,2047,2041,2046,2040,2084
2043,2044,2051,2059,2041,2060,2038,2083
2052,2049,2073,2061,2043,2061,2045,2086
2051,2058,2081,2059,2035,2062,2052,2080
2054,2055,2088,2064,2043,2058,2027,2069
2047,2058,2096,2072,2043,2058,2041,2054
2052,2067,2103,2074,2047,2064,2037,2033
2051,2073,2105,2080,2044,2067,2056,2029
2049,2076,2098,2073,2046,2066,2040,2021
2047,2074,2095,2069,2045,2068,2032,2022
2057,2077,2091,2065,2044,2066,2036,2016
2058,2074,2091,2060,2034,2061,2036,2001
2056,2070,2086,2061,2033,2060,2043,1997
2052,2064,2073,2062,2037,2053,2037,1993
2042,2047,2059,2054,2022,2031,2027,1977
2036,2043,2061,2051,2024,2030,2002,1978
2033,2059,2077,2064,2036,2046,2018,1993
2052,2075,2079,2062,2044,2037,2032,1994
2052,2074,2078,2069,2051,2039,2036,1992
2053,2077,2077,2069,2050,2044,2034,2004
2054,2079,2074,2073,2046,2047,2044,2006
2056,2073,2077,2070,2045,2051,2041,2013
2056,2072,2077,2072,2052,2048,2042,2026
2046,2064,2068,2072,2053,2053,2038,2023
2046,2062,2073,2072,2050,2065,2047,2030
2042,2060,2066,2068,2054,2078,2049,2028
2036,2053,2060,2066,2051,2078,2044,2046
2029,2054,2062,2064,2054,2082,2041,2059
2028,2048,2058,2055,2041,2087,2037,2072
2032,2051,2063,2061,2042,2075,2053,2086
2039,2049,2061,2063,2042,2024,2028,2082
2024,2025,2045,2058,2044,2029,2040,2084
2024,2021,2050,2064,2058,2052,2044,2099
2046,2061,2064,2074,2052,2064,2051,2098
2048,2062,2068,2068,2051,2060,2050,2092
2043,2060,2067,2068,2048,2067,2061,2077
2044,2058,2067,2062,2052,2081,2066,2073
2044,2063,2067,2061,2054,2092,2057,2058
2049,2057,2060,2060,2046,2100,2034,2042
2045,2053,2060,2051,2044,2106,2043,2026
2039,2043,2057,2054,2038,2096,2040,2013
2039,2039,2049,2051,2031,2086,2037,2001
2040,2046,2048,2052,2035,2086,2039,1999
2044,2048,2052,2055,2036,2038,2032,1995
2039,2045,2051,2044,2024,1974,2028,1986
2042,2047,2051,2043,2027,1982,2022,1982
2045,2049,2042,2039,2018,1997,2024,1966
2026,2019,2028,2035,2012,2011,2018,1971
2024,2010,2028,2038,2031,2038,2035,1980
2047,2044,2049,2051,2045,2055,2035,1982
2039,2048,2049,2053,2039,2057,2019,1993
2041,2041,2046,2050,2050,2057,2022,1994
2041,2045,2049,2049,2047,2060,2024,1995
2048,2048,2055,2057,2051,2064,2024,1997
2039,2050,2045,2058,2060,2069,2018,2012
2041,2047,2045,2062,2064,2070,2020,2022
2041,2049,2053,2057,2062,2073,2015,2033
2046,2056,2059,2061,2061,2062,2032,2046
2049,2058,2066,2056,2062,2063,2037,2058
2046,2059,2072,2062,2056,2058,2028,2070
2048,2058,2062,2052,2051,2058,2041,2074
2038,2046,2056,2050,2044,2059,2037,2081
2038,2050,2058,2042,2030,2043,2022,2068
2018,2025,2052,2038,2016,2038,2019,2066
2017,2034,2067,2046,2029,2048,2041,2079
2039,2063,2086,2054,2027,2045,2008,2082
2037,2060,2075,2053,2021,2024,2019,2075
2039,2059,2070,2052,2021,2014,2022,2072
2044,2062,2068,2056,2023,2027,2029,2063
2047,2061,2069,2049,2015,2043,2024,2048
2041,2067,2062,2054,2019,2063,2020,2039
2044,2060,2058,2047,2018,2071,2026,2032
2040,2057,2054,2049,2016,2071,2029,2017
2045,2052,2053,2046,2020,2073,2033,2016
2044,2055,2050,2046,2016,2047,2032,2013
2044,2051,2051,2042,2025,2019,2024,2007
2039,2048,2052,2047,2030,2023,2011,1998
2041,2048,2056,2049,2036,2034,2018,1990
2039,2050,2054,2044,2026,2029,2011,1968
2025,2019,2035,2035,2015,2017,1988,1957
2017,2022,2034,2039,2026,2039,2028,1981
2046,2051,2055,2053,2032,2045,2017,1987
2042,2054,2058,2057,2032,2038,2021,1986
2043,2058,2061,2052,2039,2047,2019,1993
2043,2056,2064,2048,2037,2055,2032,1998
2042,2057,2064,2052,2038,2066,2041,2009
2050,2051,2064,2056,2053,2069,2047,2022
2048,2051,2058,2052,2055,2072,2066,2019
2044,2055,2062,2050,2056,2072,2054,2034
2041,2061,2064,2046,2053,2056,2061,2041
2042,2060,2060,2050,2043,2046,2060,2054
2044,2052,2059,2042,2043,2043,2070,2064
2044,2051,2058,2041,2038,2040,2067,2071
2036,2050,2054,2045,2037,2032,2058,2082
2040,2049,2057,2039,2031,2011,2058,2078
2022,2025,2034,2027,2024,2002,2062,2080
2021,2021,2046,2038,2033,2026,2075,2092
2042,2047,2049,2045,2034,2028,2080,2092
2041,2046,2052,2042,2028,2031,2088,2079
2045,2042,2052,2042,2018,2030,2085,2069
2044,2043,2055,2040,2003,2024,2071,2057
2042,2043,2050,2039,1979,2009,2046,2041
2044,2041,2046,2032,1958,2013,2051,2031
2037,2039,2039,2026,1967,2020,2060,2012
2036,2033,2038,2025,1994,2031,2044,2009
2038,2038,2033,2028,2014,2062,2034,2010
2040,2043,2052,2052,2046,2098,2064,1994
2052,2051,2050,2056,2071,2117,2067,1993
2049,2043,2046,2055,2085,2131,2072,1989
2046,2045,2050,2056,2081,2119,2074,1978
2046,2044,2040,2038,2044,2073,2044,1958
2033,2015,2025,2025,2018,2042,2025,1954
2025,2019,2037,2048,2031,2043,2041,1969
2046,2044,2049,2047,2040,2042,2044,1973
2050,2052,2055,2055,2055,2051,2050,1969
2056,2054,2056,2053,2054,2038,2046,1974
2045,2045,2056,2046,2049,2034,2046,1987
2049,2049,2055,2054,2065,2037,2039,1996
2054,2048,2054,2057,2064,2039,2026,2013
2042,2052,2057,2061,2065,2041,2049,2015
2047,2054,2061,2061,2058,2048,2043,2031
2047,2051,2055,2055,2061,2048,2036,2043
2045,2050,2050,2056,2059,2052,2064,2053
2046,2051,2059,2053,2047,2058,2060,2075
2045,2045,2055,2042,2034,2061,2060,2071
2044,2047,2059,2043,2041,2068,2075,2085
2042,2049,2050,2033,2034,2042,2037,2080
2023,2024,2045,2032,2024,2031,2033,2081
2021,2038,2048,2038,2036,2049,2040,2084
2043,2049,2051,2036,2024,2049,2055,2080
2037,2047,2047,2037,1994,2062,2044,2072
2037,2050,2052,2027,1978,2076,2057,2066
2045,2056,2049,2031,1977,2083,2073,2051
2041,2053,2045,2023,1964,2074,2059,2046
2040,2051,2047,2018,1948,2045,2047,2028
2041,2046,2043,2022,1959,2004,2051,2028
2040,2050,2047,2031,1955,2025,2031,2019
2048,2056,2057,2041,1997,2055,2043,2008
2042,2049,2062,2042,2026,2045,2044,2003
2045,2054,2063,2037,2019,2019,2046,2002
2055,2059,2066,2045,2046,2012,2049,2001
2057,2069,2076,2057,2048,2026,2041,2006
2055,2052,2056,2040,2038,2031,2017,1978
2033,2032,2035,2036,2039,2031,2020,1979
2043,2045,2047,2048,2063,2038,2052,1987
2047,2047,2043,2036,2037,2022,2054,1988
2047,2049,2043,2039,2053,2030,2042,1997
2048,2046,2039,2045,2056,2048,2056,1991
2047,2039,2025,2033,2049,2066,2067,1989
2034,2034,2021,2035,2043,2079,2059,1999
2033,2040,2031,2040,2037,2091,2067,2013
2033,2044,2033,2041,2041,2076,2056,2029
2035,2051,2040,2059,2050,2054,2057,2042
2044,2040,2046,2051,2059,2043,2046,2056
2042,2049,2042,2047,2055,2053,2051,2069
2035,2045,2038,2043,2065,2072,2047,2074
2033,2036,2033,2041,2075,2084,2038,2083
2042,2034,2022,2040,2079,2077,2045,2092
2037,2019,2002,2012,2045,2038,2022,2083
2020,2009,2005,2007,2039,2032,2038,2091
2026,2031,2028,2025,2048,2036,2052,2104
2042,2043,2042,2035,2047,2031,2035,2098
2035,2045,2050,2029,2055,2040,2042,2094
2040,2043,2043,2036,2052,2042,2032,2077
2045,2051,2046,2031,2048,2039,2052,2069
2046,2047,2041,2035,2051,2044,2053,2060
2049,2056,2052,2040,2057,2049,2032,2045
2051,2057,2060,2045,2055,2044,2027,2030
2052,2066,2059,2046,2052,2046,2053,2033
2052,2064,2064,2053,2049,2048,2060,2024
2054,2070,2074,2057,2057,2054,2044,2011
2055,2065,2072,2046,2050,2036,2032,2006
2050,2059,2058,2042,2033,2023,2023,1998
2055,2052,2057,2037,2017,2019,2032,1986
2042,2039,2041,2017,1986,2022,2012,1975
2032,2034,2033,2006,1963,2036,2008,1968
2030,2050,2038,2007,1973,2094,2046,1981
2043,2058,2043,2021,1990,2113,2059,1981
2054,2064,2054,2034,2008,2088,2041,2000
2058,2068,2061,2042,2007,2061,2040,1999
2054,2057,2048,2054,2016,2042,2031,2010
2057,2059,2049,2057,2037,2013,2054,2018
2049,2060,2045,2055,2053,2024,2063,2024
2040,2049,2039,2049,2059,2039,2062,2031
2037,2048,2037,2044,2089,2033,2051,2048
2036,2045,2030,2040,2121,2039,2047,2062
2042,2051,2037,2064,2170,2068,2081,2082
2045,2056,2036,2068,2172,2080,2065,2089
2042,2058,2054,2071,2146,2078,2070,2105
2047,2068,2069,2076,2137,2080,2069,2101
2024,2038,2051,2061,2111,2063,2056,2095
2018,2025,2038,2055,2060,2045,2036,2100
2033,2042,2056,2056,1968,2029,2050,2102
2038,2043,2046,2052,1965,2023,2045,2102
2041,2050,2046,2059,2000,2031,2049,2090
2049,2050,2050,2054,2010,2032,2050,2085
2054,2050,2043,2036,2019,2028,2049,2065
2044,2044,2047,2040,2034,2038,2038,2059
2053,2060,2060,2052,2071,2047,2042,2054
2059,2064,2058,2057,2098,2051,2065,2043
2054,2062,2059,2059,2116,2058,2064,2028
2057,2068,2066,2069,2104,2060,2068,2028
2058,2066,2061,2056,2087,2051,2062,2013
2049,2064,2062,2035,2027,2037,2039,2004
2050,2053,2053,2016,1971,2038,2050,1997
2048,2054,2049,2006,1978,2042,2036,1986
2038,2026,2024,1990,1989,2042,2015,1975
2031,2026,2026,1993,2011,2061,2008,1984
2053,2053,2050,2030,2043,2085,2042,1991
2052,2057,2052,2044,2049,2077,2058,1994
2064,2057,2041,2050,2051,2086,2056,2001
2049,2060,2048,2058,2051,2096,2062,2001
2056,2057,2058,2059,2050,2099,2058,2014
2055,2053,2066,2068,2084,2117,2064,2031
2054,2061,2063,2078,2092,2107,2057,2033
2056,2069,2059,2081,2068,2042,2045,2042
2055,2069,2051,2078,2048,1994,2055,2056
2055,2069,2056,2070,2040,1996,2049,2068
2047,2058,2046,2052,2028,2033,2041,2077
2047,2066,2053,2052,2022,2051,2036,2082
2044,2065,2062,2046,2011,2058,2044,2084
2044,2052,2061,2031,1989,2041,2015,2084
2014,2016,2040,1990,1973,1994,1992,2076
2020,2011,2043,1980,2006,1982,2035,2104
2036,2044,2070,2003,2043,1999,2016,2104
2040,2049,2066,2004,2037,2002,2023,2089
2033,2045,2058,2001,2039,2024,2031,2083
2042,2049,2067,2015,2065,2052,2040,2073
2048,2052,2065,2015,2063,2055,2039,2068
2046,2050,2058,2010,2039,2047,2038,2055
2043,2051,2050,2011,2030,2035,2031,2044
2045,2046,2044,2006,2022,2029,2022,2031
2041,2052,2044,2001,2024,2029,2026,2022
2045,2044,2038,2002,2017,2025,2037,2013
2042,2038,2035,2004,2023,2030,2022,2006
2035,2038,2034,2016,2027,2028,2022,2001
2040,2052,2034,2025,2031,2035,2034,1998
2042,2055,2040,2029,2029,2023,2011,1983
2025,2030,2020,2019,2012,2019,2009,1983
2029,2019,2015,2014,2007,2036,2027,1993
2042,2048,2033,2045,2024,2049,2036,2002
2050,2054,2037,2057,2037,2054,2039,2003
2052,2059,2052,2061,2042,2059,2032,2004
2053,2064,2058,2062,2048,2069,2045,2002
2048,2063,2056,2064,2052,2064,2054,2017
2047,2061,2065,2061,2055,2053,2049,2021
2044,2058,2071,2053,2052,2048,2046,2026
2042,2050,2075,2058,2054,2049,2065,2035
2035,2043,2059,2046,2053,2036,2049,2047
2040,2036,2051,2030,2020,2028,2039,2059
2033,2036,2039,2028,2031,2026,2033,2068
2035,2033,2048,2025,2044,2023,2027,2092
2040,2050,2051,2018,2041,2020,2018,2105
2050,2066,2061,2027,2045,2014,2018,2102
2033,2046,2049,2015,2026,2015,2034,2101
2040,2049,2055,2011,2020,2039,2044,2111
2050,2082,2083,2034,2030,2057,2052,2106
2055,2079,2081,2030,2035,2057,2052,2099
2060,2073,2069,2013,2022,2044,2042,2095
2050,2073,2070,2005,2006,2041,2035,2078
2051,2073,2070,2014,2020,2063,2039,2066
2049,2071,2069,2016,2015,2080,2036,2058
2050,2064,2060,2009,1985,2084,2032,2035
2049,2064,2060,2008,1959,2085,2029,2029
2047,2059,2054,2009,1950,2049,2034,2025
2044,2058,2056,2009,1948,2018,2024,2025
2049,2056,2055,2017,1968,1988,2024,2022
2056,2056,2057,2028,2013,1983,2031,2017
2056,2055,2056,2030,2051,2029,2051,2010
2058,2055,2059,2036,2068,2052,2038,1994
2038,2030,2035,2017,2055,2056,2036,1994
2032,2032,2035,2022,2053,2062,2047,1998
2048,2060,2057,2038,2070,2057,2028,1993
2049,2054,2051,2033,2051,2053,2040,1991
2046,2058,2053,2041,2051,2052,2040,2001
2044,2064,2051,2034,2050,2050,2041,2001
2043,2063,2051,2040,2036,2048,2054,2017
2038,2068,2060,2043,2039,2045,2045,2029
2049,2067,2055,2037,2035,2038,2024,2038
2052,2068,2053,2042,2026,2030,2047,2047
2048,2066,2048,2039,2022,2031,2057,2060
2048,2061,2045,2032,2037,2039,2054,2076
2055,2058,2042,2045,2054,2043,2056,2091
2052,2060,2039,2041,2063,2049,2058,2098
2050,2061,2038,2036,2064,2046,2051,2102
2046,2050,2027,2027,2048,2038,2016,2095
2018,2006,1991,2004,2039,2032,2004,2097
2015,2000,1990,2004,2039,2046,2020,2110
2032,2029,2010,2023,2050,2053,2024,2103
2044,2038,2013,2021,2046,2053,2028,2093
2048,2035,2018,2019,2034,2054,2030,2089
2044,2041,2021,2025,2037,2052,2030,2086
2044,2043,2034,2039,2036,2051,2033,2067
2045,2048,2046,2038,2033,2051,2031,2049
2045,2055,2063,2042,2033,2050,2032,2040
2048,2059,2067,2044,2032,2044,2015,2025
2050,2060,2078,2059,2038,2045,2021,2023
2054,2053,2072,2055,2032,2048,2018,2011
2047,2051,2074,2054,2032,2049,2006,1998
2052,2049,2074,2057,2049,2058,2026,2007
2049,2057,2069,2061,2061,2056,2050,2003
2059,2059,2069,2055,2047,2036,2016,1985
2035,2033,2044,2039,2029,2021,2022,1973
2024,2026,2048,2041,2034,2035,2036,1994
2055,2064,2085,2058,2040,2047,2045,1997
2050,2062,2094,2061,2037,2047,2050,1999
2054,2061,2092,2047,2042,2053,2041,2008
2042,2058,2084,2033,2019,2054,2045,2012
2055,2059,2073,2022,2014,2065,2060,2032
2053,2060,2063,2015,2015,2076,2081,2048
2055,2057,2051,2002,2016,2089,2073,2045
2056,2051,2043,1999,2028,2091,2066,2053
2058,2052,2054,2019,2028,2083,2085,2061
2051,2056,2053,2012,1995,2066,2067,2074
2054,2050,2053,2009,1970,2044,2072,2081
2051,2048,2050,2012,1976,2012,2067,2087
2051,2053,2051,2012,1987,2021,2063,2091
2043,2041,2044,2006,1995,2034,2048,2088
2022,2021,2027,2006,2019,2049,2056,2091
2023,2020,2031,2028,2055,2067,2074,2106
2052,2051,2046,2038,2083,2089,2075,2102
2056,2047,2042,2039,2079,2085,2065,2098
2054,2049,2042,2037,2071,2079,2073,2084
2049,2039,2041,2036,2067,2059,2055,2068
2044,2040,2033,2031,2067,2051,2048,2046
2039,2039,2030,2027,2060,2063,2042,2033
2035,2043,2031,2024,2014,2063,2033,2025
2038,2040,2024,2018,1993,2065,2053,2018
2046,2040,2021,2010,1963,2047,2025,2019
2040,2043,2025,2010,1962,1994,2027,2014
2051,2053,2037,2035,2013,1962,2045,2015
2057,2042,2043,2047,2069,1992,2045,2008
2057,2044,2059,2055,2076,2020,2065,2009
2056,2035,2058,2040,2070,2032,2039,1989
2031,2003,2039,2030,2051,2036,2038,1982
2034,2011,2050,2046,2051,2065,2064,2005
2062,2057,2080,2055,2066,2077,2065,1997
2060,2046,2076,2066,2080,2077,2060,1989
2047,2038,2065,2062,2084,2071,2070,1994
2045,2041,2064,2059,2086,2072,2072,2010
2044,2048,2067,2052,2072,2050,2059,2017
2045,2057,2069,2043,2061,2035,2057,2027
2044,2059,2068,2033,2051,2039,2049,2036
2045,2058,2074,2028,2051,2047,2058,2051
2052,2053,2061,2020,2048,2051,2072,2066
2052,2051,2053,2016,2041,2050,2066,2084
2060,2061,2050,2010,2046,2048,2066,2096
2055,2067,2049,2016,2045,2049,2062,2101
2060,2069,2050,2013,2046,2052,2064,2111
2063,2070,2052,2006,2031,2039,2033,2094
2033,2041,2052,2007,2025,2043,2030,2091
2029,2043,2064,2026,2052,2061,2055,2104
2047,2063,2068,2030,2050,2057,2063,2100
2051,2062,2065,2033,2063,2060,2061,2097
2057,2058,2054,2033,2097,2050,2047,2086
2052,2055,2059,2044,2117,2036,2053,2074
2046,2056,2059,2042,2116,2036,2055,2057
2046,2053,2049,2045,2118,2046,2052,2048
2049,2053,2051,2049,2134,2063,2059,2033
2054,2052,2051,2057,2126,2059,2060,2030
2049,2057,2058,2055,2118,2069,2065,2026
2050,2053,2056,2059,2091,2068,2064,2021
2047,2049,2053,2046,2035,2048,2066,2008
2040,2047,2054,2035,1952,2027,2056,2006
2047,2047,2044,2024,1876,2013,2048,2003
2040,2040,2026,2003,1864,2002,2006,1973
2018,2012,2010,1992,1894,2017,2026,1975
2030,2038,2036,2039,2001,2054,2063,2000
2061,2065,2046,2056,2043,2066,2074,2012
2064,2060,2029,2040,2024,2067,2071,2011
2057,2045,2014,2027,2012,2076,2065,2008
2056,2039,2011,2028,2027,2088,2075,2003
2058,2040,2009,2032,2053,2081,2066,2001
2050,2038,2007,2037,2034,2057,2056,2003
2045,2039,2008,2034,2023,2018,2053,2018
2040,2036,2013,2041,2041,2005,2061,2034
2043,2035,2012,2057,2062,2024,2056,2056
2043,2032,2021,2060,2072,2042,2062,2064
2045,2028,2028,2065,2095,2055,2049,2079
2044,2029,2030,2058,2092,2052,2058,2089
2052,2027,2041,2059,2080,2060,2052,2099
2041,2017,2039,2045,2064,2043,2045,2096
2015,2012,2037,2039,2059,2041,2040,2089
2023,2028,2062,2049,2063,2057,2063,2103
2045,2040,2062,2057,2059,2057,2069,2102
2041,2048,2075,2057,2062,2058,2049,2098
2050,2072,2094,2064,2058,2058,2052,2092
2063,2076,2107,2063,2060,2060,2041,2087
2062,2084,2116,2067,2046,2054,2044,2077
2073,2080,2106,2057,2027,2054,2064,2073
2069,2078,2096,2044,2008,2045,2064,2056
2067,2071,2075,2036,2015,2051,2071,2052
2067,2068,2064,2037,2034,2053,2066,2034
2066,2062,2052,2033,2034,2064,2060,2028
2059,2055,2045,2042,2032,2064,2064,2018
2053,2056,2036,2042,2016,2065,2062,2018
2063,2052,2034,2045,2005,2063,2058,2010
2060,2030,2019,2030,2000,2045,2026,1988
2039,2008,2010,2032,1986,2037,2024,1975
2033,2011,2018,2039,2001,2042,2036,1993
2047,2025,2022,2043,2012,2045,2067,1990
2047,2022,2027,2064,2043,2051,2049,1994
2054,2027,2031,2064,2044,2046,2048,1995
2048,2031,2034,2056,2024,2050,2044,1998
2048,2025,2028,2049,2008,2053,2054,2005
2047,2025,2028,2048,2000,2048,2046,2018
2046,2028,2036,2047,1992,2048,2044,2030
2050,2038,2039,2041,1992,2045,2054,2048
2065,2050,2047,2038,2004,2025,2055,2061
2065,2056,2053,2042,2024,2016,2070,2088
2055,2059,2050,2042,2044,2025,2056,2098
2054,2049,2040,2037,2062,2039,2079,2099
2049,2045,2037,2039,2085,2061,2067,2107
2049,2039,2029,2023,2068,2050,2041,2092
2026,2012,2018,2018,2063,2047,2054,2103
2022,2023,2041,2030,2066,2053,2043,2112
2046,2044,2050,2036,2049,2048,2042,2104
2049,2052,2054,2026,2032,2050,2058,2100
2047,2052,2053,2028,2028,2047,2051,2097
2058,2059,2054,2028,2024,2045,2063,2092
2057,2065,2053,2021,2016,2041,2054,2081
2061,2075,2064,2027,2009,2043,2060,2068
2072,2073,2072,2031,2021,2052,2055,2052
2073,2068,2060,2035,2033,2055,2063,2054
2075,2068,2057,2038,2031,2057,2065,2044
2070,2060,2046,2034,2029,2054,2060,2026
2060,2044,2032,2020,2013,2040,2055,2011
2055,2045,2037,2025,2027,2042,2043,2010
2056,2062,2053,2038,2040,2053,2042,2003
2059,2061,2055,2038,2056,2052,2044,1996
2041,2046,2047,2036,2086,2057,2035,1998
2038,2049,2056,2050,2137,2076,2055,2002
2058,2066,2059,2057,2140,2083,2052,2008
2061,2059,2051,2063,2126,2088,2066,2013
2056,2061,2059,2079,2123,2104,2064,2008
2057,2066,2071,2091,2150,2118,2065,2019
2057,2069,2074,2093,2208,2139,2062,2024
2061,2066,2076,2096,2239,2154,2071,2032
2062,2068,2078,2076,2172,2135,2056,2041
2062,2069,2082,2065,2090,2112,2053,2064
2063,2071,2093,2063,2074,2091,2071,2071
2066,2071,2087,2075,2103,2089,2067,2082
2057,2063,2083,2076,2120,2078,2072,2099
2067,2061,2081,2078,2171,2068,2073,2109
2061,2057,2074,2078,2176,2054,2061,2116
2062,2045,2048,2056,2107,2006,2041,2096
2039,2018,2040,2034,2035,1987,2027,2101
2030,2039,2054,2044,2005,2015,2052,2108
2050,2056,2065,2047,1994,2028,2036,2102
2047,2060,2061,2049,1993,2045,2034,2092
2052,2053,2052,2040,1960,2046,2015,2089
2052,2052,2055,2035,1833,2035,2007,2086
2056,2063,2057,2043,1783,2017,2040,2078
2065,2070,2064,2046,1826,2058,2032,2064
2068,2083,2064,2054,1912,2105,2038,2061
2074,2086,2067,2074,1990,2118,2056,2049
2072,2070,2059,2070,2018,2095,2031,2035
2055,2064,2051,2071,2047,2042,2047,2022
2055,2057,2043,2068,2030,2020,2035,2013
2052,2057,2040,2056,2054,2034,2038,2008
2064,2057,2046,2045,2093,2048,2044,2002
2053,2037,2028,2025,2056,2050,2021,1986
2029,2015,2018,2012,1970,2066,2024,1979
2034,2032,2034,2017,1918,2107,2055,1997
2054,2048,2038,2008,1853,2087,2054,1988
2050,2045,2036,1996,1848,2050,2048,1994
2058,2060,2044,2024,1889,1965,2040,2019
2065,2064,2058,2044,1949,1932,2042,2040
2069,2064,2066,2063,2012,1958,2046,2043
2060,2056,2059,2054,2027,1994,2048,2038
2061,2051,2052,2064,2033,2007,2056,2047
2056,2042,2034,2052,2028,2025,2046,2049
2050,2038,2033,2045,2032,2040,2033,2056
2046,2040,2031,2042,2025,2038,2025,2068
2050,2041,2028,2038,2062,2042,2026,2079
2047,2050,2044,2053,2101,2030,2032,2096
2052,2048,2043,2060,2064,2028,2019,2104
2035,2028,2027,2051,2042,2021,1997,2101
2020,2017,2016,2038,2079,2030,2002,2110
2032,2040,2029,2053,2130,2054,2042,2124
2045,2050,2034,2050,2108,2052,2043,2105
2041,2049,2041,2044,2097,2044,2043,2101
2046,2054,2043,2042,2083,2040,2051,2089
2044,2045,2047,2040,2072,2046,2037,2082
2041,2043,2036,2040,2084,2060,2036,2066
2038,2044,2035,2052,2120,2076,2037,2056
2042,2039,2039,2055,2131,2082,2042,2050
2045,2037,2036,2056,2130,2096,2051,2031
2043,2038,2050,2067,2123,2111,2077,2029
2049,2044,2059,2070,2131,2117,2072,2010
2056,2044,2059,2070,2095,2109,2069,1999
2050,2051,2062,2076,2074,2097,2068,2005
2054,2057,2059,2068,2056,2095,2030,2001
2050,2034,2038,2041,2029,2068,2024,1990
2033,2026,2026,2020,1943,2048,2024,1995
2047,2046,2039,2023,1948,2046,2059,2004
2061,2048,2044,2037,2010,2049,2053,2011
2054,2043,2039,2059,2050,2069,2062,2011
2061,2049,2041,2091,2108,2092,2070,2018
2059,2052,2037,2105,2179,2105,2059,2032
2056,2048,2038,2103,2177,2102,2044,2037
2058,2051,2031,2103,2198,2085,2044,2032
2055,2043,2028,2094,2169,2059,2047,2041
2049,2040,2029,2078,2114,2036,2046,2059
2048,2050,2018,2060,2075,2019,2045,2067
2046,2057,2031,2055,2064,2022,2064,2086
2056,2058,2030,2047,2058,2023,2046,2104
2060,2061,2036,2044,2048,2035,2061,2109
2057,2061,2052,2043,1999,2045,2074,2109
2045,2048,2037,1996,1868,2014,2042,2105
2024,2033,2030,1977,1934,2009,2043,2112
2049,2067,2045,1999,1961,2015,2064,2126
2055,2073,2058,2010,1942,2012,2068,2124
2063,2072,2059,2029,2026,2036,2071,2117
2064,2064,2053,2039,2109,2054,2053,2102
2062,2067,2066,2056,2124,2059,2051,2082
2065,2084,2086,2060,2086,2058,2048,2072
2068,2083,2084,2049,2003,2060,2056,2058
2053,2068,2072,2051,1927,2060,2064,2035
2041,2054,2071,2041,1867,2049,2043,2015
2033,2047,2066,2050,1897,2036,2038,2014
2030,2048,2063,2072,2018,2051,2046,2007
2037,2063,2071,2102,2129,2070,2056,2009
2043,2062,2071,2106,2080,2068,2066,2011
2048,2067,2066,2094,2044,2059,2064,2005
2045,2056,2054,2074,2008,2030,2050,1994
2034,2039,2040,2058,1985,2046,2049,2000
2035,2046,2038,2052,1990,2067,2050,2023
2062,2064,2038,2038,1994,2064,2049,2020
2067,2063,2036,2019,1998,2054,2054,2021
2072,2065,2034,2031,2120,2070,2072,2037
2083,2081,2044,2066,2199,2071,2067,2048
2075,2075,2042,2042,1987,2036,2060,2038
2058,2054,2027,1983,1789,2026,2074,2036
2045,2041,2032,1997,1890,2038,2066,2040
2048,2044,2037,2012,1976,2052,2073,2051
2044,2047,2037,2029,2103,2076,2067,2066
2052,2049,2036,2049,2142,2089,2078,2089
2062,2051,2043,2045,2116,2079,2086,2102
2064,2052,2041,2038,2074,2051,2072,2111
2061,2043,2036,2032,2043,2033,2052,2111
2052,2022,2012,2019,2018,2011,2019,2089
2018,1999,1997,2004,1971,2011,1999,2079
2029,2018,2024,2024,1992,2051,2051,2106
2051,2047,2043,2050,2026,2100,2078,2108
2054,2046,2038,2073,2125,2095,2059,2100
2052,2034,2029,2093,2224,2097,2055,2093
2052,2038,2033,2109,2284,2113,2068,2090
2051,2039,2037,2092,2235,2094,2069,2078
2054,2028,2041,2072,2184,2071,2057,2071
2051,2036,2034,2049,2116,2050,2045,2059
2053,2040,2038,2029,2025,2030,2040,2050
2057,2042,2033,2026,1984,2031,2042,2046
2048,2027,2026,2016,1990,2016,2022,2029
2045,2016,2017,2016,1959,2002,2020,2013
2044,2027,2022,2030,1905,2017,2033,2010
2052,2036,2030,2036,1993,2032,2036,1996
2045,2031,2028,2041,2040,2047,2025,1987
2043,2028,2030,2024,1967,2043,2029,1986
2049,2045,2039,2048,2028,2069,2062,1999
2059,2043,2036,2047,2064,2065,2061,1998
2051,2041,2039,2043,2053,2055,2053,1996
2048,2034,2030,2037,2037,2063,2049,2006
2047,2030,2036,2035,2066,2049,2052,2017
2061,2047,2052,2048,2127,2032,2047,2027
2066,2056,2059,2063,2101,2008,2043,2035
2065,2051,2053,2066,2100,2002,2047,2041
2057,2048,2056,2074,2144,1978,2040,2056
2057,2054,2056,2076,2169,1971,2053,2068
2054,2058,2056,2068,2147,1984,2034,2089
2065,2060,2058,2066,2103,1994,2037,2104
2068,2061,2059,2057,2053,1997,2021,2112
2066,2055,2060,2026,1954,2003,2010,2110
2048,2031,2036,2002,1888,2017,2004,2110
2039,2021,2032,2016,1938,2048,2020,2125
2055,2039,2055,2034,1974,2069,2053,2125
2063,2050,2058,2046,2015,2074,2049,2107
2061,2053,2057,2070,2086,2073,2037,2094
2061,2053,2067,2080,2118,2030,2042,2093
2068,2063,2078,2085,2108,2026,2041,2089
2075,2066,2078,2077,2080,2032,2037,2078
2072,2065,2075,2067,2056,2038,2050,2073
2065,2059,2067,2056,2028,2030,2062,2054
2065,2058,2064,2047,2001,2028,2056,2039
2071,2066,2064,2056,2046,2034,2047,2033
2060,2060,2062,2053,2042,2030,2030,2026
2058,2047,2059,2049,2042,2032,2035,2022
2050,2052,2057,2055,2060,2044,2051,2021
2062,2062,2060,2059,2048,2062,2057,2019
2062,2042,2045,2064,2064,2048,2057,2020
2056,2033,2036,2064,2066,2055,2059,2019
2069,2057,2047,2066,2063,2058,2079,2023
2063,2051,2045,2059,2032,2050,2060,2017
2060,2046,2048,2049,1931,2036,2059,2010
2046,2050,2046,2035,1928,2029,2052,2014
2045,2047,2049,2046,2008,2031,2055,2029
2051,2045,2046,2052,1982,2008,2044,2032
2046,2036,2036,2043,1930,2010,2040,2031
2046,2033,2039,2061,2012,2020,2041,2043
2049,2046,2042,2076,2100,2026,2044,2051
2058,2043,2051,2080,2175,2055,2054,2062
2051,2046,2052,2077,2168,2067,2052,2083
2053,2048,2050,2064,2145,2078,2064,2095
2049,2040,2045,2055,2084,2078,2061,2112
2046,2036,2045,2039,2024,2062,2057,2104
2025,2010,2028,2013,1946,2031,2032,2102
2021,1998,2020,2000,1906,2027,2047,2114
2039,2028,2038,2025,1966,2058,2055,2117
2040,2032,2029,2047,2048,2071,2058,2108
2043,2034,2028,2045,2032,2068,2049,2096
2047,2045,2026,2038,2012,2038,2044,2087
2050,2045,2032,2034,2024,2026,2039,2063
2039,2046,2031,2027,2035,2036,2022,2031
2037,2047,2037,2023,2011,2059,2027,2025
2038,2042,2042,2007,1952,2064,2013,2025
2049,2035,2035,2001,1927,2047,2006,2021
2049,2038,2033,1999,1930,2007,2009,2011
2047,2043,2035,2016,1988,1960,2013,2017
2056,2054,2056,2071,2142,1977,2060,2031
2065,2061,2068,2101,2237,2040,2073,2033
2071,2058,2069,2101,2229,2063,2064,2016
2055,2027,2044,2074,2210,2072,2039,2014
2052,2024,2041,2063,2171,2058,2047,2014
2067,2057,2057,2068,2119,2061,2041,2015
2070,2054,2058,2054,2052,2047,2050,2025
2061,2055,2058,2052,2024,2051,2036,2021
2059,2054,2053,2050,2026,2052,2038,2034
2059,2051,2055,2040,1968,2039,2035,2027
2056,2047,2047,2015,1919,2048,2051,2039
2063,2041,2049,2032,2022,2073,2051,2044
2070,2055,2053,2057,2099,2088,2053,2062
2061,2056,2052,2069,2110,2082,2076,2075
2068,2041,2046,2069,2100,2069,2064,2088
2065,2039,2038,2066,2045,2044,2058,2094
2055,2029,2039,2059,2014,2036,2050,2102
2051,2028,2037,2053,1972,2024,2064,2106
2047,2028,2033,2063,1997,2020,2060,2096
2023,2002,2011,2068,2035,2012,2046,2088
2004,1993,2010,2071,2140,2044,2053,2088
2026,2022,2031,2084,2209,2084,2067,2093
2022,2021,2022,2059,2159,2089,2054,2089
2029,2013,2023,2045,2087,2075,2040,2081
2023,2016,2023,2035,2032,2067,2042,2082
2032,2025,2030,2042,2060,2064,2034,2076
2032,2032,2032,2037,2109,2072,2055,2068
2045,2033,2026,2037,2092,2065,2060,2056
2047,2034,2028,2028,2105,2045,2058,2039
2052,2031,2022,2014,2070,2033,2036,2035
2050,2041,2033,2018,2034,2037,2050,2033
2056,2064,2045,2023,2005,2049,2026,2025
2051,2060,2035,2019,2012,2072,2016,1998
2045,2051,2028,2027,2032,2087,2032,2006
2058,2059,2043,2047,2070,2090,2054,2020
2057,2037,2026,2057,2094,2065,2045,2009
2051,2027,2027,2069,2113,2057,2047,2009
2056,2045,2043,2092,2151,2105,2082,2022
2050,2048,2045,2083,2112,2070,2067,2022
2054,2050,2053,2073,2072,2036,2056,2018
2052,2039,2047,2047,1985,2010,2059,2024
2041,2035,2052,2037,1959,2032,2057,2032
2047,2038,2047,2034,2013,2050,2080,2034
2043,2038,2049,2040,2029,2052,2076,2042
2043,2047,2045,2041,1988,2049,2090,2054
2043,2046,2047,2043,2057,2035,2075,2057
2044,2041,2044,2045,2131,2032,2056,2056
2039,2049,2052,2057,2129,2032,2052,2076
2051,2059,2062,2074,2074,2046,2038,2092
2047,2066,2067,2082,2036,2066,2068,2101
2060,2064,2060,2090,2057,2054,2061,2100
2047,2030,2037,2062,2077,2034,2024,2091
2033,2010,2026,2061,2104,2052,2049,2099
2045,2039,2045,2074,2104,2058,2064,2111
2054,2040,2047,2066,2052,2031,2066,2117
2056,2041,2046,2041,1969,2008,2043,2111
2054,2046,2046,2039,1985,2006,2039,2103
2053,2035,2044,2051,2050,2008,2044,2087
2049,2039,2041,2058,2108,2021,2054,2068
2052,2035,2038,2055,2102,2033,2058,2067
2053,2038,2036,2057,2171,2051,2059,2053
2056,2039,2038,2064,2188,2070,2070,2041
2050,2039,2044,2068,2164,2080,2056,2030
2056,2046,2048,2064,2113,2074,2052,2019
2052,2042,2042,2052,2052,2073,2061,2006
2048,2035,2044,2034,1986,2072,2050,2003
2048,2041,2040,2039,2030,2062,2037,1986
2031,2018,2019,2018,2075,2044,2025,1977
2021,2008,2022,2030,2129,2043,2016,1978
2028,2029,2035,2046,2082,2048,2051,1995
2046,2040,2044,2039,1984,2038,2047,1996
2045,2041,2044,2030,1872,2029,2062,2011
2050,2043,2049,2026,1827,2037,2058,2023
2052,2045,2050,2030,1852,2039,2069,2028
2053,2041,2046,2032,1875,2031,2062,2026
2044,2040,2048,2026,1903,2020,2035,2037
2050,2042,2050,2041,1935,2013,2055,2047
2053,2042,2052,2051,2006,2016,2046,2062
2050,2045,2060,2063,2073,2024,2011,2063
2050,2048,2055,2069,2150,2033,2026,2079
2047,2044,2050,2077,2159,2029,2024,2085
2046,2045,2047,2097,2220,2057,2034,2094
2045,2042,2046,2083,2201,2058,2039,2090
2031,2026,2030,2052,2078,2030,2018,2084
2020,2013,2028,2044,2045,2025,2029,2096
2030,2040,2045,2065,2110,2053,2054,2106
2049,2050,2050,2070,2120,2055,2039,2103
2055,2049,2050,2060,2095,2045,2035,2094
2049,2047,2049,2060,2078,2053,2033,2088
2042,2041,2039,2059,2071,2057,2032,2071
2046,2039,2043,2061,2065,2058,2028,2056
2040,2032,2042,2059,2065,2056,2041,2045
2038,2025,2036,2049,2050,2042,2022,2035
2039,2029,2031,2046,2068,2045,2013,2032
2041,2038,2039,2049,2108,2054,2031,2021
2036,2039,2042,2051,2121,2046,2030,2016
2037,2039,2036,2046,2113,2031,2024,2011
2034,2044,2041,2049,2094,2028,2016,2007
2037,2042,2047,2050,2090,2035,2034,1999
2028,2028,2034,2040,2075,2032,2011,1987
2025,2029,2033,2039,2066,2041,2017,1987
2042,2053,2054,2052,2036,2050,2035,1995
2039,2049,2050,2043,1996,2030,2036,1999
2044,2054,2048,2043,2012,2037,2034,1998
2042,2047,2049,2050,2031,2050,2048,2005
2046,2043,2051,2057,2059,2061,2055,2016
2051,2041,2050,2059,2077,2067,2059,2030
2056,2044,2058,2064,2085,2060,2068,2038
2050,2044,2057,2059,2090,2064,2053,2047
2051,2045,2056,2055,2090,2060,2045,2053
2045,2048,2048,2054,2077,2060,2038,2073
2049,2041,2036,2057,2080,2052,2036,2076
2047,2037,2032,2051,2078,2057,2064,2090
2042,2032,2038,2056,2078,2063,2067,2104
2044,2040,2042,2052,2060,2054,2052,2101
2028,2009,2013,2035,2022,2024,2038,2095
2017,1997,2003,2024,2006,2023,2031,2105
2046,2021,2018,2044,2031,2032,2010,2101
2046,2026,2013,2040,2028,2037,2046,2095
2045,2026,2004,2040,2032,2036,2022,2084
2047,2021,1994,2037,2035,2035,2041,2082
2050,2025,1981,2041,2048,2039,2038,2065
2048,2028,1972,2043,2064,2041,2049,2053
2047,2023,1958,2029,2053,2042,2039,2042
2042,2016,1940,2018,2037,2036,2037,2030
2039,2002,1940,2015,2040,2036,2025,2021
2037,2009,1946,2014,2038,2039,2018,2009
2043,2015,1962,2022,2040,2041,2048,2010
2044,2026,1973,2020,2037,2045,2035,2000
2047,2025,1975,2024,2046,2053,2011,1998
2042,2029,1986,2030,2052,2051,2034,1991
2035,2001,1975,2016,2035,2037,2014,1976
2023,1999,1981,2020,2042,2037,2038,1993
2038,2031,2013,2040,2058,2057,2047,1997
2047,2040,2042,2047,2059,2048,2057,2003
2050,2051,2070,2054,2063,2045,2054,2011
2055,2066,2111,2069,2065,2038,2050,2015
2054,2072,2126,2081,2071,2028,2074,2025
2061,2070,2126,2077,2070,2025,2047,2026
2052,2064,2114,2071,2068,2022,2038,2034
2054,2072,2112,2081,2075,2027,2045,2039
2052,2077,2116,2090,2088,2033,2036,2054
2047,2076,2122,2082,2091,2050,2046,2058
2051,2069,2119,2089,2090,2070,2046,2074
2051,2071,2125,2089,2098,2084,2058,2087
2055,2072,2125,2091,2093,2102,2079,2091
2051,2074,2124,2089,2090,2093,2060,2099
2038,2051,2113,2082,2076,2035,2046,2101
2036,2051,2107,2080,2065,2014,2058,2111
2045,2070,2111,2086,2050,2030,2058,2116
2049,2064,2093,2066,2022,2036,2060,2110
2049,2059,2082,2060,2016,2040,2051,2098
2052,2058,2080,2054,2008,2037,2043,2088
2049,2058,2093,2064,2012,2043,2060,2077
2045,2060,2086,2061,2013,2044,2059,2062
2049,2057,2078,2063,2018,2043,2059,2051
2045,2059,2081,2068,2034,2052,2077,2042
2046,2048,2075,2064,2039,2055,2064,2042
2049,2054,2076,2060,2050,2060,2044,2033
2056,2058,2076,2067,2065,2058,2042,2023
2051,2052,2076,2065,2068,2043,2024,2011
2046,2053,2075,2064,2064,2040,2032,2004
2054,2046,2077,2068,2063,2039,2030,1996
2045,2040,2059,2056,2047,2021,2037,1986
2043,2031,2049,2052,2039,2022,2033,1984
2049,2048,2067,2069,2058,2053,2071,1996
2056,2052,2064,2066,2054,2056,2061,1994
2045,2051,2067,2062,2060,2057,2052,1989
2040,2045,2061,2056,2063,2064,2055,1998
2051,2056,2061,2066,2066,2072,2065,2004
2049,2054,2061,2065,2070,2071,2068,2016
2048,2052,2057,2065,2062,2065,2067,2030
2057,2055,2062,2070,2073,2065,2069,2046
2053,2060,2068,2067,2073,2067,2072,2057
2047,2061,2060,2074,2074,2062,2062,2074
2052,2055,2062,2080,2083,2065,2062,2074
2050,2051,2055,2074,2080,2074,2066,2089
2052,2039,2044,2076,2071,2064,2052,2098
2050,2042,2041,2074,2065,2058,2055,2104
2047,2024,2025,2062,2046,2022,2022,2097
2034,2016,2035,2064,2044,1971,2002,2098
2038,2040,2057,2081,2055,1977,2016,2102
2043,2042,2054,2079,2056,1995,2037,2096
2038,2040,2049,2077,2047,2021,2036,2081
2033,2032,2046,2076,2044,2036,2036,2080
2044,2032,2047,2076,2043,2050,2046,2071
2045,2037,2050,2067,2038,2047,2026,2059
2043,2044,2056,2071,2040,2038,2020,2039
2045,2043,2070,2079,2043,2042,2030,2030
2043,2042,2072,2077,2048,2049,2040,2028
2039,2042,2072,2073,2052,2048,2036,2018
2042,2046,2065,2065,2041,2046,2023,2008
2042,2043,2057,2060,2031,2038,2012,1994
2038,2042,2061,2063,2031,2029,2000,1994
2043,2049,2052,2066,2038,2039,2019,2001
2050,2037,2036,2053,2029,2038,2012,1978
2029,2018,2034,2039,2026,2042,2021,1981
2034,2043,2047,2048,2054,2070,2041,1996
2053,2058,2057,2059,2058,2068,2045,2008
2060,2064,2060,2061,2067,2068,2053,2002
2055,2064,2057,2063,2080,2073,2057,2003
2055,2057,2052,2062,2075,2068,2070,2010
2055,2061,2051,2053,2075,2059,2065,2003
2048,2053,2054,2052,2076,2050,2064,2018
2039,2045,2050,2046,2065,2044,2042,2028
2040,2037,2041,2043,2061,2044,2038,2036
2033,2031,2038,2038,2051,2039,2040,2048
2031,2032,2028,2026,2027,2033,2039,2057
2032,2024,2030,2029,2016,2025,2042,2076
2032,2034,2041,2037,2010,2028,2043,2085
2032,2043,2046,2039,2008,2035,2038,2087
2038,2038,2039,2041,2024,2031,2014,2078
2027,2031,2041,2047,2047,2039,2039,2089
2030,2051,2059,2074,2085,2060,2054,2112
2052,2060,2065,2082,2108,2082,2063,2114
2058,2066,2070,2077,2090,2079,2037,2111
2058,2064,2068,2074,2075,2066,2026,2098
2060,2066,2061,2066,2062,2048,2008,2086
2055,2059,2054,2057,2045,2033,2014,2065
2053,2055,2048,2057,2042,2034,2025,2049
2046,2049,2043,2060,2050,2053,2033,2036
2045,2043,2040,2054,2054,2064,2053,2030
2047,2039,2046,2057,2059,2071,2049,2021
2049,2036,2050,2050,2052,2061,2038,2019
2044,2046,2043,2046,2047,2053,2044,2017
2046,2042,2043,2045,2041,2059,2045,2005
2046,2047,2043,2039,2040,2071,2048,2006
2055,2048,2039,2017,2013,2050,2020,1978
2036,2025,2020,2017,2012,2056,2014,1985
2031,2027,2035,2033,2036,2080,2033,2007
2058,2063,2048,2045,2034,2082,2037,2006
2054,2066,2055,2046,2033,2084,2044,2009
2062,2061,2049,2044,2032,2080,2042,2006
2056,2054,2048,2047,2041,2078,2038,1999
2054,2054,2048,2044,2048,2056,2034,2001
2049,2054,2043,2045,2058,2043,2058,2010
2049,2054,2043,2053,2073,2067,2054,2029
2046,2050,2054,2056,2080,2086,2064,2052
2048,2044,2054,2057,2078,2081,2072,2060
2040,2050,2059,2056,2084,2076,2058,2077
2051,2052,2066,2068,2080,2043,2046,2095
2054,2060,2072,2062,2075,2011,2036,2098
2059,2067,2071,2057,2048,1994,2041,2108
2060,2064,2065,2044,2032,2000,2002,2098
2039,2033,2044,2036,2033,2009,2022,2106
2034,2033,2048,2046,2041,2038,2060,2120
2059,2062,2067,2053,2049,2043,2049,2118
2064,2053,2059,2052,2039,2037,2051,2114
2057,2050,2052,2052,2041,2037,2039,2097
2057,2054,2054,2052,2052,2037,2026,2082
2052,2054,2052,2046,2043,2040,2047,2070
2046,2055,2050,2055,2051,2050,2045,2053
2048,2051,2055,2056,2057,2053,2053,2037
2055,2051,2056,2051,2048,2061,2062,2031
2050,2056,2054,2049,2044,2066,2060,2026
2047,2055,2053,2051,2046,2069,2044,2025
2050,2054,2052,2046,2041,2071,2030,2012
2050,2049,2045,2044,2041,2074,2046,2006
2057,2050,2047,2050,2047,2069,2049,2007
2051,2052,2049,2042,2034,2042,2028,1986
2042,2024,2032,2027,2031,2030,2030,1987
2037,2029,2036,2037,2040,2053,2053,1997
2060,2054,2056,2051,2056,2054,2062,2004
2055,2053,2049,2044,2024,2054,2047,1997
2052,2050,2047,2030,1993,2066,2043,1992
2045,2047,2046,2025,1978,2079,2041,2001
2042,2041,2044,2022,1975,2076,2046,2003
2046,2039,2037,2016,1982,2069,2052,2012
2046,2043,2049,2039,2026,2053,2060,2045
2062,2062,2070,2070,2071,2032,2060,2069
2062,2065,2073,2079,2057,2045,2088,2074
2056,2059,2072,2076,2070,2067,2082,2092
2049,2055,2070,2072,2058,2071,2064,2093
2046,2049,2054,2059,2030,2064,2055,2090
2044,2053,2056,2053,2055,2067,2053,2094
2048,2041,2052,2045,2050,2055,2033,2087
2032,2018,2035,2030,2054,2044,2015,2087
2028,2015,2033,2035,2093,2058,2055,2101
2050,2050,2052,2044,2092,2029,2042,2106
2053,2061,2058,2049,2124,2030,2032,2108
2056,2057,2059,2062,2156,2044,2034,2099
2060,2052,2060,2060,2120,2028,2038,2082
2056,2046,2048,2050,2015,2011,2024,2071
2046,2039,2050,2051,2023,2040,2021,2050
2049,2044,2044,2052,2032,2061,2030,2030
2046,2036,2038,2032,1961,2066,2032,2016
2043,2034,2034,2010,1891,2054,2034,2013
2041,2037,2035,2009,1932,2057,2034,2017
2046,2038,2037,2018,1976,2010,2042,2014
2048,2042,2042,2033,2009,1998,2064,2015
2052,2041,2048,2050,2057,2019,2074,2010
2057,2046,2050,2054,2041,2037,2042,1993
2036,2017,2029,2029,2014,2037,2045,1982
2029,2015,2025,2017,2011,2038,2056,1998
2053,2046,2050,2047,2029,2050,2049,1999
2054,2052,2048,2043,2055,2042,2058,1998
2055,2047,2048,2035,2071,2034,2041,2006
2055,2054,2053,2038,2090,2033,2041,2014
2061,2054,2056,2052,2135,2062,2070,2023
2062,2060,2058,2073,2148,2077,2048,2029
2062,2056,2059,2064,2115,2076,2042,2043
2062,2056,2057,2056,2089,2062,2076,2051
2061,2056,2059,2046,2080,2058,2061,2064
2054,2056,2063,2050,2080,2063,2068,2072
2060,2055,2057,2048,2073,2052,2055,2083
2055,2053,2064,2045,2068,2045,2055,2094
2053,2055,2066,2043,2070,2043,2078,2116
2046,2055,2058,2043,2067,2036,2068,2100
2026,2029,2037,2026,2060,2019,2053,2105
2022,2025,2046,2026,2055,2021,2070,2117
2050,2065,2064,2047,2064,2030,2074,2117
2056,2070,2063,2047,2059,2035,2063,2112
2055,2067,2072,2047,2071,2050,2043,2108
2055,2067,2065,2052,2065,2047,2060,2104
2056,2070,2069,2048,2048,2053,2031,2092
2059,2063,2072,2051,2060,2059,2011,2085
2063,2065,2067,2049,2056,2061,2031,2064
2059,2054,2059,2035,2036,2082,2031,2049
2057,2058,2056,2040,2018,2081,2051,2040
2061,2056,2065,2041,2015,2072,2019,2025
2054,2048,2054,2028,1997,2020,1990,2007
2041,2036,2039,2017,2001,1969,1998,1996
2043,2038,2046,2032,2038,1986,2014,1999
2051,2044,2044,2049,2075,2050,2045,1986
2024,2017,2028,2040,2076,2083,2037,1980
2026,2017,2022,2038,2098,2112,2033,1997
2050,2045,2044,2047,2083,2099,2057,2003
2054,2042,2039,2044,2084,2090,2048,1995
2049,2044,2034,2047,2086,2081,2069,2004
2037,2046,2029,2044,2087,2080,2038,2006
2043,2056,2034,2046,2090,2084,2056,2014
2046,2056,2035,2044,2090,2073,2070,2030
2048,2044,2027,2042,2088,2058,2053,2033
2046,2042,2026,2044,2080,2048,2053,2037
2045,2041,2020,2041,2071,2021,2057,2049
2040,2040,2027,2040,2062,2011,2061,2061
2043,2036,2024,2035,2052,1995,2045,2080
2044,2039,2028,2032,2035,1993,2054,2080
2038,2036,2028,2034,2035,2021,2050,2093
2044,2038,2032,2030,2037,2028,2030,2094
2028,2010,2012,2010,2016,2009,2011,2081
2017,2004,2012,2000,1997,1997,2024,2092
2038,2035,2038,2020,2011,2013,2035,2096
2044,2051,2056,2032,2034,2025,2059,2097
2049,2059,2066,2044,2058,2037,2055,2091
2055,2068,2077,2051,2069,2041,2050,2081
2058,2074,2074,2056,2061,2037,2031,2082
2059,2071,2065,2050,2046,2033,2051,2066
2058,2066,2070,2044,2044,2026,2047,2050
2060,2063,2071,2043,2045,2031,2049,2038
2056,2057,2066,2038,2052,2038,2046,2027
2064,2063,2065,2037,2057,2044,2042,2028
2056,2065,2061,2034,2046,2043,2041,2020
2052,2054,2051,2031,2036,2039,2027,2012
2057,2056,2058,2032,2032,2046,2039,2007
2052,2054,2060,2040,2031,2046,2031,1987
2035,2035,2047,2021,2017,2032,2021,1973
2026,2026,2037,2020,2020,2028,2017,1975
2040,2055,2064,2036,2040,2052,2037,1995
2057,2065,2064,2035,2042,2059,2059,2002
2062,2066,2067,2044,2054,2070,2051,2017
2062,2069,2066,2047,2059,2077,2050,2026
2067,2069,2063,2047,2058,2070,2054,2030
2065,2066,2064,2052,2055,2051,2045,2028
2057,2063,2059,2040,2063,2039,2042,2034
2056,2054,2058,2038,2074,2048,2067,2048
2053,2046,2054,2045,2085,2057,2056,2056
2051,2047,2057,2054,2081,2066,2061,2065
2053,2047,2048,2050,2079,2060,2064,2083
2053,2054,2055,2042,2069,2057,2040,2098
2057,2051,2054,2041,2065,2049,2054,2096
2050,2051,2049,2041,2051,2045,2065,2107
2044,2049,2041,2032,2036,2038,2034,2091
2019,2019,2027,2025,2029,2041,2047,2093
2020,2018,2031,2035,2042,2071,2063,2111
2034,2044,2043,2040,2050,2079,2046,2101
2040,2044,2046,2040,2045,2087,2048,2105
2046,2045,2038,2047,2048,2083,2065,2099
2048,2044,2049,2048,2044,2084,2066,2086
2055,2050,2052,2047,2042,2091,2055,2067
2056,2049,2052,2042,2044,2111,2053,2059
2054,2043,2051,2043,2043,2113,2066,2048
2058,2055,2050,2037,2030,2075,2047,2029
2058,2052,2054,2039,2020,2037,2035,2033
2057,2057,2052,2037,2024,2007,2036,2032
2064,2058,2057,2044,2034,1967,2024,2021
2064,2054,2050,2042,2040,1971,2018,2018
2058,2054,2045,2041,2043,2014,2040,2002
2053,2053,2052,2040,2033,2024,2022,1988
2035,2026,2028,2024,2023,2014,1998,1991
2032,2025,2028,2022,2024,2021,2013,1988
2048,2054,2047,2038,2046,2049,2054,1999
2050,2061,2049,2038,2047,2052,2044,2000
2051,2061,2050,2044,2058,2053,2070,2004
2052,2061,2049,2043,2055,2055,2062,2013
2056,2055,2039,2041,2048,2044,2019,2020
2055,2052,2037,2036,2047,2042,2056,2034
2064,2050,2039,2038,2055,2045,2036,2044
2065,2057,2035,2038,2058,2045,2033,2054
2065,2055,2031,2038,2063,2049,2041,2064
2058,2056,2033,2036,2063,2050,2042,2079
2056,2049,2029,2027,2064,2049,2053,2088
2062,2047,2025,2028,2059,2046,2034,2101
2061,2044,2034,2028,2054,2046,2037,2107
2051,2044,2034,2030,2056,2045,2044,2107
2050,2051,2043,2031,2044,2029,2027,2101
2040,2026,2034,2018,2033,2025,2041,2100
2033,2015,2035,2026,2029,2035,2049,2115
2051,2047,2051,2028,2016,2045,2056,2106
2050,2049,2052,2032,2015,2046,2051,2112
2051,2051,2047,2032,2005,2053,2029,2098
2054,2056,2041,2033,2009,2061,2058,2091
2053,2066,2050,2050,2044,2079,2056,2088
2067,2070,2055,2054,2064,2086,2069,2078
2069,2064,2054,2059,2077,2059,2066,2070
2070,2065,2060,2070,2086,2032,2047,2058
2068,2056,2060,2069,2068,2006,2041,2045
2060,2045,2051,2058,2049,1996,2036,2039
2056,2046,2045,2048,2038,2018,2021,2016
2048,2033,2032,2033,2041,2045,2031,2008
2041,2031,2025,2027,2044,2055,2025,2001
2041,2025,2018,2027,2046,2054,2050,2000
2031,2006,2007,2010,2021,2022,2015,1980
2012,1995,2004,2010,2007,2011,2010,1979
2017,2020,2023,2028,2024,2026,2002,2002
2051,2038,2029,2033,2025,2017,2022,2006
2056,2042,2039,2031,2032,2006,1982,2008
2054,2050,2045,2035,2031,2001,2003,2007
2046,2047,2046,2039,2033,2011,2023,2006
2047,2045,2051,2045,2043,2036,2019,2022
2057,2053,2057,2049,2060,2066,2042,2034
2062,2065,2062,2057,2073,2079,2068,2051
2070,2068,2071,2056,2079,2071,2070,2056
2056,2067,2061,2057,2074,2054,2073,2069
2058,2058,2050,2052,2055,2037,2053,2081
2059,2061,2050,2051,2042,2028,2038,2093
2058,2060,2053,2042,2036,2027,2042,2106
2058,2060,2066,2046,2036,2042,2052,2116
2050,2054,2062,2040,2037,2040,2040,2106
2035,2034,2051,2033,2043,2028,2032,2113
2042,2039,2070,2045,2051,2034,2070,2131
2064,2072,2087,2066,2065,2060,2071,2138
2069,2081,2088,2063,2060,2061,2074,2128
2067,2069,2091,2062,2052,2060,2072,2113
2065,2070,2081,2066,2048,2051,2057,2102
2064,2066,2081,2060,2038,2054,2062,2090
2059,2059,2068,2047,2024,2052,2064,2074
2060,2060,2064,2043,2018,2047,2055,2053
2058,2058,2059,2038,2011,2047,2053,2047
2055,2059,2062,2032,2000,2053,2054,2051
2060,2062,2067,2047,2038,2058,2060,2041
2058,2073,2093,2061,2051,2061,2068,2040
2062,2075,2098,2068,2045,2043,2068,2029
2062,2072,2088,2061,2028,2030,2068,2026
2058,2066,2072,2054,2022,2033,2088,2017
2060,2064,2061,2040,2022,2021,2071,2003
2040,2032,2043,2027,2031,2020,2056,1999
2039,2029,2032,2013,2034,2027,2065,2013
2057,2047,2053,2022,2038,2026,2065,2013
2048,2052,2048,2030,2069,2039,2059,2020
2057,2056,2048,2034,2062,2039,2067,2026
2055,2054,2044,2037,2049,2036,2043,2030
2062,2058,2053,2035,2036,2038,2069,2042
2066,2060,2049,2030,2031,2040,2091,2047
2059,2054,2050,2032,2030,2045,2085,2054
2055,2053,2046,2030,2039,2061,2078,2055
2051,2059,2047,2033,2046,2077,2066,2061
2059,2063,2050,2034,2066,2087,2076,2074
2064,2066,2052,2036,2073,2094,2084,2084
2062,2065,2055,2048,2079,2082,2061,2097
2062,2066,2052,2049,2074,2067,2045,2112
2059,2063,2050,2054,2057,2070,2052,2117
2053,2052,2033,2035,2005,2056,2013,2102
2027,2025,2018,2027,1982,2058,1994,2101
2027,2033,2023,2033,1995,2067,2029,2113
2053,2051,2037,2036,1994,2071,2019,2112
2048,2051,2036,2041,2005,2054,2042,2104
2053,2053,2036,2050,2024,2033,2040,2102
2053,2056,2041,2055,2059,2036,2045,2102
2065,2055,2044,2050,2048,1981,2032,2081
2057,2050,2046,2043,2054,1955,2016,2066
2060,2047,2040,2037,2068,1996,2034,2054
2064,2052,2047,2036,2078,2044,2048,2043
2055,2043,2043,2029,2063,2065,2041,2024
2052,2039,2042,2021,2040,2063,2038,2019
2043,2036,2039,2013,2033,2061,2045,2002
2036,2030,2035,2006,2056,2057,2034,1999
2043,2029,2036,2002,2097,2023,2041,2012
2049,2033,2043,2022,2125,1987,2045,2005
2041,2025,2029,2012,2127,1999,2032,1996
2039,2026,2032,2015,2124,2026,2030,1998
2051,2052,2054,2044,2123,2056,2064,2012
2064,2066,2063,2048,2093,2062,2065,2015
2061,2064,2072,2048,2069,2052,2056,2012
2053,2066,2073,2041,2028,2067,2073,2012
2058,2058,2069,2041,1971,2073,2059,2019
2051,2056,2069,2018,1906,2051,2055,2025
2050,2060,2072,2023,1934,2059,2051,2036
2057,2066,2075,2029,1980,2072,2040,2043
2057,2073,2071,2040,2027,2063,2050,2056
2061,2066,2066,2036,2025,2050,2048,2066
2052,2057,2052,2030,2010,2054,2043,2075
2050,2050,2049,2020,2004,2054,2035,2084
2044,2050,2042,2012,2014,2057,2040,2084
2034,2046,2047,2020,2030,2045,2043,2096
2041,2047,2044,2028,2069,2010,2024,2096
2027,2025,2030,2028,2087,1997,2036,2092
2022,2010,2019,2030,2104,2028,2055,2109
2040,2043,2045,2041,2117,2068,2076,2109
2050,2051,2050,2042,2114,2065,2074,2103
2050,2053,2058,2043,2098,2067,2070,2093
2051,2051,2062,2038,2078,2058,2059,2079
2050,2049,2060,2041,2050,2051,2053,2066
2037,2043,2048,2043,2033,2054,2059,2058
2041,2036,2040,2032,2030,2049,2058,2046
2039,2037,2032,2021,1999,2044,2062,2036
2043,2031,2032,2014,1971,2045,2064,2033
2043,2039,2026,2020,2005,2046,2074,2032
2051,2051,2042,2035,2057,2055,2052,2026
2059,2053,2053,2043,2080,2056,2065,2023
2068,2064,2061,2051,2078,2056,2060,2026
2065,2075,2061,2045,2062,2049,2055,2017
2066,2058,2048,2035,2044,2027,2028,2002
2042,2032,2029,2029,2043,2016,2028,1996
2041,2032,2028,2042,2044,2026,2040,2007
2059,2056,2046,2046,2045,2036,2061,2006
2054,2052,2039,2048,2052,2045,2059,2017
2057,2057,2044,2043,2058,2046,2070,2020
2062,2066,2049,2038,2060,2055,2045,2035
2067,2061,2050,2042,2058,2053,2057,2041
2065,2065,2045,2044,2047,2047,2067,2046
2068,2060,2042,2040,2043,2042,2063,2056
2066,2058,2041,2037,2047,2055,2080,2061
2070,2063,2046,2042,2048,2063,2061,2066
2063,2060,2046,2043,2043,2077,2067,2075
2059,2053,2032,2044,2046,2095,2080,2080
2057,2049,2031,2036,2045,2093,2068,2098
2056,2044,2026,2031,2041,2085,2083,2103
2046,2046,2028,2033,2049,2069,2063,2107
2035,2029,2015,2023,2035,2028,2028,2100
2035,2024,2018,2028,2035,2005,2022,2111
2041,2040,2033,2038,2044,2024,2038,2118
2051,2056,2033,2042,2043,2032,2050,2118
2052,2058,2033,2039,2046,2032,2072,2102
2060,2063,2032,2043,2043,2042,2068,2092
2059,2056,2035,2043,2051,2053,2069,2082
2060,2054,2037,2041,2044,2060,2078,2071
2059,2047,2038,2041,2042,2056,2066,2070
2061,2053,2029,2039,2046,2048,2078,2062
2067,2056,2035,2043,2044,2051,2075,2054
2069,2062,2039,2042,2053,2052,2080,2039
2070,2062,2047,2051,2049,2053,2061,2032
2062,2062,2054,2042,2031,2056,2073,2024
2057,2053,2050,2044,2030,2067,2072,2009
2058,2055,2047,2049,2034,2070,2042,2014
2060,2048,2041,2037,2034,2061,2039,2001
2039,2023,2024,2020,2019,2046,2034,1992
2035,2023,2029,2023,2024,2031,2026,1993
2056,2050,2057,2050,2047,2033,2043,1993
2053,2053,2055,2045,2046,2029,2023,1996
2052,2053,2044,2047,2042,2032,2054,1998
2053,2056,2050,2046,2044,2049,2047,2008
2058,2060,2056,2054,2060,2067,2065,2011
2071,2069,2052,2055,2070,2080,2077,2033
2067,2067,2047,2057,2067,2075,2064,2045
2068,2066,2055,2051,2056,2056,2054,2053
2064,2060,2056,2054,2065,2053,2053,2052
2062,2058,2056,2061,2050,2041,2062,2065
2058,2058,2055,2050,2048,2056,2060,2075
2053,2054,2045,2043,2041,2070,2062,2084
2058,2058,2046,2036,2038,2082,2068,2091
2061,2056,2040,2035,2035,2088,2066,2102
2061,2059,2038,2035,2030,2071,2023,2091
2042,2026,2019,2023,2020,2038,2026,2101
2039,2028,2026,2035,2040,2022,2050,2114
2057,2065,2054,2052,2060,2039,2063,2109
2061,2067,2052,2049,2056,2044,2067,2100
2055,2066,2048,2045,2056,2058,2066,2094
2058,2067,2049,2050,2049,2060,2066,2086
2050,2063,2053,2046,2053,2058,2069,2071
2054,2060,2050,2051,2050,2049,2074,2066
2058,2051,2048,2045,2047,2046,2064,2059
2058,2045,2041,2043,2036,2040,2054,2045
2055,2045,2042,2041,2028,2036,2059,2036
2057,2048,2048,2041,2028,2041,2048,2036
2058,2060,2044,2046,2036,2045,2053,2035
2057,2050,2036,2041,2024,2039,2043,2015
2054,2040,2030,2030,2003,2024,2014,2006
2049,2039,2028,2030,1981,2010,2024,1995
2041,2029,2019,2013,1962,1991,1986,1971
2021,2007,2003,2011,1954,1995,1992,1967
2020,2010,2013,2021,1990,2035,2034,1996
2053,2048,2035,2040,2025,2045,2043,2005
2060,2043,2035,2043,2052,2052,2057,2010
2049,2038,2027,2043,2073,2075,2063,2010
2054,2040,2024,2054,2100,2085,2059,2020
2056,2047,2033,2055,2100,2070,2057,2039
2050,2047,2027,2056,2083,2058,2041,2038
2059,2048,2032,2052,2079,2064,2045,2050
2059,2049,2039,2053,2074,2076,2057,2067
2051,2050,2036,2051,2063,2072,2068,2070
2042,2046,2042,2046,2062,2055,2054,2069
2042,2044,2044,2044,2050,2044,2039,2073
2040,2050,2057,2050,2043,2048,2058,2092
2043,2052,2062,2055,2053,2070,2072,2110
2048,2055,2061,2060,2061,2078,2056,2111
2037,2029,2032,2040,2048,2056,2027,2101
2025,2021,2020,2031,2039,2053,2023,2101
2035,2049,2036,2044,2050,2062,2039,2117
2053,2062,2041,2046,2047,2056,2042,2108
2055,2062,2040,2045,2034,2055,2023,2098
2055,2062,2042,2051,2038,2054,2025,2097
2056,2064,2043,2050,2059,2055,2052,2082
2059,2065,2048,2046,2069,2054,2051,2073
2054,2060,2037,2042,2058,2053,2051,2061
2053,2061,2039,2042,2054,2044,2042,2044
2053,2062,2047,2035,2029,2045,2039,2032
2052,2060,2045,2037,2022,2053,2042,2035
2053,2058,2039,2037,2040,2054,2045,2022
2046,2056,2033,2035,2035,2040,2040,2013
2052,2042,2017,2018,2019,2036,2050,2010
2048,2042,2021,2029,2047,2044,2039,2003
2052,2049,2018,2025,2049,2046,2032,1993
2036,2022,2003,2007,2032,2033,2021,1978
2030,2018,2002,2011,2023,2040,2031,1985
2051,2052,2031,2036,2040,2054,2034,1994
2052,2056,2041,2036,2038,2060,2029,2002
2060,2059,2063,2036,2041,2064,2044,2012
2059,2070,2068,2036,2042,2060,2055,2014
2061,2062,2061,2022,2057,2052,2069,2021
2055,2058,2053,2032,2061,2056,2046,2035
2054,2051,2044,2038,2057,2049,2068,2042
2056,2048,2036,2035,2050,2042,2051,2049
2057,2045,2042,2033,2070,2041,2062,2060
2053,2049,2041,2036,2072,2041,2032,2067
2048,2054,2052,2047,2060,2032,2016,2082
2043,2055,2072,2060,2063,2044,2023,2089
2041,2054,2082,2067,2065,2043,2044,2106
2044,2046,2094,2056,2054,2039,2045,2121
2039,2042,2081,2046,2028,2028,2044,2112
2022,2014,2058,2031,2022,2028,2040,2117
2022,2011,2042,2037,2024,2037,2077,2128
2046,2052,2057,2051,2032,2051,2065,2127
2050,2058,2062,2053,2026,2060,2065,2118
2048,2065,2060,2050,2013,2068,2067,2110
2048,2057,2060,2047,2000,2065,2069,2095
2042,2050,2054,2049,2005,2047,2050,2074
2042,2050,2056,2047,2014,2042,2053,2058
2041,2056,2055,2062,2038,2052,2058,2044
2049,2064,2064,2056,2038,2065,2068,2036
2041,2055,2055,2058,2034,2067,2043,2023
2043,2060,2058,2051,2024,2051,2035,2018
2044,2060,2054,2037,2018,2045,2019,2006
2045,2061,2050,2026,2014,2057,2026,2002
2038,2056,2048,2023,2027,2075,2042,2000
2045,2050,2040,2012,2030,2077,2048,2001
2049,2039,2027,1992,2009,2049,2012,1985
2033,2016,2017,1991,2012,2033,2007,1992
2037,2025,2025,2011,2051,2062,2046,2016
2061,2053,2043,2031,2064,2085,2052,2019
2055,2055,2042,2043,2078,2100,2076,2021
2055,2059,2041,2047,2087,2087,2068,2018
2059,2064,2045,2050,2080,2028,2059,2031
2061,2068,2053,2055,2068,2002,2052,2039
2062,2068,2055,2050,2054,1999,2032,2047
2058,2074,2056,2050,2048,2007,2031,2055
2063,2069,2057,2055,2058,2021,2042,2068
2066,2077,2063,2058,2100,2030,2032,2078
2060,2071,2057,2054,2075,2020,2032,2085
2059,2058,2045,2050,2068,2033,2047,2097
2058,2058,2049,2052,2073,2046,2049,2104
2056,2055,2052,2052,2070,2044,2026,2112
2046,2050,2057,2053,2068,2036,2014,2104
2030,2029,2036,2034,2044,2019,2016,2097
2028,2020,2027,2027,2035,2022,2025,2110
2045,2039,2039,2033,2041,2047,2038,2112
2048,2047,2034,2026,2028,2047,2037,2113
2052,2048,2039,2022,2033,2052,2040,2108
2052,2052,2043,2022,2036,2054,2044,2101
2049,2058,2055,2033,2038,2055,2047,2084
2051,2054,2060,2038,2035,2043,2045,2065
2045,2049,2061,2041,2030,2038,2062,2054
2048,2050,2065,2049,2028,2040,2050,2048
2049,2055,2062,2059,2027,2048,2050,2047
2052,2051,2068,2059,2027,2044,2046,2041
2053,2055,2063,2052,2024,2032,2033,2023
2049,2046,2051,2051,2016,2026,2029,2010
2042,2042,2046,2050,2015,2032,2036,2008
2045,2047,2047,2055,2021,2047,2047,2007
2052,2053,2048,2055,2031,2050,2045,1991
2041,2029,2029,2041,2035,2044,2027,1993
2039,2027,2025,2040,2082,2043,2038,2007
2059,2057,2042,2053,2110,2055,2064,2010
2060,2054,2034,2053,2111,2056,2050,2016
2060,2056,2029,2043,2115,2062,2049,2021
2051,2049,2029,2036,2123,2064,2055,2017
2057,2041,2022,2030,2122,2073,2062,2030
2056,2039,2024,2030,2121,2079,2068,2043
2054,2045,2020,2015,2090,2058,2058,2044
2053,2040,2012,2007,2043,2046,2058,2045
2056,2042,2012,1999,1960,2029,2056,2058
2055,2044,2024,2001,1944,2029,2067,2072
2054,2045,2036,2015,1987,2042,2070,2087
2058,2053,2043,2020,2019,2045,2077,2100
2058,2052,2044,2025,2023,2047,2052,2105
2053,2050,2043,2029,2031,2045,2058,2107
2052,2046,2036,2029,2040,2029,2034,2100
2027,2015,2021,2019,2029,2010,2029,2107
2025,2013,2026,2024,2022,2030,2049,2115
2050,2036,2035,2032,2009,2036,2056,2112
2046,2038,2042,2035,2002,2043,2046,2102
2050,2041,2047,2032,1989,2046,2050,2098
2047,2040,2045,2028,1997,2059,2058,2091
2057,2044,2041,2031,2026,2062,2044,2081
2051,2051,2036,2033,2047,2074,2040,2064
2054,2049,2037,2027,2015,2069,2022,2050
2051,2044,2037,2017,1969,2061,2021,2038
2055,2046,2039,2017,1950,2055,2024,2029
2055,2060,2039,2019,1993,2045,2041,2026
2065,2058,2033,2021,2032,2027,2024,2020
2060,2057,2029,2014,2066,2042,2028,2015
2058,2056,2032,2028,2088,2046,2043,2014
2056,2056,2035,2034,2086,2057,2042,2005
2049,2039,2021,2022,2058,2039,2034,1978
2028,2017,2013,2017,2053,2041,2026,1977
2031,2028,2028,2037,2078,2066,2054,1996
2050,2044,2043,2045,2073,2069,2057,2005
2046,2048,2039,2047,2068,2059,2055,2006
2045,2052,2048,2047,2068,2055,2055,2011
2045,2058,2057,2045,2054,2072,2057,2022
2058,2058,2059,2049,2046,2068,2051,2024
2051,2060,2054,2041,2038,2072,2061,2034
2044,2054,2051,2041,2020,2067,2050,2044
2046,2053,2044,2034,2029,2052,2046,2052
2043,2048,2049,2036,2037,2029,2039,2064
2034,2042,2056,2036,2033,2003,2034,2074
2034,2048,2055,2030,2050,2006,2041,2083
2036,2052,2064,2045,2081,2029,2046,2090
2036,2054,2066,2051,2074,2038,2049,2097
2034,2054,2065,2052,2055,2034,2030,2086
2022,2026,2047,2032,2034,2016,2008,2087
2017,2026,2050,2034,2030,2031,2030,2105
2035,2055,2078,2050,2047,2058,2047,2111
2047,2054,2071,2055,2045,2053,2056,2107
2052,2055,2061,2054,2043,2051,2040,2097
2043,2057,2061,2051,2043,2048,2034,2088
2044,2058,2062,2057,2041,2051,2044,2079
2044,2054,2059,2055,2040,2046,2044,2072
2044,2056,2056,2051,2037,2050,2037,2062
2050,2055,2051,2049,2036,2053,2033,2049
2045,2063,2062,2056,2042,2058,2036,2039
2049,2061,2061,2062,2052,2053,2039,2030
2042,2060,2067,2056,2051,2055,2053,2024
2044,2062,2065,2056,2049,2049,2043,2020
2046,2057,2056,2056,2050,2053,2038,2008
2048,2056,2058,2054,2058,2056,2052,2011
2047,2058,2047,2040,2043,2047,2038,1993
2028,2028,2029,2028,2039,2044,2038,1993
2028,2025,2022,2036,2044,2056,2045,2003
2051,2055,2047,2047,2058,2062,2056,2012
2052,2054,2051,2047,2051,2062,2067,2016
2053,2061,2049,2049,2058,2073,2066,2027
2052,2054,2052,2052,2056,2063,2067,2029
2050,2061,2047,2050,2056,2061,2056,2030
2047,2056,2046,2054,2059,2059,2054,2034
2047,2053,2047,2051,2053,2043,2051,2042
2048,2046,2050,2050,2054,2036,2044,2050
2043,2046,2051,2051,2054,2037,2042,2065
2039,2044,2038,2048,2055,2032,2031,2070
2034,2039,2035,2040,2043,2024,2037,2080
2029,2037,2034,2053,2064,2033,2024,2090
2034,2042,2039,2053,2069,2047,2037,2100
2037,2044,2045,2057,2072,2046,2058,2103
2037,2039,2035,2040,2056,2028,2017,2095
2024,2017,2023,2023,2040,2020,2027,2101
2015,2027,2025,2036,2046,2034,2059,2116
2041,2039,2031,2042,2039,2048,2048,2111
2038,2041,2034,2040,2038,2050,2051,2103
2038,2034,2031,2037,2041,2044,2046,2092
2039,2034,2032,2036,2035,2040,2044,2080
2044,2035,2029,2037,2033,2035,2051,2068
2039,2044,2037,2041,2036,2033,2045,2063
2051,2049,2042,2036,2035,2035,2037,2053
2050,2050,2034,2035,2031,2040,2057,2048
2045,2050,2029,2034,2036,2044,2053,2038
2040,2046,2030,2036,2031,2044,2064,2034
2044,2049,2050,2046,2035,2049,2043,2018
2047,2050,2057,2044,2033,2053,2048,2011
2042,2049,2059,2046,2046,2065,2058,2011
2043,2051,2056,2044,2051,2064,2056,2006
2032,2023,2028,2028,2025,2036,2027,1992
2021,2011,2019,2027,2024,2034,2035,1988
2044,2039,2032,2040,2046,2056,2064,2004
2047,2045,2034,2048,2043,2057,2058,2004
2050,2051,2038,2042,2056,2062,2055,2013
2057,2050,2038,2050,2051,2062,2054,2028
2051,2048,2036,2048,2054,2058,2063,2024
2055,2049,2031,2041,2057,2058,2059,2026
2048,2044,2025,2044,2062,2061,2061,2032
2048,2047,2024,2043,2063,2067,2042,2042
2049,2044,2024,2042,2063,2064,2052,2054
2045,2050,2024,2042,2063,2064,2057,2070
2050,2054,2033,2041,2068,2068,2066,2082
2045,2048,2036,2041,2064,2064,2059,2091
2041,2049,2041,2046,2057,2065,2055,2098
2042,2048,2040,2045,2064,2061,2056,2101
2038,2044,2036,2046,2055,2059,2044,2092
2019,2018,2012,2036,2041,2043,2031,2097
2019,2017,2015,2042,2040,2037,2047,2113
2034,2043,2037,2057,2048,2050,2051,2109
2036,2050,2046,2055,2049,2057,2054,2105
2039,2045,2044,2054,2048,2067,2059,2098
2043,2054,2047,2056,2036,2056,2057,2085
2051,2060,2036,2047,2029,2043,2048,2079
2044,2053,2036,2044,2012,2036,2047,2069
2050,2054,2041,2040,2007,2037,2052,2054
2051,2056,2050,2046,2012,2035,2040,2041
2043,2057,2060,2054,2016,2025,2046,2033
2048,2054,2068,2057,2015,2034,2028,2030
2048,2062,2059,2055,2026,2032,2040,2025
2044,2052,2050,2055,2031,2025,2036,2005
2039,2044,2039,2047,2027,2026,2041,2004
2043,2047,2041,2042,2030,2027,2033,2008
2041,2045,2052,2036,2026,2018,2015,1996
2018,2026,2045,2028,2022,2020,2027,1985
2019,2028,2051,2035,2037,2054,2060,2007
2050,2053,2077,2056,2054,2064,2065,2014
2048,2048,2066,2058,2053,2059,2062,2020
2051,2056,2080,2054,2055,2060,2052,2023
2052,2056,2071,2046,2052,2070,2066,2029
2053,2051,2064,2050,2057,2084,2060,2030
2053,2053,2058,2047,2061,2082,2073,2042
2056,2059,2059,2046,2065,2080,2073,2051
2061,2065,2061,2050,2070,2084,2057,2064
2070,2073,2067,2051,2069,2104,2065,2076
2058,2071,2065,2047,2078,2110,2076,2092
2069,2067,2066,2053,2081,2106,2060,2099
2065,2064,2065,2052,2073,2097,2053,2106
2059,2068,2065,2051,2076,2103,2048,2110
2060,2060,2059,2048,2066,2094,2044,2114
2050,2042,2044,2027,2049,2066,2023,2104
2028,2024,2034,2021,2045,2052,2010,2099
2024,2037,2045,2039,2045,2044,2018,2109
2043,2052,2048,2037,2023,1992,2023,2101
2042,2047,2046,2037,2004,1966,2026,2093
2041,2046,2044,2034,2002,1977,2030,2089
2043,2050,2046,2041,2019,2016,2032,2078
2040,2054,2051,2038,2036,2026,2036,2059
2043,2048,2053,2042,2050,2033,2045,2052
2039,2045,2044,2049,2047,2046,2043,2043
2042,2042,2049,2050,2041,2045,2041,2035
2046,2041,2047,2051,2029,2033,2037,2033
2051,2051,2050,2049,2031,2028,2038,2028
2049,2053,2056,2049,2030,2045,2038,2027
2051,2052,2048,2049,2025,2073,2051,2020
2051,2053,2051,2053,2051,2088,2047,2015
2045,2052,2049,2045,2058,2089,2047,2002
2037,2025,2025,2030,2043,2064,2026,1988
2032,2020,2022,2035,2040,2014,2033,1993
2045,2047,2045,2060,2069,2018,2053,2014
2052,2054,2053,2064,2076,2042,2062,2018
2045,2055,2050,2063,2072,2048,2076,2017
2046,2052,2048,2061,2057,2044,2078,2023
2050,2049,2041,2059,2060,2045,2078,2028
2051,2047,2038,2059,2061,2050,2077,2027
2052,2046,2041,2060,2060,2062,2073,2040
2050,2049,2039,2064,2072,2069,2066,2042
2049,2047,2040,2059,2069,2066,2067,2052
2039,2042,2031,2068,2075,2071,2054,2058
2039,2038,2037,2067,2075,2055,2054,2076
2035,2043,2037,2059,2069,2055,2072,2095
2035,2032,2030,2058,2061,2036,2067,2094
2026,2033,2031,2048,2051,2034,2056,2101
2036,2036,2027,2041,2049,2013,2046,2098
2011,2013,2010,2034,2035,1998,2028,2100
2019,2016,2014,2032,2041,2016,2055,2116
2038,2044,2036,2052,2051,2032,2054,2109
2042,2050,2033,2051,2052,2039,2050,2108
2043,2053,2031,2050,2039,2048,2046,2101
2047,2047,2034,2049,2035,2050,2055,2093
2046,2049,2031,2044,2037,2055,2044,2085
2043,2044,2036,2045,2044,2064,2040,2069
2046,2047,2039,2053,2038,2072,2063,2060
2049,2052,2037,2054,2043,2067,2054,2051
2049,2057,2037,2049,2042,2053,2064,2040
2059,2059,2034,2046,2036,2025,2051,2034
2054,2053,2039,2047,2034,2012,2058,2029
2043,2054,2041,2042,2017,2011,2049,2012
2031,2043,2036,2034,1994,2008,2048,2002
2036,2046,2030,2036,1980,2006,2045,1996
2034,2035,2008,2017,1957,1982,2018,1974
2011,1998,1988,2005,1951,1982,2030,1972
2011,2001,1991,2016,1993,2014,2055,1990
2040,2037,2015,2041,2039,2040,2064,2000
2042,2049,2027,2054,2067,2054,2076,2013
2043,2055,2033,2064,2100,2062,2086,2016
2054,2065,2041,2061,2103,2065,2078,2033
2057,2063,2043,2059,2086,2050,2049,2041
2045,2054,2040,2056,2058,2038,2060,2041
2045,2051,2042,2053,2055,2029,2065,2045
2043,2043,2044,2046,2038,2032,2054,2053
2037,2038,2044,2037,2014,2031,2045,2055
2037,2039,2044,2036,2001,2036,2050,2064
2033,2035,2038,2030,1986,2037,2048,2075
2027,2029,2034,2021,1973,2025,2029,2090
2031,2037,2052,2044,2031,2021,2052,2109
2043,2051,2071,2068,2086,2024,2030,2117
2030,2034,2061,2048,2061,2015,2016,2108
2021,2020,2056,2033,2060,2039,2039,2103
2030,2040,2072,2047,2066,2075,2052,2101
2042,2058,2072,2047,2041,2061,2046,2100
2049,2054,2066,2047,2039,2058,2058,2106
2054,2056,2063,2052,2060,2070,2077,2113
2057,2060,2061,2069,2087,2079,2082,2100
2060,2067,2058,2062,2098,2074,2074,2086
2054,2057,2051,2059,2090,2075,2068,2064
2054,2052,2047,2057,2076,2073,2073,2059
2054,2051,2043,2050,2067,2072,2054,2045
2051,2051,2042,2054,2069,2076,2051,2043
2052,2049,2044,2051,2075,2072,2060,2032
2061,2043,2039,2052,2072,2062,2038,2016
2044,2040,2032,2048,2063,2059,2039,2010
2046,2033,2037,2045,2062,2052,2042,2004
2049,2039,2036,2039,2055,2051,2042,1990
2037,2016,2018,2029,2034,2042,2034,1988
2035,2015,2021,2028,2019,2040,2037,2002
2058,2056,2050,2050,2033,2061,2064,2011
2060,2057,2062,2051,2040,2054,2065,2015
2052,2060,2052,2049,2038,2050,2060,2012
2056,2055,2052,2048,2034,2042,2062,2012
2056,2051,2051,2047,2046,2041,2049,2020
2053,2052,2056,2049,2059,2039,2049,2023
2051,2049,2054,2047,2060,2039,2053,2040
2051,2052,2053,2049,2057,2048,2056,2047
2056,2052,2055,2046,2066,2050,2060,2062
2054,2055,2058,2051,2069,2055,2060,2067
2055,2055,2052,2050,2072,2059,2040,2082
2056,2049,2051,2054,2077,2055,2048,2092
2048,2050,2050,2049,2070,2051,2067,2099
2048,2047,2048,2052,2056,2049,2079,2103
2049,2051,2043,2039,2037,2030,2045,2094
2024,2015,2022,2024,2027,2025,2034,2095
