CH1,CH2,CH3,CH4,CH5,CH6,CH7,CH8
2043,2037,2043,2051,2071,2044,2062,2030
2047,2038,2046,2050,2065,2044,2064,2041
2048,2042,2048,2051,2063,2046,2051,2051
2041,2044,2040,2041,2051,2044,2043,2057
2037,2037,2024,2029,2044,2045,2047,2063
2036,2028,2017,2033,2044,2052,2044,2075
2041,2026,2016,2041,2051,2054,2056,2079
2040,2040,2036,2053,2060,2056,2056,2078
2046,2052,2053,2068,2076,2054,2027,2095
2052,2054,2066,2065,2056,2042,2036,2091
2045,2047,2055,2068,2057,2034,2025,2084
2047,2049,2051,2074,2072,2046,2033,2077
2044,2041,2038,2072,2065,2050,2030,2071
2040,2039,2025,2072,2030,2052,2034,2063
2040,2035,2042,2075,2050,2047,2033,2065
2037,2037,2054,2073,2076,2045,2039,2057
2040,2036,2065,2076,2060,2039,2050,2053
2037,2027,2058,2070,2015,2032,2041,2036
2033,2027,2057,2049,1945,2026,2039,2028
2033,2040,2064,2043,1971,2034,2050,2029
2035,2046,2064,2052,2043,2047,2057,2031
2050,2048,2066,2056,2070,2051,2045,2030
2054,2048,2079,2049,2052,2036,2033,2027
2049,2054,2080,2044,2094,2040,2049,2025
2052,2053,2071,2049,2101,2043,2025,2026
2052,2047,2058,2048,2087,2037,2028,2020
2044,2049,2052,2051,2074,2038,2026,2018
2047,2056,2065,2062,2055,2038,2038,2028
2053,2061,2062,2068,2016,2035,2050,2029
2052,2056,2050,2051,1940,2030,2043,2027
2048,2050,2042,2025,1885,2021,2036,2024
2054,2049,2047,2035,1936,2031,2033,2027
2050,2043,2046,2038,1994,2040,2045,2028
2050,2041,2048,2039,2017,2039,2042,2033
2043,2043,2032,2024,2031,2034,2050,2035
2043,2033,2026,2021,2053,2036,2061,2047
2040,2034,2033,2029,2062,2045,2062,2056
2045,2033,2029,2023,2063,2039,2061,2072
2049,2033,2025,2019,2052,2042,2060,2084
2045,2038,2036,2027,2058,2042,2052,2091
2054,2061,2064,2040,2064,2048,2055,2086
2056,2064,2083,2051,2072,2045,2022,2094
2050,2061,2082,2051,2056,2041,2024,2090
2047,2058,2074,2047,2046,2036,2016,2093
2042,2054,2067,2041,2034,2034,2027,2089
2039,2053,2069,2052,2043,2046,2050,2089
2049,2054,2065,2059,2061,2047,2034,2072
2046,2046,2061,2060,2054,2042,2039,2068
2039,2046,2053,2059,2056,2043,2040,2066
2036,2041,2048,2059,2049,2041,2032,2058
2047,2044,2052,2062,2051,2033,2043,2052
2051,2047,2046,2061,2045,2035,2046,2043
2044,2045,2043,2055,2048,2034,2038,2028
2043,2046,2044,2055,2046,2039,2046,2029
2044,2042,2047,2050,2044,2039,2038,2032
2052,2046,2043,2043,2040,2038,2024,2015
2042,2047,2035,2038,2036,2040,2017,2013
2041,2046,2029,2034,2041,2042,2026,2015
2042,2039,2019,2034,2044,2044,2026,2011
2041,2022,2004,2024,2041,2044,2032,2015
2042,2025,2010,2022,2035,2051,2046,2025
2049,2036,2017,2021,2034,2054,2044,2026
2050,2034,2027,2025,2017,2053,2053,2028
2038,2036,2024,2025,2007,2048,2060,2021
2038,2038,2023,2032,2016,2047,2043,2028
2051,2059,2028,2048,2025,2048,2054,2035
2057,2062,2039,2066,2034,2050,2053,2049
2051,2052,2034,2073,2038,2049,2051,2041
2044,2038,2010,2068,2039,2045,2053,2045
2043,2030,2004,2064,2036,2035,2049,2059
2042,2028,2005,2059,2046,2037,2058,2068
2050,2038,2010,2048,2078,2051,2059,2081
2053,2045,2019,2045,2108,2055,2056,2086
2043,2043,2029,2052,2085,2050,2051,2079
2042,2031,2034,2044,2064,2033,2038,2074
2022,2025,2026,2028,2047,2026,2037,2073
2034,2040,2047,2030,2045,2030,2049,2084
2045,2063,2073,2034,2050,2041,2055,2082
2053,2058,2080,2025,2046,2040,2038,2083
2052,2059,2084,2024,2045,2046,2062,2088
2045,2060,2098,2026,2054,2057,2065,2076
2045,2062,2106,2037,2068,2066,2063,2068
2048,2070,2110,2034,2074,2075,2077,2066
2051,2069,2104,2034,2073,2077,2077,2060
2050,2068,2086,2028,2062,2076,2080,2056
2058,2058,2084,2016,2051,2074,2078,2047
2058,2055,2079,2027,2037,2070,2070,2042
2046,2052,2077,2030,2032,2066,2059,2034
2045,2046,2067,2043,2038,2073,2061,2032
2037,2045,2069,2044,2057,2093,2072,2027
2038,2046,2066,2050,2068,2098,2068,2014
2043,2036,2058,2047,2056,2081,2052,2008
2029,2028,2044,2046,2048,2045,2047,2008
2033,2030,2053,2051,2061,2019,2053,2012
2042,2041,2056,2051,2067,2015,2028,2012
2040,2041,2042,2051,2066,2033,2045,2014
2040,2034,2038,2047,2070,2044,2059,2021
2036,2030,2026,2047,2066,2050,2033,2024
2034,2025,2024,2052,2065,2050,2060,2022
2026,2019,2017,2049,2070,2049,2068,2029
2034,2027,2020,2051,2065,2051,2074,2042
2036,2034,2013,2052,2062,2050,2068,2048
2043,2034,2014,2045,2066,2045,2047,2053
2036,2033,2001,2048,2061,2040,2054,2063
2039,2033,2011,2056,2064,2038,2047,2072
2050,2046,2035,2068,2071,2046,2052,2077
2053,2048,2047,2073,2064,2042,2064,2078
2046,2048,2034,2067,2063,2039,2057,2074
2036,2035,2029,2059,2050,2036,2051,2070
2030,2032,2022,2060,2052,2036,2059,2084
2029,2042,2029,2052,2044,2035,2062,2072
2038,2040,2030,2048,2036,2036,2049,2070
2034,2045,2038,2045,2030,2035,2054,2064
2041,2056,2060,2059,2048,2039,2049,2064
2045,2066,2066,2058,2040,2033,2056,2067
2045,2068,2052,2055,2031,2022,2031,2056
2050,2059,2040,2045,2032,2026,2036,2051
2049,2063,2050,2046,2035,2031,2058,2042
2049,2068,2060,2052,2038,2035,2062,2036
2053,2071,2072,2053,2047,2043,2063,2035
2057,2077,2093,2064,2042,2043,2058,2034
2049,2076,2101,2060,2047,2045,2059,2024
2052,2068,2100,2063,2049,2050,2044,2021
2052,2071,2099,2072,2058,2050,2043,2020
2051,2065,2086,2074,2050,2044,2048,2017
2044,2063,2077,2072,2056,2043,2057,2019
2054,2070,2076,2073,2063,2050,2068,2020
2055,2067,2071,2074,2058,2047,2053,2020
2051,2060,2064,2075,2055,2051,2059,2031
2058,2061,2055,2065,2066,2052,2078,2030
2050,2056,2051,2064,2065,2054,2070,2037
2054,2060,2047,2063,2064,2054,2067,2036
2053,2060,2046,2065,2064,2051,2076,2036
2052,2056,2044,2047,2056,2053,2069,2039
2045,2056,2052,2051,2062,2052,2069,2055
2047,2056,2049,2051,2053,2054,2065,2056
2041,2052,2052,2062,2063,2059,2075,2067
2041,2054,2055,2066,2062,2054,2068,2077
2039,2050,2064,2076,2046,2053,2071,2081
2045,2052,2058,2085,2044,2052,2074,2084
2045,2055,2063,2083,2044,2048,2060,2080
2039,2043,2053,2086,2045,2044,2073,2085
2033,2044,2047,2084,2042,2049,2064,2087
2039,2055,2048,2084,2033,2053,2061,2088
2042,2052,2049,2074,2031,2053,2070,2077
2037,2044,2045,2076,2035,2052,2064,2067
2040,2043,2038,2081,2044,2057,2064,2060
2039,2039,2032,2079,2046,2052,2061,2055
2043,2039,2035,2066,2043,2047,2043,2040
2046,2043,2038,2040,2049,2047,2042,2037
2048,2037,2026,2012,2044,2040,2056,2034
2043,2037,2020,1996,2055,2037,2044,2035
2040,2031,2017,1986,2059,2041,2033,2026
2044,2032,2019,1981,2059,2051,2054,2026
2046,2036,2011,1975,2057,2054,2072,2024
2054,2040,2016,1986,2060,2055,2060,2021
2045,2036,2034,2002,2055,2054,2061,2014
2046,2034,2042,2014,2045,2040,2056,2011
2041,2039,2043,2009,2033,2031,2037,2008
2040,2042,2039,2022,2044,2039,2044,2018
2043,2051,2046,2029,2049,2043,2048,2020
2045,2062,2056,2042,2046,2046,2051,2013
2047,2070,2063,2045,2046,2040,2041,2017
2052,2068,2063,2044,2047,2038,2048,2024
2058,2059,2049,2046,2051,2043,2053,2030
2047,2051,2036,2043,2067,2046,2046,2036
2046,2051,2030,2036,2070,2045,2039,2045
2046,2050,2027,2037,2073,2052,2065,2055
2044,2043,2024,2041,2064,2050,2062,2062
2041,2038,2019,2046,2068,2050,2063,2061
2034,2036,2023,2050,2079,2052,2066,2077
2044,2042,2025,2049,2085,2054,2056,2083
2037,2037,2026,2057,2078,2053,2057,2087
2038,2042,2031,2052,2069,2047,2063,2084
2035,2036,2030,2044,2061,2039,2048,2082
2032,2031,2036,2040,2054,2040,2054,2083
2031,2032,2035,2042,2051,2040,2032,2080
2025,2034,2040,2039,2051,2041,2032,2070
2032,2040,2054,2042,2044,2039,2036,2069
2042,2059,2075,2046,2035,2045,2058,2061
2045,2065,2089,2051,2041,2043,2054,2060
2049,2071,2102,2061,2044,2045,2048,2061
2050,2070,2102,2068,2054,2050,2043,2042
2047,2062,2093,2067,2057,2051,2035,2036
2036,2056,2087,2067,2058,2056,2043,2036
2038,2047,2073,2066,2055,2056,2063,2034
2039,2052,2070,2067,2048,2055,2054,2030
2041,2049,2055,2060,2032,2040,2057,2020
2036,2040,2049,2057,2023,2031,2042,2014
2035,2038,2040,2055,2041,2029,2044,2012
2039,2033,2029,2062,2052,2031,2041,2011
2035,2029,2022,2067,2059,2034,2046,2014
2042,2035,2040,2087,2048,2037,2038,2024
2050,2043,2056,2094,2033,2039,2055,2017
2050,2045,2060,2091,2005,2036,2053,2012
2051,2040,2059,2080,2010,2036,2047,2024
2053,2047,2054,2082,2014,2034,2037,2025
2047,2047,2052,2076,2047,2032,2033,2024
2041,2037,2044,2074,2054,2029,2040,2032
2042,2037,2037,2069,2047,2033,2054,2039
2041,2038,2041,2074,2079,2040,2047,2052
2046,2042,2051,2068,2079,2053,2041,2062
2044,2047,2050,2072,2068,2066,2045,2066
2042,2035,2049,2066,2064,2067,2035,2060
2031,2030,2032,2040,2033,2053,2029,2064
2020,2024,2029,2024,2020,2054,2037,2072
2039,2028,2042,2021,2032,2042,2023,2083
2043,2034,2052,2015,2052,2019,2021,2084
2052,2040,2060,1997,2048,2019,2040,2092
2056,2057,2068,2005,2086,2027,2047,2088
2059,2062,2094,2025,2096,2040,2049,2080
2052,2067,2083,2036,2067,2040,2044,2071
2047,2058,2073,2024,2048,2037,2032,2067
2054,2047,2063,2021,2040,2045,2046,2060
2047,2039,2054,2026,2043,2038,2033,2041
2031,2039,2050,2033,2050,2050,2022,2038
2032,2041,2056,2048,2051,2051,2036,2034
2036,2045,2066,2053,2055,2055,2038,2034
2033,2054,2064,2047,2052,2060,2049,2019
2041,2048,2058,2052,2054,2062,2042,2016
2048,2055,2057,2056,2058,2069,2049,2013
2046,2047,2052,2052,2063,2070,2047,2018
2051,2051,2052,2047,2064,2068,2044,2014
2048,2040,2043,2028,2055,2056,2025,2010
2038,2039,2045,2034,2051,2051,2025,2004
2044,2039,2053,2044,2060,2058,2040,2008
2037,2039,2055,2048,2061,2057,2051,2014
2035,2041,2058,2058,2065,2060,2049,2018
2044,2045,2061,2056,2063,2057,2066,2018
2044,2049,2064,2056,2067,2060,2059,2019
2046,2049,2062,2054,2061,2062,2066,2028
2047,2052,2060,2057,2055,2055,2052,2026
2049,2044,2056,2045,2051,2047,2053,2036
2049,2046,2050,2044,2056,2048,2060,2040
2043,2046,2049,2046,2056,2055,2054,2053
2048,2042,2048,2046,2055,2053,2054,2067
2048,2038,2040,2043,2059,2056,2049,2073
2052,2042,2037,2043,2062,2057,2055,2079
2049,2042,2039,2043,2062,2059,2066,2076
2048,2039,2028,2040,2054,2053,2041,2082
2039,2031,2031,2032,2051,2047,2050,2080
2041,2035,2042,2037,2050,2048,2048,2083
2041,2044,2041,2038,2042,2024,2038,2080
2043,2049,2046,2039,2044,2026,2046,2078
2056,2060,2053,2038,2048,2031,2061,2068
2047,2062,2053,2042,2040,2026,2055,2067
2055,2063,2055,2043,2039,2028,2038,2057
2049,2056,2054,2047,2039,2033,2054,2054
2051,2052,2051,2047,2041,2034,2049,2036
2056,2049,2047,2044,2038,2037,2045,2028
2051,2040,2037,2031,2036,2029,2052,2020
2046,2037,2034,2032,2034,2030,2042,2017
2048,2041,2027,2037,2036,2037,2038,2019
2049,2042,2026,2038,2035,2043,2049,2006
2041,2039,2029,2044,2046,2051,2049,2000
2040,2049,2034,2049,2050,2058,2053,2008
2037,2041,2021,2041,2049,2048,2049,2006
2043,2038,2013,2038,2047,2052,2063,2015
2047,2043,2022,2037,2046,2053,2069,2018
2059,2035,2013,2025,2043,2051,2055,2020
2046,2031,2008,2029,2050,2050,2055,2013
2047,2029,2008,2031,2051,2051,2061,2007
2050,2028,2000,2033,2043,2051,2071,2014
2045,2035,2014,2049,2056,2053,2060,2018
2045,2043,2038,2074,2065,2060,2057,2024
2038,2051,2061,2086,2070,2063,2063,2034
2034,2045,2055,2081,2064,2059,2061,2038
2036,2024,2045,2075,2054,2055,2059,2054
2034,2024,2042,2074,2058,2053,2051,2064
2034,2030,2055,2072,2061,2046,2056,2072
2035,2034,2056,2067,2052,2037,2050,2076
2038,2037,2069,2069,2038,2027,2037,2065
2027,2044,2083,2064,2031,2019,2042,2067
2027,2046,2086,2060,2024,2018,2043,2076
2027,2049,2084,2068,2032,2026,2033,2072
2030,2056,2088,2061,2037,2038,2044,2076
2038,2059,2083,2057,2044,2040,2045,2068
2042,2059,2072,2049,2048,2044,2040,2060
2046,2055,2074,2038,2040,2042,2047,2053
2047,2053,2065,2023,2041,2046,2049,2048
2054,2046,2060,2013,2051,2050,2062,2037
2045,2051,2054,2017,2047,2056,2062,2039
2055,2050,2063,2021,2056,2052,2053,2033
2052,2046,2061,2023,2052,2054,2050,2023
2053,2045,2053,2024,2042,2039,2035,2017
2046,2037,2050,2029,2029,2033,2015,2010
2041,2040,2046,2031,2025,2032,2032,2005
2040,2037,2039,2034,2024,2034,2038,2005
2041,2035,2032,2027,2021,2028,2034,1996
2030,2017,2025,2025,2023,2024,2022,1998
2036,2026,2038,2039,2033,2038,2040,2003
2046,2037,2043,2048,2042,2035,2039,2000
2044,2042,2043,2045,2041,2039,2023,2010
2044,2042,2041,2043,2042,2035,2034,2014
2055,2050,2048,2044,2044,2042,2029,2020
2056,2059,2055,2050,2043,2038,2038,2027
2055,2055,2058,2047,2044,2037,2029,2028
2045,2052,2055,2041,2041,2041,2021,2037
2041,2054,2053,2045,2049,2049,2022,2042
2049,2050,2049,2048,2046,2045,2034,2046
2045,2049,2050,2051,2048,2042,2045,2056
2049,2049,2052,2056,2048,2046,2029,2062
2048,2045,2049,2053,2045,2049,2040,2072
2048,2052,2050,2060,2046,2042,2036,2081
2049,2044,2038,2061,2044,2026,2028,2074
2045,2045,2038,2062,2038,2030,2015,2080
2056,2054,2050,2068,2046,2039,2029,2082
2060,2056,2061,2071,2046,2043,2046,2074
2058,2049,2047,2069,2049,2046,2017,2074
2061,2055,2051,2070,2043,2038,2012,2064
2054,2046,2055,2078,2036,2039,2037,2053
2049,2041,2060,2085,2035,2042,2033,2054
2050,2040,2059,2084,2041,2040,2042,2048
2046,2044,2052,2075,2038,2043,2046,2034
2042,2040,2048,2072,2043,2044,2049,2033
2040,2044,2053,2062,2045,2042,2039,2033
2040,2046,2071,2069,2044,2040,2026,2026
2051,2054,2078,2070,2039,2038,2025,2018
2046,2054,2072,2059,2033,2044,2026,2011
2045,2061,2068,2056,2043,2043,2024,2014
2051,2057,2058,2051,2036,2041,2037,2006
2047,2037,2045,2040,2031,2036,2036,2007
2039,2040,2027,2035,2028,2048,2046,2006
2044,2040,2020,2021,2028,2043,2049,2008
2050,2048,2024,2016,2027,2045,2049,2013
2048,2055,2030,2008,2035,2038,2032,2017
2046,2052,2015,2005,2032,2040,2037,2019
2045,2050,2019,2012,2045,2046,2044,2027
2044,2044,2015,2019,2050,2044,2059,2028
2042,2037,2028,2029,2060,2043,2053,2038
2046,2041,2033,2039,2058,2044,2054,2047
2046,2042,2040,2051,2045,2043,2042,2061
2045,2048,2052,2055,2048,2045,2028,2071
2049,2060,2081,2063,2049,2048,2043,2079
2059,2081,2099,2069,2046,2050,2045,2085
2053,2080,2091,2061,2049,2051,2052,2084
2052,2066,2084,2064,2040,2046,2052,2072
2037,2051,2066,2053,2042,2040,2050,2075
2036,2043,2063,2054,2040,2052,2054,2086
2046,2052,2060,2053,2042,2060,2050,2079
2046,2045,2056,2046,2037,2045,2048,2070
2049,2050,2050,2035,2029,2043,2024,2054
2051,2049,2052,2033,2038,2032,2043,2056
2045,2051,2044,2029,2038,2025,2044,2056
2051,2050,2036,2031,2049,2029,2030,2041
2052,2051,2026,2031,2064,2039,2042,2037
2045,2050,2038,2037,2051,2044,2046,2029
2051,2057,2056,2046,2051,2049,2042,2022
2052,2063,2066,2049,2049,2049,2034,2023
2054,2061,2065,2042,2048,2046,2038,2021
2049,2057,2056,2036,2034,2040,2028,2022
2045,2047,2056,2032,2025,2033,2021,2009
2042,2042,2051,2024,2022,2024,2025,2003
2033,2040,2051,2024,2029,2029,2052,2007
2041,2053,2065,2044,2042,2038,2058,2014
2050,2069,2074,2053,2049,2041,2053,2018
2054,2065,2066,2052,2047,2043,2051,2015
2048,2058,2062,2048,2051,2036,2039,2024
2042,2053,2060,2041,2051,2041,2048,2028
2044,2047,2058,2043,2053,2041,2045,2031
2046,2042,2046,2045,2049,2041,2049,2041
2044,2041,2047,2043,2043,2041,2046,2042
2045,2041,2052,2045,2051,2039,2055,2047
2051,2046,2051,2053,2056,2041,2052,2063
2053,2054,2065,2047,2058,2043,2033,2068
2051,2050,2054,2046,2050,2036,2053,2072
2042,2045,2057,2044,2052,2041,2064,2072
2041,2049,2059,2053,2051,2043,2044,2074
2045,2052,2066,2053,2058,2046,2042,2083
2042,2046,2058,2049,2052,2042,2057,2085
2040,2043,2047,2045,2050,2038,2060,2088
2041,2046,2048,2050,2051,2044,2047,2085
2042,2051,2051,2051,2054,2040,2036,2083
2049,2053,2054,2053,2053,2044,2043,2074
2048,2052,2050,2052,2049,2042,2046,2062
2047,2056,2055,2054,2061,2041,2039,2061
2052,2058,2056,2053,2052,2040,2054,2045
2048,2054,2051,2050,2049,2048,2047,2048
2049,2056,2045,2052,2053,2046,2051,2039
2050,2049,2036,2052,2044,2039,2045,2031
2047,2038,2021,2047,2051,2043,2050,2031
2049,2038,2004,2044,2053,2047,2049,2030
2048,2038,1998,2037,2052,2047,2048,2030
2052,2037,2000,2042,2057,2053,2052,2019
2047,2045,2001,2042,2058,2050,2038,2012
2041,2033,1989,2039,2054,2043,2049,2005
2037,2035,1999,2048,2053,2042,2056,2015
2045,2044,2016,2053,2060,2050,2054,2020
2052,2049,2035,2057,2056,2050,2045,2024
2045,2047,2045,2057,2062,2047,2044,2030
2044,2050,2051,2053,2059,2043,2054,2023
2042,2050,2054,2044,2053,2044,2062,2028
2039,2048,2049,2039,2053,2046,2055,2034
2039,2042,2065,2037,2050,2044,2035,2037
2044,2052,2088,2039,2046,2040,2057,2045
2041,2060,2115,2050,2054,2051,2041,2053
2046,2060,2126,2064,2063,2053,2041,2056
2050,2061,2120,2064,2065,2050,2040,2064
2038,2053,2096,2051,2062,2057,2032,2074
2041,2045,2076,2034,2058,2053,2054,2080
2033,2033,2075,2032,2056,2056,2057,2076
2037,2033,2062,2028,2049,2041,2032,2080
2032,2031,2063,2024,2054,2044,2035,2086
2038,2043,2068,2030,2057,2053,2053,2083
2040,2044,2067,2034,2055,2046,2058,2076
2051,2053,2070,2038,2054,2043,2033,2073
2056,2054,2066,2045,2056,2048,2033,2066
2057,2056,2070,2044,2044,2039,2041,2066
2057,2056,2064,2041,2040,2027,2039,2059
2048,2062,2060,2041,2041,2029,2046,2048
2049,2056,2066,2046,2050,2033,2065,2045
2059,2056,2064,2045,2051,2036,2058,2034
2056,2054,2062,2041,2049,2035,2039,2024
2054,2051,2061,2043,2046,2031,2042,2025
2050,2054,2055,2037,2047,2037,2039,2025
2052,2053,2056,2035,2044,2035,2031,2020
2056,2057,2056,2035,2042,2035,2025,2013
2050,2041,2046,2031,2036,2037,2041,2018
2047,2038,2047,2028,2041,2047,2055,2010
2050,2050,2050,2035,2050,2057,2052,2013
2048,2050,2045,2038,2050,2073,2050,2011
2057,2048,2048,2042,2051,2091,2060,2026
2057,2049,2045,2045,2056,2095,2073,2024
2054,2045,2047,2038,2053,2091,2064,2036
2061,2051,2049,2037,2049,2073,2061,2036
2056,2053,2050,2045,2048,2020,2030,2037
2052,2051,2052,2044,2051,2008,2054,2044
2048,2047,2044,2047,2055,2022,2058,2060
2045,2050,2047,2045,2058,2036,2050,2062
2046,2046,2047,2042,2052,2040,2032,2072
2043,2046,2043,2038,2055,2040,2023,2072
2045,2046,2045,2042,2053,2041,2040,2078
2045,2048,2047,2045,2055,2042,2045,2078
2037,2035,2038,2038,2041,2036,2031,2083
2032,2037,2040,2037,2045,2034,2046,2081
2044,2045,2046,2042,2040,2038,2063,2084
2046,2049,2048,2046,2038,2032,2048,2077
2046,2050,2049,2044,2029,2031,2051,2069
2051,2043,2053,2042,2041,2034,2023,2070
2038,2041,2042,2038,2040,2027,2025,2065
2041,2038,2042,2036,2039,2026,2046,2059
2048,2042,2038,2041,2039,2036,2039,2051
2045,2040,2039,2043,2038,2035,2031,2044
2047,2046,2043,2044,2045,2045,2065,2043
2048,2052,2048,2047,2044,2044,2044,2035
2045,2047,2046,2039,2035,2041,2022,2027
2048,2046,2035,2025,2035,2033,2047,2021
2040,2035,2028,2008,2030,2040,2037,2018
2033,2034,2024,2015,2030,2050,2042,2022
2040,2038,2043,2020,2043,2053,2058,2017
2040,2047,2049,2031,2045,2062,2068,2018
2050,2058,2060,2037,2057,2063,2069,2028
2051,2058,2052,2041,2064,2063,2060,2030
2050,2052,2053,2035,2058,2054,2065,2020
2045,2054,2050,2040,2058,2047,2056,2022
2048,2054,2049,2043,2057,2049,2046,2034
2051,2049,2043,2045,2055,2049,2035,2040
2044,2052,2052,2044,2059,2045,2031,2049
2047,2053,2047,2047,2064,2056,2028,2054
2048,2047,2044,2046,2059,2063,2044,2070
2046,2043,2042,2045,2059,2056,2045,2073
2039,2042,2041,2038,2062,2054,2031,2074
2046,2048,2043,2040,2071,2061,2044,2085
2047,2056,2051,2047,2074,2068,2038,2092
2058,2052,2059,2044,2068,2067,2057,2090
2057,2054,2058,2046,2057,2066,2039,2087
2055,2055,2054,2047,2058,2070,2043,2090
2049,2061,2057,2047,2056,2072,2044,2084
2045,2057,2049,2044,2057,2076,2035,2081
2045,2059,2052,2046,2059,2073,2032,2081
2048,2054,2053,2049,2060,2074,2064,2076
2051,2063,2050,2047,2058,2067,2052,2071
2054,2056,2054,2045,2057,2053,2049,2067
2053,2052,2051,2043,2049,2044,2035,2060
2053,2051,2047,2038,2038,2041,2036,2044
2047,2054,2050,2037,2037,2039,2041,2044
2044,2049,2046,2031,2034,2028,2025,2037
2040,2050,2042,2032,2033,2023,2046,2026
2046,2050,2040,2038,2049,2042,2055,2022
2046,2049,2043,2043,2055,2050,2043,2015
2044,2050,2038,2044,2057,2049,2041,2014
2041,2041,2029,2035,2050,2050,2041,2008
2040,2035,2028,2036,2048,2058,2047,2015
2041,2042,2039,2036,2054,2064,2045,2013
2035,2038,2033,2040,2050,2056,2030,2006
2034,2040,2036,2036,2048,2057,2036,2010
2038,2035,2040,2037,2041,2048,2039,2019
2036,2036,2034,2038,2050,2050,2048,2023
2039,2036,2039,2038,2059,2057,2054,2029
2049,2041,2042,2043,2066,2055,2036,2042
2045,2040,2042,2041,2066,2060,2029,2048
2040,2037,2037,2038,2056,2059,2056,2055
2041,2037,2031,2034,2054,2058,2047,2064
2039,2038,2032,2036,2051,2049,2049,2072
2045,2037,2033,2043,2060,2050,2049,2084
2049,2043,2028,2037,2057,2051,2043,2083
2044,2039,2027,2033,2061,2051,2045,2082
2032,2034,2017,2032,2056,2042,2034,2080
2037,2026,2009,2032,2048,2047,2048,2086
2038,2035,2011,2031,2046,2052,2031,2085
2040,2042,2014,2033,2043,2046,2050,2082
2046,2041,2014,2033,2050,2040,2038,2076
2045,2047,2014,2029,2048,2045,2035,2073
2041,2043,2019,2034,2046,2048,2025,2068
2050,2040,2018,2031,2042,2040,2046,2063
2056,2046,2022,2039,2046,2046,2064,2056
2055,2049,2026,2038,2056,2045,2060,2046
2045,2045,2030,2035,2052,2039,2065,2036
2049,2046,2038,2038,2048,2034,2048,2036
2044,2042,2046,2031,2038,2036,2052,2018
2047,2048,2053,2033,2031,2041,2060,2020
2041,2052,2059,2027,2037,2046,2045,2025
2045,2059,2059,2030,2034,2049,2050,2024
2048,2056,2060,2025,2037,2048,2042,2020
2050,2061,2066,2036,2044,2051,2042,2026
2062,2067,2077,2044,2055,2064,2036,2027
2069,2073,2084,2046,2067,2076,2048,2024
2066,2075,2092,2054,2077,2078,2031,2028
2064,2078,2096,2052,2075,2070,2034,2034
2063,2077,2081,2051,2068,2051,2051,2034
2056,2072,2072,2052,2060,2038,2038,2037
2062,2068,2072,2049,2063,2040,2047,2052
2058,2067,2069,2053,2063,2043,2050,2057
2062,2062,2073,2050,2063,2046,2058,2062
2063,2069,2070,2051,2061,2047,2051,2070
2052,2063,2067,2044,2068,2050,2063,2077
2054,2060,2056,2044,2062,2049,2057,2082
2049,2060,2054,2051,2061,2048,2063,2081
2049,2050,2053,2048,2058,2047,2067,2093
2047,2049,2047,2042,2056,2043,2040,2093
2041,2046,2046,2039,2058,2040,2040,2095
2047,2051,2052,2043,2056,2042,2044,2095
2055,2058,2052,2046,2050,2047,2054,2091
2047,2053,2054,2044,2055,2047,2041,2083
2050,2059,2056,2050,2054,2049,2061,2083
2044,2053,2052,2043,2055,2051,2051,2066
2047,2049,2054,2040,2050,2055,2059,2064
2047,2053,2050,2045,2053,2056,2056,2056
2047,2049,2048,2038,2052,2055,2051,2049
2043,2050,2049,2037,2053,2052,2046,2039
2047,2051,2050,2039,2049,2052,2050,2041
2049,2051,2050,2041,2048,2053,2040,2032
2044,2050,2046,2041,2050,2054,2051,2031
2049,2045,2044,2040,2051,2060,2055,2026
2052,2050,2044,2039,2056,2056,2059,2021
2044,2040,2035,2034,2054,2048,2048,2012
2039,2032,2034,2032,2051,2043,2041,2013
2044,2039,2040,2039,2061,2054,2040,2014
2039,2040,2043,2040,2062,2054,2057,2018
2040,2036,2045,2042,2060,2061,2059,2022
2043,2040,2044,2043,2069,2058,2043,2025
2040,2036,2044,2046,2063,2053,2044,2030
2049,2040,2043,2040,2066,2053,2044,2030
2042,2045,2041,2039,2061,2051,2073,2036
2043,2039,2041,2040,2064,2048,2051,2041
2045,2038,2043,2041,2068,2039,2038,2053
2042,2038,2044,2040,2060,2037,2059,2061
2041,2042,2048,2044,2060,2036,2065,2077
2044,2042,2049,2046,2058,2045,2075,2086
2044,2047,2053,2043,2062,2041,2061,2093
2052,2055,2048,2050,2060,2039,2043,2096
2046,2049,2048,2038,2055,2026,2035,2096
2048,2055,2046,2034,2048,2026,2032,2097
2055,2061,2057,2045,2048,2026,2020,2100
2058,2061,2055,2043,2049,2022,2024,2092
2057,2063,2059,2048,2049,2029,2043,2081
2057,2058,2057,2051,2061,2036,2040,2078
2054,2061,2055,2054,2061,2047,2048,2072
2055,2063,2060,2055,2059,2059,2063,2059
2060,2062,2055,2043,2054,2049,2062,2045
2062,2059,2055,2045,2048,2048,2041,2041
2056,2051,2044,2042,2048,2068,2040,2033
2049,2056,2048,2041,2043,2089,2033,2034
2046,2055,2051,2038,2044,2094,2044,2024
2052,2055,2051,2036,2047,2101,2048,2023
2050,2055,2047,2043,2060,2108,2055,2018
2049,2055,2050,2039,2059,2108,2065,2016
2049,2047,2044,2039,2059,2111,2049,2019
2053,2052,2046,2035,2055,2102,2061,2026
2056,2058,2056,2041,2052,2095,2060,2018
2054,2059,2053,2042,2072,2088,2059,2021
2059,2061,2053,2043,2073,2075,2049,2026
2057,2054,2052,2043,2080,2064,2029,2037
2049,2054,2048,2044,2075,2045,2046,2040
2051,2057,2046,2049,2074,2049,2066,2041
2054,2055,2053,2046,2077,2049,2066,2047
2056,2060,2054,2049,2076,2038,2067,2051
2060,2062,2051,2052,2068,2015,2050,2062
2061,2059,2052,2050,2058,2006,2047,2072
2054,2055,2045,2044,2041,2022,2055,2075
2056,2052,2043,2042,2043,2029,2049,2080
2050,2051,2040,2044,2044,2038,2035,2093
2056,2052,2041,2041,2045,2054,2030,2092
2035,2038,2035,2034,2037,2053,2021,2091
2044,2039,2036,2036,2036,2052,2036,2094
2058,2057,2047,2036,2036,2057,2030,2098
2052,2054,2046,2037,2034,2028,2034,2090
2049,2049,2040,2033,2035,1979,2014,2078
2047,2047,2045,2031,2041,1982,2019,2075
2049,2046,2042,2040,2036,1991,2017,2066
2048,2049,2040,2043,2036,2008,2031,2053
2058,2048,2041,2044,2040,2022,2040,2049
2046,2051,2039,2039,2024,2022,2040,2035
2037,2049,2035,2036,2023,2024,2035,2017
2037,2042,2030,2030,2022,2034,2042,2012
2035,2042,2032,2033,2031,2049,2059,2011
2037,2045,2037,2037,2046,2071,2066,2014
2054,2046,2040,2048,2057,2090,2072,2018
2049,2042,2033,2042,2056,2091,2064,2010
2039,2034,2028,2036,2044,2083,2036,2006
2029,2032,2024,2036,2048,2066,2055,2006
2039,2038,2030,2044,2059,2054,2042,2004
2038,2041,2032,2043,2059,2048,2034,2018
2047,2044,2039,2053,2060,2040,2061,2021
2051,2044,2036,2051,2060,2040,2062,2024
2051,2051,2042,2053,2054,2045,2061,2037
2051,2051,2040,2052,2063,2048,2059,2033
2049,2053,2034,2047,2061,2058,2066,2046
2055,2055,2038,2044,2064,2060,2070,2050
2055,2058,2042,2056,2061,2068,2065,2064
2054,2057,2039,2050,2073,2079,2081,2067
2056,2047,2038,2047,2065,2091,2075,2082
2057,2047,2040,2047,2056,2082,2062,2085
2058,2049,2040,2045,2045,2070,2059,2082
2059,2049,2037,2036,2035,2053,2048,2081
2056,2038,2037,2038,2033,2024,2046,2087
2051,2041,2037,2039,2035,2021,2043,2087
2053,2047,2048,2046,2026,2025,2044,2077
2055,2055,2051,2048,2026,2036,2054,2073
2043,2057,2055,2044,2000,2018,2034,2069
2034,2053,2056,2035,1974,1999,2050,2065
2052,2054,2046,2027,1937,1986,2025,2057
2047,2061,2053,2021,1926,1975,2011,2054
2046,2048,2038,2013,1921,1980,2028,2037
2040,2043,2028,2007,1951,2002,2032,2022
2035,2047,2029,2025,2005,2049,2050,2032
2049,2057,2044,2050,2068,2077,2078,2032
2050,2056,2042,2058,2101,2089,2079,2034
2051,2059,2037,2062,2116,2109,2072,2028
2046,2057,2036,2062,2114,2105,2061,2016
2046,2050,2032,2056,2097,2076,2053,2008
2037,2037,2017,2041,2087,2057,2040,2008
2028,2031,2016,2038,2096,2061,2051,2000
2036,2043,2018,2048,2109,2066,2062,2008
2037,2041,2020,2046,2103,2067,2045,2008
2037,2050,2024,2046,2093,2064,2056,2013
2040,2044,2023,2040,2082,2053,2042,2015
2033,2044,2020,2042,2081,2043,2065,2021
2036,2052,2029,2054,2081,2055,2056,2025
2036,2055,2042,2054,2076,2053,2053,2035
2040,2057,2041,2051,2073,2052,2059,2041
2039,2055,2047,2051,2072,2048,2065,2054
2040,2051,2046,2049,2060,2028,2042,2056
2039,2046,2046,2045,2046,2024,2053,2061
2038,2049,2056,2048,2032,2024,2039,2067
2040,2049,2060,2042,2038,2036,2043,2065
2034,2044,2050,2047,2041,2042,2042,2062
2033,2032,2034,2036,2039,2035,2046,2068
2031,2031,2037,2024,2034,2036,2043,2081
2043,2048,2034,2027,2040,2040,2023,2077
2043,2051,2038,2035,2048,2052,2043,2076
2049,2053,2043,2054,2056,2063,2052,2070
2046,2054,2036,2052,2054,2070,2047,2066
2049,2052,2043,2052,2052,2066,2055,2061
2051,2053,2049,2053,2053,2069,2065,2059
2062,2061,2062,2060,2054,2078,2042,2056
2059,2064,2066,2066,2052,2074,2060,2051
2058,2066,2058,2061,2052,2076,2054,2035
2054,2063,2055,2055,2038,2063,2062,2035
2047,2066,2064,2066,2052,2058,2057,2026
2054,2063,2061,2068,2111,2053,2050,2023
2050,2060,2054,2073,2160,2055,2064,2017
2052,2062,2051,2075,2165,2050,2053,2017
2050,2054,2043,2068,2154,2044,2049,2010
2046,2052,2046,2069,2121,2041,2050,2025
2049,2062,2052,2071,2120,2051,2049,2023
2053,2060,2056,2072,2109,2043,2063,2026
2056,2063,2058,2061,2087,2043,2050,2025
2059,2069,2064,2054,2035,2030,2041,2029
2059,2066,2061,2038,1984,2028,2043,2031
2059,2067,2051,2032,1903,2024,2046,2034
2056,2064,2054,2017,1884,2022,2058,2040
2055,2068,2053,2017,1882,2032,2068,2048
2054,2064,2051,2022,1933,2038,2057,2052
2047,2060,2046,2024,1998,2042,2050,2061
2051,2062,2051,2029,2034,2032,2037,2075
2052,2054,2052,2040,2050,2033,2025,2081
2044,2057,2051,2044,2057,2043,2034,2081
2046,2060,2058,2054,2060,2056,2033,2086
2035,2041,2045,2040,2045,2036,2024,2078
2032,2036,2034,2035,2032,2017,2024,2077
2033,2040,2033,2043,2028,2017,2008,2072
2037,2038,2031,2034,2023,2026,2042,2068
2037,2044,2039,2041,2034,2043,2038,2068
2047,2048,2045,2044,2047,2052,2058,2066
2045,2053,2050,2051,2044,2050,2058,2054
2043,2056,2051,2055,2047,2046,2048,2042
2039,2049,2044,2047,2039,2037,2047,2045
2034,2049,2050,2045,2039,2035,2050,2032
2039,2044,2050,2046,2038,2034,2044,2022
2037,2045,2046,2047,2029,2024,2039,2012
2034,2047,2034,2046,2023,2015,2044,2014
2028,2045,2037,2040,2021,2010,2027,2006
2034,2046,2039,2043,2032,2014,2037,2006
2046,2053,2044,2044,2035,2024,2029,2004
2048,2047,2032,2039,2021,2038,2026,1997
2042,2039,2032,2034,2007,2068,2014,1996
2045,2043,2040,2029,1997,2068,2023,1998
2040,2043,2034,2027,1975,2051,2003,1995
2043,2042,2033,2024,1971,2025,2016,2010
2050,2046,2029,2028,2004,2019,2017,2028
2054,2052,2035,2046,2057,2029,2038,2036
2052,2062,2039,2061,2078,2068,2048,2030
2050,2066,2042,2062,2064,2066,2044,2030
2045,2060,2041,2058,2062,2063,2054,2040
2056,2060,2038,2056,2047,2064,2066,2060
2054,2059,2039,2051,2042,2060,2077,2061
2058,2056,2030,2058,2047,2059,2074,2064
2045,2047,2033,2067,2064,2070,2094,2056
2034,2042,2028,2060,2086,2072,2060,2058
2031,2045,2028,2066,2093,2073,2049,2062
2025,2034,2022,2064,2098,2070,2054,2072
2036,2030,2019,2068,2096,2082,2049,2076
2038,2037,2028,2072,2088,2102,2062,2071
2042,2032,2024,2066,2068,2105,2060,2069
2040,2034,2024,2058,2053,2104,2050,2065
2041,2035,2027,2056,2023,2093,2056,2055
2034,2031,2019,2047,2006,2073,2046,2042
2034,2035,2020,2038,1992,2061,2025,2039
2030,2031,2008,2021,1972,2040,2007,2031
2025,2033,2012,2012,1950,2035,2028,2024
2033,2042,2029,2021,1963,2045,2042,2033
2045,2054,2049,2031,1972,2058,2078,2038
2046,2057,2042,2029,2019,2073,2082,2035
2051,2061,2047,2029,2064,2093,2071,2036
2062,2075,2065,2042,2070,2096,2085,2042
2068,2086,2077,2051,2038,2078,2095,2033
2069,2080,2071,2043,2002,2012,2068,2028
2066,2069,2071,2039,1961,1971,2054,2027
2066,2076,2081,2037,1944,1986,2058,2018
2067,2077,2086,2036,1974,2003,2041,2012
2061,2058,2073,2023,1966,2016,2047,2013
2056,2051,2056,2021,2008,2032,2058,2020
2053,2052,2056,2044,2142,2054,2047,2030
2056,2051,2055,2074,2206,2071,2045,2037
2057,2050,2057,2078,2191,2076,2041,2034
2059,2054,2068,2070,2133,2067,2049,2038
2050,2056,2073,2062,2093,2066,2051,2045
2042,2043,2065,2040,2053,2050,2044,2047
2040,2040,2058,2034,2071,2045,2053,2059
2042,2042,2060,2044,2095,2052,2052,2072
2032,2048,2058,2046,2119,2056,2044,2067
2031,2049,2053,2048,2123,2058,2036,2078
2036,2052,2051,2050,2127,2063,2011,2071
2038,2046,2056,2060,2149,2081,2034,2084
2052,2059,2069,2070,2154,2084,2046,2081
2060,2074,2071,2066,2102,2072,2044,2074
2058,2069,2064,2043,2036,2070,2018,2068
2052,2060,2052,2038,2016,2081,2054,2064
2050,2050,2046,2026,1941,2085,2085,2054
2043,2037,2040,2020,1922,2074,2064,2041
2038,2036,2039,2019,1931,2071,2048,2033
2038,2043,2045,2028,1942,2060,2035,2031
2038,2042,2045,2033,1959,2040,2054,2031
2040,2046,2050,2040,1988,2049,2059,2027
2043,2041,2044,2040,2002,2080,2059,2013
2044,2043,2040,2037,2005,2100,2034,2012
2044,2042,2036,2031,2005,2101,2028,2004
2040,2039,2042,2032,2014,2098,2046,2003
2039,2041,2036,2034,2022,2089,2038,2002
2038,2044,2034,2034,2023,2048,2037,2002
2042,2035,2036,2035,2032,2038,2036,2006
2050,2045,2039,2044,2058,2062,2052,2015
2045,2042,2036,2042,2096,2082,2052,2006
2046,2039,2040,2045,2142,2111,2049,2004
2041,2041,2032,2049,2155,2123,2054,2008
2044,2033,2027,2054,2165,2128,2036,2004
2044,2030,2029,2054,2169,2116,2041,2007
2037,2033,2020,2053,2156,2111,2037,2017
2034,2030,2012,2045,2149,2081,2034,2022
2032,2032,2014,2043,2146,2072,2045,2031
2041,2031,2018,2052,2134,2051,2056,2036
2043,2029,2030,2055,2134,2058,2049,2046
2047,2040,2036,2052,2099,2052,2032,2057
2042,2039,2034,2054,2085,2050,2036,2062
2044,2042,2030,2037,2060,2038,2044,2076
2047,2029,2014,2018,1983,2021,2033,2075
2036,2018,2001,1993,1914,2008,2029,2079
2032,2019,2005,2014,1957,2016,2050,2074
2037,2037,2023,2023,1975,1997,2053,2064
2033,2040,2019,2017,1936,1976,2013,2056
2038,2041,2016,2012,1932,1975,2012,2053
2036,2036,2013,2015,1972,1989,2027,2042
2037,2040,2022,2008,1991,1992,2024,2031
2034,2038,2026,2013,2015,2008,2046,2027
2044,2048,2034,2028,2041,2029,2027,2024
2047,2054,2050,2044,2082,2061,2044,2027
2051,2054,2057,2049,2102,2078,2054,2024
2056,2054,2054,2050,2076,2066,2044,2010
2054,2047,2056,2051,2044,2062,2053,2004
2050,2055,2074,2056,2038,2081,2066,1999
2054,2069,2084,2061,2033,2092,2071,2002
2053,2067,2083,2063,2053,2089,2055,1995
2038,2043,2058,2064,2066,2068,2039,1986
2033,2032,2047,2057,2074,2050,2034,1993
2035,2042,2053,2072,2089,2058,2033,1994
2036,2044,2060,2074,2079,2080,2027,1991
2047,2053,2060,2080,2100,2084,2036,2014
2055,2055,2057,2076,2102,2084,2055,2018
2054,2053,2048,2065,2062,2062,2053,2024
2056,2051,2037,2054,2033,2033,2036,2026
2062,2052,2038,2040,2002,1990,2037,2042
2056,2050,2040,2039,1986,1985,2039,2042
2054,2041,2037,2030,1980,2010,2037,2036
2043,2029,2036,2037,2008,2024,2029,2034
2034,2017,2022,2018,1993,2011,2033,2042
2033,2023,2026,2006,1993,2005,2018,2046
2043,2028,2037,2022,2045,2019,2030,2054
2047,2033,2044,2043,2106,2042,2020,2062
2040,2033,2046,2056,2139,2038,2025,2064
2035,2036,2058,2066,2130,2036,2015,2066
2025,2044,2052,2075,2151,2037,2021,2060
2033,2043,2053,2067,2166,2039,2008,2060
2032,2038,2048,2061,2163,2033,2008,2061
2041,2045,2051,2064,2160,2033,2010,2061
2046,2050,2056,2057,2146,2036,2017,2050
2045,2051,2069,2065,2120,2039,2028,2052
2051,2063,2074,2065,2029,2030,2039,2048
2056,2065,2074,2050,2044,2020,2039,2040
2057,2058,2074,2047,2082,2028,2039,2033
2062,2060,2070,2041,2050,2025,2061,2027
2058,2053,2062,2039,2016,2032,2046,2012
2048,2048,2055,2037,2004,2035,2046,2004
2042,2045,2052,2027,1944,2029,2053,1999
2042,2038,2056,2034,1920,2039,2048,1987
2036,2033,2052,2046,2003,2047,2022,1988
2035,2029,2047,2038,1999,2044,2024,1990
2036,2033,2048,2031,1957,2049,2040,1995
2034,2037,2043,2026,1925,2040,2027,2001
2039,2037,2046,2019,1896,2024,2040,1999
2039,2038,2050,2004,1894,2021,2039,2002
2038,2049,2053,2010,1928,2009,2052,2011
2054,2053,2063,2038,1995,2012,2067,2031
2061,2065,2069,2057,2068,2038,2083,2047
2062,2061,2063,2067,2113,2070,2073,2056
2059,2054,2061,2070,2135,2084,2086,2061
2054,2049,2050,2062,2144,2071,2075,2059
2052,2045,2050,2052,2113,2085,2077,2066
2057,2056,2065,2046,2104,2112,2078,2062
2056,2058,2058,2046,2104,2120,2078,2072
2056,2053,2056,2050,2114,2142,2072,2068
2047,2043,2048,2047,2126,2146,2069,2070
2032,2032,2042,2046,2131,2114,2056,2073
2040,2039,2054,2059,2122,2080,2075,2090
2050,2045,2049,2044,2065,2088,2078,2080
2046,2042,2048,2030,2006,2084,2074,2073
2033,2033,2040,2025,2007,2097,2080,2068
2039,2032,2033,2036,2033,2106,2078,2049
2037,2035,2039,2037,2073,2066,2057,2039
2032,2026,2032,2032,2077,2032,2055,2020
2018,2018,2024,2030,2064,2017,2018,2014
2027,2025,2034,2026,2035,2013,2039,2014
2036,2041,2047,2025,1958,2040,2045,2014
2052,2058,2063,2034,1967,2058,2040,2010
2042,2059,2072,2041,1975,2036,2017,2002
2041,2052,2069,2041,1967,2038,2033,1999
2043,2048,2060,2043,1961,2040,2033,1996
2040,2048,2050,2042,1987,2036,2040,1996
2040,2034,2042,2041,1968,2029,2029,1999
2049,2051,2049,2042,1958,2029,2038,2008
2053,2062,2057,2041,1947,2026,2048,2015
2058,2063,2047,2032,1958,2026,2044,2018
2044,2049,2043,2035,2018,2028,2034,2007
2037,2042,2041,2043,2039,2031,2063,2005
2042,2053,2045,2048,2041,2039,2074,2022
2047,2059,2057,2046,2026,2033,2056,2026
2046,2058,2057,2045,2036,2044,2044,2032
2054,2059,2057,2042,2044,2064,2056,2042
2056,2059,2057,2039,1975,2065,2067,2054
2054,2054,2051,2020,1875,2056,2062,2064
2052,2049,2042,2020,1959,2048,2054,2060
2032,2031,2050,2037,2034,2054,2065,2062
2026,2032,2059,2051,2026,2064,2062,2086
2044,2038,2066,2071,2038,2061,2065,2095
2054,2034,2062,2069,2046,2054,2034,2102
2067,2025,2051,2058,2069,2014,2016,2094
2065,2012,2034,2044,2060,1989,2017,2078
2043,2007,2030,2051,2090,2014,2031,2054
2027,2010,2030,2063,2089,2033,2018,2032
2023,2016,2038,2074,2089,2041,2027,2020
2016,2014,2034,2087,2121,2053,2030,2041
2033,2017,2036,2088,2141,2072,2044,2054
2045,2019,2042,2085,2172,2079,2064,2039
2048,2033,2044,2089,2190,2086,2066,2024
2044,2043,2042,2090,2217,2084,2055,2023
2047,2044,2037,2080,2202,2059,2055,2018
2052,2043,2032,2060,2183,2049,2059,2023
2050,2055,2031,2051,2114,2039,2076,2025
2046,2047,2034,2033,2031,2016,2086,2010
2042,2051,2036,2015,1942,1989,2062,1998
2041,2044,2039,2004,1987,1969,2048,2000
2039,2051,2045,2012,2049,1991,2063,2010
2058,2054,2052,2010,2038,2007,2049,2012
2056,2047,2050,2016,2041,2009,2042,2006
2054,2040,2052,2021,2030,2019,2046,2012
2048,2049,2061,2015,2013,2042,2032,2010
2040,2049,2056,2007,2012,2068,2033,2015
2041,2049,2063,2016,2047,2101,2059,2022
2044,2053,2061,2021,2105,2083,2057,2026
2042,2057,2063,2028,2169,2071,2064,2030
2046,2051,2056,2038,2224,2081,2097,2045
2043,2041,2053,2050,2279,2102,2076,2055
2042,2033,2044,2049,2292,2103,2054,2057
2030,2029,2044,2051,2293,2104,2050,2072
2034,2032,2043,2062,2294,2109,2076,2075
2036,2033,2051,2066,2259,2088,2070,2085
2037,2035,2045,2049,2192,2050,2054,2076
2039,2036,2044,2031,2061,2021,2039,2070
2038,2030,2042,2026,1981,2020,2047,2062
2038,2033,2042,2031,1979,2019,2027,2059
2041,2041,2044,2056,2024,2027,2038,2067
2044,2022,2039,2052,2030,2043,2045,2066
2049,2030,2047,2032,1925,2044,2040,2053
2052,2048,2058,2028,1938,2053,2046,2040
2051,2040,2052,2027,1991,2093,2037,2031
2045,2038,2045,2023,2011,2113,2060,2025
2041,2042,2054,2041,2016,2096,2044,2019
2030,2051,2052,2035,2001,2053,2026,2010
2035,2041,2040,2031,1940,1995,2027,2004
2043,2038,2036,2041,1911,1972,2021,2010
2049,2051,2039,2061,1980,2020,2027,2008
2052,2043,2030,2055,2020,2027,2040,1994
2042,2019,2017,2047,2025,2016,2031,1984
2035,2013,2010,2044,2027,2028,2025,1985
2041,2022,2024,2070,2040,2054,2054,2001
2054,2033,2037,2081,2023,2060,2061,2013
2061,2041,2049,2088,2004,2039,2059,2020
2061,2040,2043,2088,1987,2028,2052,2018
2049,2041,2036,2068,1973,2031,2039,2011
2041,2029,2022,2052,1984,2055,2035,2019
2050,2032,2027,2061,2018,2074,2075,2028
2056,2050,2036,2078,2003,2086,2078,2036
2055,2045,2045,2067,1995,2090,2066,2048
2048,2034,2035,2054,2010,2065,2052,2037
2026,2031,2028,2056,2029,2041,2045,2050
2030,2034,2035,2050,2039,2042,2057,2069
2034,2052,2062,2053,2040,2048,2061,2058
2046,2059,2073,2071,2075,2067,2058,2069
2051,2055,2060,2069,2153,2070,2028,2073
2037,2020,2039,2045,2153,2062,2033,2072
2032,2013,2035,2045,2146,2068,2052,2069
2039,2024,2037,2024,2089,2076,2039,2073
2039,2032,2060,2011,2063,2089,2040,2077
2041,2052,2074,2012,1989,2073,2057,2086
2052,2058,2080,1989,1864,2032,2064,2084
2051,2057,2064,1969,1753,2004,2040,2074
2058,2058,2054,1966,1720,2010,2057,2051
2061,2063,2063,1990,1808,2032,2043,2043
2061,2070,2070,2018,1874,2033,2045,2035
2064,2060,2067,2026,1922,2023,2052,2028
2052,2050,2071,2031,1954,2002,2045,2026
2047,2039,2061,2041,2072,2001,2047,2029
2039,2028,2052,2046,2172,2036,2048,2027
2034,2018,2031,2040,2223,2037,2041,2014
2032,2009,2022,2036,2293,2001,2048,2000
2022,1996,2004,2037,2196,2006,2043,2019
2031,1996,1996,2017,2015,2020,2037,2011
2033,2024,2017,2044,2138,2061,2046,1997
2034,2038,2033,2058,2183,2063,2043,1993
2027,2033,2032,2032,2101,2039,2037,2001
2035,2027,2036,2029,2061,2052,2050,2024
2056,2064,2088,2076,2127,2100,2079,2049
2084,2093,2115,2104,2180,2110,2076,2048
2073,2082,2091,2075,2198,2115,2067,2041
2052,2056,2070,2061,2188,2096,2060,2036
2032,2041,2055,2044,2194,2074,2037,2052
2026,2031,2050,2038,2221,2067,2043,2071
2030,2020,2054,2047,2286,2073,2052,2088
2035,2026,2056,2058,2255,2084,2070,2100
2047,2046,2073,2082,2167,2105,2093,2099
2057,2061,2069,2090,2019,2091,2070,2101
2059,2057,2046,2076,2039,2104,2069,2106
2065,2048,2028,2060,2097,2113,2039,2092
2065,2051,2031,2072,2176,2128,2071,2073
2061,2055,2041,2058,2143,2113,2063,2053
2048,2047,2031,2001,1870,2045,2054,2032
2032,2029,2015,1967,1770,1992,2027,2025
2025,2030,2017,2015,1892,2011,2040,2026
2027,2042,2041,2051,1952,2019,2047,2010
2023,2047,2051,2054,2009,2003,2034,2013
2035,2058,2056,2054,2025,1981,2006,2013
2037,2064,2060,2061,2064,2000,2019,2022
2043,2055,2062,2062,2102,2040,2030,2034
2056,2055,2053,2067,2108,2056,2068,2039
2079,2042,2044,2040,2060,2049,2081,2053
2092,2028,2021,2005,1965,2017,2049,2059
2091,2010,1988,1967,1931,1980,2008,2021
2066,2000,1990,1967,1978,1973,1999,1978
2060,2021,2032,1995,1998,1998,2022,1991
2093,2059,2071,2035,2028,2010,2036,1987
2059,2063,2081,2054,2034,2023,2042,1995
2039,2068,2082,2057,2021,2029,2042,2018
2026,2061,2075,2065,2023,2043,2048,2028
2031,2071,2083,2077,2046,2057,2055,2035
2046,2077,2074,2077,2050,2060,2069,2034
2052,2056,2055,2070,2064,2067,2041,2033
2042,2043,2042,2066,2086,2070,2053,2036
2052,2050,2054,2080,2089,2074,2052,2042
2055,2046,2054,2085,2056,2067,2062,2053
2047,2032,2044,2079,2031,2044,2054,2060
2047,2027,2028,2073,2016,2037,2048,2069
2037,2022,2021,2080,2070,2046,2059,2074
2030,2014,2017,2071,2047,2045,2047,2059
2026,2009,2012,2075,2058,2050,2058,2064
2019,2031,2013,2070,2032,2046,2058,2062
2022,2024,2005,2045,2055,2043,2039,2064
2036,2010,1992,2030,2088,2037,2028,2070
2029,1999,1993,2016,2113,2037,2041,2058
2032,2012,1993,2013,2148,2054,2039,2054
2026,2026,2006,2013,2163,2067,2060,2043
2020,2041,2024,2022,2121,2083,2079,2045
2052,2078,2044,2038,2112,2094,2088,2061
2080,2091,2051,2054,2146,2098,2101,2058
2078,2080,2042,2052,2088,2090,2069,2045
2075,2076,2045,2044,2047,2094,2076,2033
2066,2067,2050,2049,2042,2078,2027,2016
2047,2055,2047,2042,2027,2072,2024,2012
2053,2056,2056,2045,2018,2097,2040,2010
2053,2054,2053,2039,2024,2084,2020,1994
2040,2044,2051,2046,2056,2061,2003,1994
2036,2035,2060,2057,2035,2046,1998,2000
2032,2037,2064,2050,1997,2068,2017,2000
2040,2037,2073,2075,2054,2137,2055,1998
2045,2043,2073,2058,1951,2148,2033,1991
2041,2038,2049,2029,1897,2128,2038,1990
2043,2013,2028,2024,1886,2095,2032,2004
2037,2010,2037,2052,1930,2043,2007,2028
2049,2048,2056,2075,2002,1921,2026,2056
2067,2071,2068,2097,2037,1838,2009,2058
2049,2070,2073,2081,2007,1879,2007,2046
2045,2074,2079,2071,1998,1959,2022,2038
2046,2074,2077,2036,2027,1988,2027,2047
2041,2064,2047,2024,2108,2020,2033,2061
2043,2057,2035,2036,2157,2052,2056,2069
2048,2049,2028,2042,2172,2063,2056,2080
2051,2048,2025,2039,2144,2068,2045,2074
2055,2048,2023,2041,2087,2071,2065,2068
2051,2036,2014,2029,2047,2063,2058,2077
2043,2020,1996,2017,2024,2051,2021,2072
2042,2020,1988,2028,2071,2058,2022,2064
2075,2034,2010,2044,2103,2071,2049,2052
2084,2043,2020,2062,2126,2067,2036,2043
2077,2045,2017,2084,2175,2074,2047,2050
2062,2038,2020,2101,2144,2058,2052,2039
2042,2023,2015,2100,2113,2052,2053,1992
2012,2017,2021,2119,2202,2064,2029,1985
2002,2028,2030,2139,2333,2082,2044,1996
2004,2011,2023,2136,2308,2083,2035,2003
2016,2017,2025,2123,2241,2079,2056,2000
2031,2033,2060,2110,2132,2067,2056,2007
2051,2048,2062,2070,2000,2048,2035,2020
2040,2036,2070,2063,2026,2054,2032,2018
2043,2047,2101,2090,2082,2062,2040,2021
2048,2053,2130,2092,1991,2020,2024,2005
2040,2046,2119,2059,1859,2004,2025,2014
2045,2034,2099,2080,1974,2029,2038,2016
2054,2029,2086,2105,2069,2054,2039,2002
2040,2028,2057,2102,2145,2071,2034,2003
2048,2027,2033,2066,2152,2072,2044,2018
2057,2028,2012,2058,2194,2073,2039,2008
2037,2014,2008,2072,2149,2074,2036,2026
2025,2010,1998,2032,1947,2037,2028,2040
2020,2015,1991,2041,1983,2024,2045,2068
2036,2033,2002,2061,2040,2037,2053,2063
2034,2034,2008,2065,2068,2038,2036,2066
2042,2028,2008,2059,2066,2038,2038,2056
2028,2011,1999,2043,2017,2036,2028,2062
2019,2001,1988,2022,2006,2041,2041,2068
2036,1999,1973,1994,2008,2045,2075,2098
2060,1978,1943,1980,2003,2018,2061,2116
2078,1978,1937,1982,1971,1996,2045,2111
2092,2009,1978,1996,1947,1992,2062,2091
2086,2033,1998,2007,1932,1991,2043,2047
2063,2025,1992,1984,1921,1976,2019,2002
2020,1987,1987,1968,1934,1999,2010,2004
2017,2000,2012,2016,2022,2046,2056,2013
2025,2014,2030,2048,2066,2062,2060,2004
2009,2033,2046,2060,2080,2064,2060,2012
2033,2066,2074,2066,2099,2082,2040,2030
2057,2082,2094,2077,2096,2087,2048,2025
2066,2098,2112,2078,2081,2078,2051,2018
2059,2097,2103,2063,2069,2072,2049,2011
2056,2078,2056,2043,2057,2058,2025,2013
2053,2064,2038,2043,2041,2053,2037,2028
2056,2067,2028,2038,2067,2071,2061,2021
2048,2060,2024,2019,2073,2071,2072,2017
2045,2068,2041,2008,2067,2056,2058,2025
2049,2062,2046,2004,2038,2041,2012,2027
2042,2050,2046,2002,2038,2029,2015,2016
2025,2046,2060,2027,2047,2031,2019,2013
2016,2044,2078,2035,2051,2033,2022,2026
2021,2055,2104,2051,2061,2041,2053,2032
2031,2062,2109,2051,2069,2040,2060,2047
2034,2049,2098,2036,2057,2044,2053,2041
2032,2046,2066,2024,2061,2043,2049,2058
2044,2038,2057,2029,2062,2042,2052,2081
2063,2043,2085,2063,2085,2053,2054,2101
2083,2061,2104,2083,2103,2063,2050,2092
2066,2054,2086,2091,2096,2059,2044,2072
2048,2032,2081,2092,2095,2057,2036,2079
2055,2054,2093,2098,2099,2069,2059,2086
2054,2048,2078,2095,2094,2061,2059,2073
2034,2037,2067,2091,2090,2061,2061,2055
2020,2033,2055,2085,2092,2060,2030,2057
2040,2051,2053,2096,2106,2056,2029,2065
2055,2065,2038,2100,2102,2064,2042,2043
2059,2064,2024,2096,2094,2066,2053,2041
2055,2058,2003,2093,2094,2060,2043,2030
2049,2043,1981,2091,2078,2054,2048,2032
2048,2030,1978,2082,2063,2042,2040,2011
2032,2019,1966,2054,2029,2016,2024,1992
2012,1997,1960,2026,2011,1995,1990,1993
2017,2001,1998,2031,2018,2010,2021,1996
2022,2016,2065,2041,2026,2010,2012,1991
2014,2000,2052,2019,2031,2015,2008,1990
2018,2008,2055,2031,2054,2038,2016,1992
2044,2039,2106,2093,2085,2053,2052,2005
2061,2061,2130,2124,2081,2060,2043,2005
2057,2052,2136,2133,2082,2060,2055,2015
2049,2056,2128,2142,2083,2066,2062,2016
2054,2067,2119,2154,2089,2075,2069,2022
2060,2079,2122,2177,2101,2085,2072,2032
2069,2081,2075,2188,2105,2088,2073,2039
2072,2058,2017,2186,2100,2084,2070,2051
2067,2035,1944,2166,2091,2068,2081,2038
2052,2011,1885,2139,2069,2059,2045,2042
2037,1985,1838,2116,2066,2042,2006,2042
2023,1961,1792,2087,2056,2037,2019,2044
2018,1960,1778,2062,2064,2040,2043,2046
2023,1983,1801,2040,2058,2037,2037,2051
2025,1994,1848,1997,2035,2028,2015,2058
2042,2026,1892,1970,2049,2038,2037,2080
2067,2046,1937,1950,2064,2053,2054,2076
2067,2053,1958,1944,2072,2057,2050,2083
2070,2065,1984,1937,2054,2044,2034,2062
2063,2061,2004,1936,2042,2044,2034,2049
2059,2060,2036,1955,2059,2056,2050,2039
2064,2064,2072,1991,2061,2036,2033,2028
2040,2069,2114,1999,2054,2028,2024,2031
2048,2078,2146,2018,2046,2015,2013,2026
2034,2069,2139,2007,2037,2012,2016,2021
2026,2060,2147,2005,2031,2015,2023,2026
2031,2076,2166,2020,2047,2026,2012,2022
2032,2092,2190,2039,2053,2041,2040,2022
2049,2114,2216,2057,2072,2046,2028,2023
2065,2129,2225,2054,2073,2051,2041,2020
2061,2112,2183,2038,2060,2045,2029,2014
2057,2096,2153,2034,2061,2046,2031,2011
2052,2086,2141,2045,2076,2055,2049,2022
2052,2087,2155,2066,2058,2056,2040,2026
2046,2084,2157,2073,2056,2053,2046,2036
2052,2077,2146,2083,2070,2054,2053,2031
2054,2066,2128,2076,2045,2056,2054,2037
2058,2062,2110,2072,2036,2051,2057,2051
2057,2053,2098,2070,2037,2038,2056,2048
2050,2058,2097,2066,2048,2040,2046,2044
2052,2072,2111,2076,2070,2050,2056,2031
2032,2067,2107,2072,2059,2054,2031,2033
2038,2069,2104,2068,2067,2057,2053,2049
2044,2066,2104,2076,2049,2060,2053,2063
2043,2064,2092,2072,2030,2057,2038,2061
2041,2055,2082,2057,2025,2036,2030,2065
2035,2054,2063,2063,2050,2009,2032,2075
2036,2038,2051,2075,2076,2016,2034,2071
2041,2039,2049,2075,2083,2030,2050,2074
2054,2054,2049,2063,2078,2041,2036,2072
2059,2046,2041,2053,2072,2045,2031,2074
2049,2046,2041,2052,2070,2044,2044,2071
2047,2061,2057,2062,2074,2047,2061,2064
2040,2056,2081,2083,2077,2049,2062,2051
2041,2064,2113,2104,2076,2057,2074,2053
2052,2075,2126,2118,2079,2055,2061,2048
2056,2078,2125,2111,2077,2053,2051,2032
2056,2073,2118,2105,2086,2046,2073,2034
2064,2074,2111,2107,2076,2042,2055,2031
2057,2069,2103,2095,2075,2044,2038,2019
2054,2059,2091,2097,2075,2039,2058,2017
2057,2058,2077,2099,2076,2031,2041,2020
2056,2046,2052,2096,2066,2020,2032,2011
2054,2034,2047,2107,2067,2028,2030,2009
2057,2036,2047,2102,2075,2038,2054,2014
2053,2036,2039,2108,2079,2047,2038,2006
2049,2040,2044,2109,2086,2043,2036,2016
2036,2040,2023,2101,2084,2042,2031,2018
2041,2034,2008,2092,2086,2044,2053,2017
2049,2029,1989,2072,2081,2043,2054,2031
2043,2019,1955,2067,2078,2036,2047,2027
2034,2022,1953,2089,2090,2054,2055,2035
2032,2036,1984,2123,2105,2066,2063,2057
2038,2041,2000,2130,2114,2063,2064,2069
2031,2044,2002,2130,2111,2063,2062,2073
2032,2037,1985,2124,2106,2064,2044,2072
2028,2033,1974,2114,2101,2059,2034,2072
2025,2029,1967,2086,2093,2058,2062,2075
2021,2023,1960,2055,2080,2040,2053,2074
2011,2013,1953,2040,2072,2030,2044,2075
2023,2023,1981,2043,2069,2037,2051,2088
2045,2056,2007,2031,2055,2036,2049,2095
2055,2068,2014,2001,2032,2023,2048,2092
2049,2063,2015,1986,2025,2025,2046,2086
2051,2072,2030,1993,2030,2045,2059,2074
2057,2086,2085,2007,2036,2053,2057,2071
2056,2082,2073,1982,2032,2053,2064,2067
2052,2065,2058,1967,2025,2048,2074,2062
2057,2052,2044,1960,2017,2047,2066,2052
2057,2060,2064,1988,2034,2056,2081,2052
2069,2072,2072,2009,2052,2061,2059,2040
2068,2064,2064,2017,2055,2056,2054,2031
2056,2052,2047,2015,2052,2051,2037,2028
2046,2052,2033,2022,2049,2040,2044,2024
2040,2040,2015,2017,2046,2037,2041,2011
2027,2021,1976,2005,2034,2033,2043,2003
2029,2013,1942,2009,2041,2043,2044,2013
2045,2018,1946,2030,2068,2056,2061,2032
2042,2013,1939,2057,2087,2063,2048,2016
2028,2003,1929,2048,2069,2066,2064,2012
2012,1998,1921,2039,2064,2069,2080,2022
2027,2011,1943,2050,2066,2076,2094,2038
2044,2028,1952,2056,2074,2077,2085,2033
2044,2032,1958,2052,2068,2069,2071,2035
2054,2047,1976,2049,2061,2066,2084,2058
2059,2045,1988,2026,2038,2052,2064,2069
2049,2034,1988,2012,2020,2055,2053,2070
2045,2045,2031,2025,2020,2055,2039,2065
2053,2064,2073,2036,2024,2059,2049,2079
2052,2068,2115,2036,2024,2064,2038,2097
2048,2071,2130,2043,2038,2048,2026,2094
2048,2081,2139,2043,2047,2021,2058,2100
2058,2089,2143,2052,2045,2036,2054,2105
2064,2093,2144,2063,2047,2038,2045,2104
2055,2076,2129,2062,2057,2033,2029,2096
2057,2066,2137,2053,2060,2017,2039,2082
2057,2068,2159,2059,2063,2014,2027,2078
2057,2077,2189,2074,2064,2024,2051,2071
2050,2088,2215,2081,2065,2025,2050,2067
2061,2097,2216,2094,2082,2033,2051,2055
2070,2100,2198,2109,2090,2044,2052,2054
2070,2091,2175,2116,2093,2046,2046,2051
2053,2088,2146,2101,2083,2045,2047,2042
2041,2080,2132,2094,2080,2049,2026,2041
2048,2080,2114,2097,2072,2052,2050,2042
2053,2092,2100,2097,2066,2051,2047,2031
2056,2084,2099,2093,2070,2040,2050,2027
2044,2075,2086,2074,2033,2042,2041,2013
2044,2072,2098,2059,1985,2071,2035,2012
2044,2066,2098,2034,1962,2090,2010,2007
2045,2060,2088,2020,1937,2063,2009,2005
2048,2057,2077,2008,1906,2033,2017,2009
2041,2051,2071,2004,1915,2008,2020,2030
2048,2054,2068,2031,1949,1946,2040,2052
2059,2063,2078,2063,1994,1941,2047,2063
2062,2065,2089,2077,2035,1994,2061,2064
2070,2066,2078,2103,2092,2056,2085,2073
2063,2050,2056,2108,2131,2090,2110,2079
2065,2037,2045,2108,2133,2124,2126,2094
2075,2052,2044,2108,2117,2118,2109,2098
2079,2052,2037,2089,2076,2083,2094,2088
2065,2045,2019,2073,2076,2071,2076,2067
2052,2034,2004,2066,2068,2049,2060,2064
2035,2018,2003,2060,2058,2040,2054,2070
2023,2012,2016,2068,2060,2032,2069,2078
2026,2030,2024,2067,2059,2027,2062,2081
2038,2038,2018,2079,2052,2024,2057,2080
2050,2040,2018,2080,2047,2030,2066,2075
2052,2059,2022,2094,2049,2038,2056,2074
2055,2058,2009,2090,2049,2018,2047,2058
2044,2035,1994,2080,2064,2027,2048,2049
2045,2037,1993,2081,2080,2039,2058,2036
2043,2026,2005,2087,2067,2032,2050,2033
2044,2034,2039,2108,2070,2040,2037,2033
2057,2046,2072,2131,2089,2046,2038,2035
2056,2064,2085,2138,2088,2049,2039,2027
2056,2056,2061,2116,2087,2051,2053,2021
2054,2049,2036,2085,2077,2054,2067,2013
2055,2033,2005,2055,2068,2057,2063,2006
2034,2019,1987,2039,2067,2045,2063,1997
2029,2028,2002,2031,2056,2044,2068,2015
2038,2053,2034,2040,2060,2047,2072,2022
2048,2059,2052,2044,2059,2043,2064,2026
2050,2060,2062,2043,2056,2035,2050,2020
2041,2050,2046,2009,2022,2017,2052,2023
2043,2033,2018,1958,1988,2014,2050,2038
2043,2052,2052,1942,1974,2020,2050,2048
2040,2070,2092,1947,1963,2021,2049,2054
2049,2093,2108,1965,1972,2020,2060,2068
2064,2090,2088,1970,1976,2041,2069,2086
2083,2093,2086,2000,1998,2043,2065,2102
2089,2102,2089,2027,2032,2048,2058,2097
2089,2097,2105,2051,2058,2049,2066,2101
2085,2095,2102,2055,2061,2040,2059,2089
2068,2065,2081,2046,2057,2037,2044,2078
2062,2050,2066,2044,2055,2024,2030,2080
2043,2048,2056,2045,2078,2026,2033,2084
2024,2055,2065,2057,2102,2047,2053,2097
2027,2074,2080,2073,2095,2067,2039,2103
2047,2086,2083,2072,2070,2069,2072,2095
2055,2083,2081,2070,2053,2058,2057,2086
2066,2084,2084,2069,2045,2048,2061,2076
2062,2077,2073,2068,2056,2046,2057,2075
2061,2072,2070,2075,2062,2051,2050,2070
2062,2069,2064,2071,2049,2045,2036,2061
2063,2065,2068,2068,2046,2045,2037,2049
2052,2063,2082,2074,2039,2054,2036,2034
2038,2069,2093,2075,2061,2082,2060,2033
2052,2078,2090,2073,2064,2096,2061,2034
2055,2069,2076,2053,2064,2101,2062,2029
2052,2057,2061,2034,2041,2094,2074,2022
2045,2042,2042,2016,2030,2083,2052,2014
2038,2035,2034,2024,2039,2039,2038,2008
2039,2044,2053,2047,2057,2025,2034,2011
2045,2045,2050,2059,2060,2041,2028,2019
2048,2038,2038,2056,2061,2064,2052,2022
2043,2046,2049,2065,2054,2070,2042,2031
2060,2072,2063,2060,2041,2056,2065,2037
2063,2066,2065,2051,2039,2048,2059,2037
2062,2066,2065,2045,2038,2049,2067,2042
2060,2065,2064,2032,2035,2044,2070,2046
2054,2065,2067,2032,2055,2041,2067,2059
2062,2063,2053,2025,2074,2026,2057,2067
2052,2052,2040,2038,2087,2013,2056,2074
2050,2054,2049,2056,2088,2014,2063,2074
2042,2052,2056,2061,2093,2015,2064,2075
2052,2057,2058,2060,2084,2026,2062,2090
2050,2052,2044,2057,2064,2022,2035,2084
2043,2045,2034,2054,2030,2029,2045,2083
2045,2047,2036,2063,1975,2044,2043,2087
2050,2050,2040,2062,1930,2033,2044,2077
2047,2052,2038,2054,1977,2044,2022,2076
2058,2062,2043,2072,2035,2050,2052,2077
2071,2063,2041,2072,2035,2044,2048,2061
2071,2057,2030,2059,2013,2037,2042,2058
2060,2042,2020,2054,2026,2042,2059,2047
2054,2042,2025,2055,2041,2038,2059,2046
2046,2051,2016,2043,2042,2035,2040,2037
2050,2053,2012,2033,2056,2032,2059,2026
2054,2048,2022,2044,2057,2039,2043,2022
2054,2056,2034,2045,2044,2036,2052,2022
2048,2044,2039,2035,2024,2028,2041,2027
2046,2034,2022,2033,2019,2022,2035,2016
2047,2028,2016,2021,2016,2025,2018,2006
2046,2033,2028,2031,2024,2032,2020,2011
2049,2043,2042,2041,2036,2043,2038,2020
2055,2042,2036,2043,2043,2041,2042,2022
2054,2034,2024,2040,2042,2040,2035,2027
2047,2035,2032,2049,2040,2043,2056,2026
2062,2058,2058,2063,2057,2054,2057,2027
2063,2068,2058,2068,2048,2055,2067,2035
2060,2060,2065,2056,2036,2051,2050,2040
2056,2054,2062,2052,2039,2044,2054,2041
2049,2049,2069,2050,2040,2045,2051,2054
2058,2053,2068,2036,2036,2038,2055,2063
2062,2051,2070,2020,2033,2041,2077,2069
2061,2064,2095,2020,2041,2046,2080,2083
2062,2073,2089,2024,2045,2047,2076,2090
2066,2073,2087,2039,2046,2053,2078,2101
2063,2073,2057,2038,2044,2047,2057,2100
2060,2052,2029,2053,2048,2046,2054,2091
2053,2044,2026,2060,2049,2054,2056,2094
2058,2047,2016,2055,2049,2051,2046,2086
2054,2050,2015,2045,2039,2053,2079,2080
2052,2047,2005,2042,2029,2050,2078,2080
2067,2042,2004,2039,2026,2048,2075,2074
2061,2041,2002,2027,2015,2043,2067,2064
2054,2041,2010,2032,2020,2039,2070,2042
2050,2043,2033,2040,2020,2040,2071,2035
2045,2053,2053,2043,2024,2043,2075,2036
2056,2060,2073,2050,2020,2035,2076,2023
2058,2053,2067,2040,2014,2026,2064,2020
2046,2042,2049,2023,1990,2014,2033,2019
2044,2037,2055,2026,2002,2021,2038,2017
2046,2057,2104,2054,2026,2036,2050,2024
2061,2082,2140,2078,2034,2039,2069,2024
2063,2076,2141,2078,2036,2037,2066,2022
2057,2056,2113,2069,2034,2036,2060,2021
2053,2061,2086,2059,2037,2043,2073,2023
2044,2056,2072,2054,2031,2041,2075,2014
2046,2054,2061,2053,2039,2045,2086,2026
2062,2069,2067,2060,2034,2047,2075,2040
2068,2062,2050,2046,2022,2038,2056,2043
2069,2060,2059,2044,2016,2032,2041,2041
2072,2069,2072,2055,2019,2038,2051,2051
2078,2085,2093,2063,2032,2056,2072,2056
2076,2094,2102,2069,2032,2049,2075,2063
2065,2077,2083,2060,2027,2046,2062,2066
2057,2066,2080,2067,2022,2040,2062,2077
2058,2064,2072,2067,2016,2034,2061,2091
2064,2070,2092,2072,2006,2037,2031,2097
2058,2075,2098,2067,1997,2030,2040,2092
2055,2064,2102,2070,2000,2031,2041,2089
2054,2073,2110,2082,2032,2043,2042,2094
2061,2080,2117,2096,2034,2051,2042,2088
2054,2074,2108,2090,2024,2057,2052,2088
2056,2064,2087,2083,2022,2057,2035,2091
2058,2057,2068,2082,2031,2050,2031,2073
2062,2057,2057,2086,2035,2046,2037,2063
2068,2056,2058,2099,2052,2053,2023,2052
2066,2058,2041,2098,2070,2051,2046,2038
2072,2060,2031,2092,2074,2062,2053,2049
2078,2061,2016,2096,2065,2064,2062,2046
2075,2057,1997,2080,2042,2036,2056,2028
2050,2038,1993,2064,2017,2020,2040,2023
2041,2033,1986,2052,2030,2029,2064,2025
2040,2031,1965,2031,2028,2044,2044,2025
2024,2021,1938,2011,2020,2030,2036,2015
2020,2015,1945,2001,1999,2030,2027,2010
2020,2029,1979,2007,1986,2025,2052,2006
2042,2055,2013,2012,1984,2030,2060,2027
2059,2064,2026,2000,1970,2037,2057,2037
2054,2056,2030,1996,1958,2045,2053,2027
2043,2046,2036,2001,1974,2060,2054,2029
2045,2047,2055,2028,2016,2080,2051,2043
2057,2056,2067,2054,2034,2066,2071,2057
2058,2062,2071,2059,2058,2054,2079,2065
2064,2061,2071,2060,2077,2068,2106,2082
2066,2058,2066,2052,2079,2084,2083,2085
2071,2070,2077,2050,2086,2097,2092,2097
2072,2084,2095,2054,2082,2098,2069,2107
2071,2080,2089,2041,2059,2083,2093,2111
2063,2067,2062,2034,2048,2072,2097,2111
2058,2062,2058,2035,2034,2077,2079,2109
2059,2067,2072,2042,2032,2074,2073,2100
2050,2066,2085,2052,2025,2052,2057,2097
2057,2069,2078,2050,2020,2044,2051,2105
2052,2068,2071,2054,2018,2011,2066,2102
2060,2067,2061,2065,2022,1990,2043,2096
2057,2068,2071,2076,2028,2000,2035,2086
2050,2062,2086,2087,2035,2026,2041,2073
2054,2066,2091,2095,2042,2035,2043,2069
2062,2073,2089,2090,2040,2034,2045,2061
2061,2068,2083,2082,2032,2019,2037,2060
2054,2059,2064,2072,2024,2015,2038,2054
2050,2058,2059,2069,2032,2021,2032,2042
2054,2065,2062,2072,2031,2031,2045,2053
2060,2076,2066,2069,2037,2041,2061,2048
2062,2069,2053,2064,2032,2037,2050,2034
2063,2064,2052,2060,2049,2030,2027,2032
2056,2062,2049,2057,2045,2032,2018,2017
2051,2051,2028,2044,2045,2020,2015,2012
2048,2046,2032,2033,2023,2024,2032,2029
2052,2051,2030,2027,2005,2024,2022,2032
2052,2050,2026,2010,1997,2015,2012,2025
2048,2050,2024,2007,1997,2016,2005,2028
2046,2058,2035,2027,2037,2050,2032,2038
2061,2065,2049,2052,2063,2073,2033,2049
2064,2068,2045,2054,2059,2082,2058,2060
2059,2063,2038,2042,2021,2090,2059,2064
2064,2053,2029,2028,2013,2085,2056,2067
2062,2049,2021,2012,2020,2080,2051,2077
2060,2045,2017,2006,2019,2074,2042,2078
2053,2042,2023,2011,2022,2070,2057,2089
2061,2063,2045,2025,2020,2073,2054,2100
2059,2063,2039,2023,2016,2066,2045,2105
2054,2055,2031,2028,2007,2020,2050,2106
2051,2040,2016,2012,1989,2004,2044,2102
2042,2034,2004,2016,1978,2006,2046,2108
2048,2044,2006,2014,1987,2015,2048,2105
2044,2043,2024,2024,2002,2024,2049,2102
2053,2051,2037,2039,1998,2025,2021,2091
2061,2062,2048,2047,1993,2034,2025,2086
2060,2059,2046,2039,1993,2028,2028,2071
2061,2055,2032,2037,1995,2028,2032,2068
2057,2058,2040,2035,2005,2036,2032,2068
2064,2061,2047,2041,2012,2041,2042,2060
2058,2062,2046,2041,2009,2037,2061,2054
2052,2055,2040,2037,2000,2030,2049,2046
2042,2046,2034,2030,1994,2027,2053,2047
2045,2049,2031,2034,2002,2033,2055,2044
2060,2057,2040,2042,2026,2045,2059,2045
2073,2062,2047,2043,2032,2039,2038,2041
2060,2040,2033,2041,2030,2024,2036,2027
2037,2038,2031,2039,2012,2016,2032,2026
2038,2049,2034,2038,2015,2022,2042,2037
2048,2045,2033,2038,2028,2028,2040,2034
2046,2053,2049,2056,2052,2040,2028,2038
2052,2062,2062,2074,2098,2061,2054,2047
2049,2065,2057,2071,2086,2056,2057,2053
2056,2070,2055,2073,2069,2057,2061,2055
2055,2072,2061,2068,2056,2051,2050,2062
2060,2070,2063,2070,2046,2047,2033,2066
2048,2068,2064,2072,2050,2046,2056,2076
2051,2071,2057,2077,2058,2052,2056,2088
2056,2065,2058,2068,2049,2054,2060,2099
2053,2065,2058,2067,2052,2051,2054,2100
2058,2065,2066,2069,2053,2049,2046,2109
2059,2063,2064,2059,2043,2044,2029,2110
2052,2052,2061,2054,2039,2055,2045,2099
2049,2052,2058,2046,2036,2050,2035,2096
2047,2057,2057,2041,2032,2045,2041,2100
2046,2054,2047,2030,2025,2039,2063,2107
2053,2055,2038,2031,2031,2041,2054,2094
2055,2056,2033,2033,2028,2037,2045,2088
2061,2063,2043,2047,2032,2034,2040,2082
2061,2070,2055,2052,2036,2033,2029,2076
2060,2073,2043,2045,2042,2034,2039,2065
2054,2055,2032,2036,2013,2035,2029,2052
2050,2051,2029,2028,2001,2033,2058,2048
2051,2054,2036,2036,2005,2040,2057,2044
2052,2062,2041,2040,2031,2045,2057,2048
2061,2062,2047,2044,2031,2043,2044,2041
2065,2054,2041,2044,2038,2044,2048,2044
2057,2040,2028,2039,2030,2057,2048,2033
2054,2036,2025,2043,2039,2074,2044,2025
2056,2039,2040,2049,2095,2085,2054,2022
2059,2046,2037,2052,2090,2071,2061,2029
2051,2038,2033,2054,2084,2067,2055,2032
2044,2040,2040,2056,2075,2057,2065,2034
2053,2050,2049,2073,2082,2048,2061,2050
2060,2052,2043,2068,2072,2042,2056,2056
2054,2050,2033,2061,2058,2048,2047,2049
2047,2046,2026,2051,2028,2034,2040,2046
2043,2044,2020,2046,2000,2031,2040,2054
2048,2043,2018,2038,1925,2028,2043,2062
2046,2034,1999,2019,1894,2038,2048,2078
2042,2025,1998,2023,1940,2054,2058,2087
2051,2040,2003,2033,2008,2059,2059,2084
2049,2041,2001,2034,2045,2059,2062,2090
2052,2042,1992,2025,2050,2053,2040,2088
2039,2040,1994,2032,2052,2051,2042,2088
2047,2042,2000,2040,2048,2053,2054,2088
2049,2046,1996,2047,2042,2057,2045,2091
2059,2057,1999,2041,2041,2053,2049,2089
2061,2056,1997,2048,2073,2053,2056,2086
2064,2064,2001,2047,2052,2047,2056,2081
2057,2058,2010,2024,2020,2030,2040,2065
2054,2053,2020,2003,2003,2026,2038,2054
2053,2056,2046,2004,2004,2030,2051,2050
2056,2054,2062,2018,2023,2042,2057,2048
2049,2047,2057,2028,2037,2042,2051,2052
2044,2044,2054,2034,2075,2046,2062,2046
2050,2048,2063,2049,2073,2051,2058,2040
2058,2049,2075,2052,2067,2048,2055,2035
2054,2058,2090,2054,2061,2057,2037,2030
2057,2053,2100,2060,2067,2062,2038,2038
2058,2053,2085,2055,2058,2058,2056,2042
2056,2054,2077,2048,2044,2065,2061,2042
2064,2045,2062,2030,2012,2049,2056,2041
2065,2050,2056,2038,2027,2060,2064,2047
2063,2066,2081,2049,2044,2059,2059,2054
2056,2077,2081,2027,1953,2048,2063,2058
2057,2080,2074,2024,1939,2054,2062,2057
2053,2072,2066,2026,1946,2062,2056,2058
2041,2062,2064,2031,2022,2072,2058,2065
2046,2063,2063,2049,2100,2077,2064,2069
2046,2062,2060,2063,2113,2090,2064,2084
2063,2060,2055,2064,2110,2100,2070,2094
2053,2055,2049,2053,2090,2108,2071,2097
2044,2044,2047,2052,2079,2118,2064,2102
2049,2044,2042,2050,2061,2119,2065,2113
2052,2041,2035,2029,2039,2092,2054,2108
2039,2041,2027,2032,2035,2075,2055,2101
2043,2049,2022,2040,2033,2045,2029,2100
2049,2049,2018,2045,2035,2011,2037,2108
2052,2039,2015,2033,2038,2032,2019,2094
2058,2039,2016,2030,2031,2045,2026,2085
2046,2036,2018,2029,2033,2040,2038,2071
2046,2044,2026,2037,2027,2034,2047,2065
2054,2046,2034,2051,2036,2027,2057,2068
2065,2043,2038,2051,2019,2002,2047,2055
2064,2040,2033,2045,2026,1994,2048,2044
2044,2030,2030,2037,2026,1992,2044,2037
2045,2025,2015,2032,2010,2000,2033,2032
2042,2011,1996,2027,1992,2005,2020,2022
2025,1994,1998,2031,1988,2019,2018,2007
2016,2008,2017,2045,2008,2024,2020,2006
2019,2030,2025,2057,2013,2034,2030,2018
2039,2047,2030,2064,2026,2051,2041,2024
2051,2051,2033,2069,2041,2058,2052,2031
2046,2043,2025,2066,2035,2050,2062,2029
2041,2043,2031,2054,2029,2042,2041,2026
2031,2040,2036,2051,2020,2032,2044,2024
2043,2040,2046,2048,2025,2039,2056,2030
2049,2042,2050,2051,2039,2033,2040,2032
2046,2039,2053,2049,2041,2029,2033,2046
2053,2047,2059,2044,2037,2036,2038,2061
2057,2061,2054,2039,2042,2032,2037,2076
2061,2052,2038,2022,2032,2027,2039,2074
2049,2041,2018,2010,2015,2013,2043,2086
2047,2042,2031,2024,1992,1997,2040,2100
2049,2056,2059,2035,1975,1991,2049,2113
2059,2073,2085,2040,1958,1981,2043,2109
2050,2059,2068,2015,1959,1987,2033,2110
2047,2055,2050,2012,1986,2022,2037,2109
2057,2063,2041,2046,2050,2054,2052,2113
2064,2062,2039,2068,2078,2069,2059,2109
2056,2060,2026,2043,2049,2054,2040,2087
2056,2052,2005,2028,2027,2056,2043,2075
2052,2051,2001,2020,1995,2054,2044,2082
2049,2052,2004,2021,1996,2067,2073,2079
2053,2062,2011,2019,2029,2082,2077,2076
2062,2065,2029,2017,2028,2078,2076,2068
2062,2071,2054,2020,2017,2066,2068,2050
2060,2081,2084,2021,2037,2077,2065,2058
2063,2085,2089,2019,2022,2076,2041,2062
2068,2080,2094,2018,2006,2069,2062,2059
2063,2076,2092,2012,1997,2052,2071,2051
2061,2072,2085,2001,1953,2043,2047,2036
2050,2056,2079,1999,1955,2044,2054,2032
2051,2058,2072,2007,1975,2046,2059,2036
2055,2059,2060,2008,2000,2057,2052,2039
2053,2059,2047,2020,2045,2054,2058,2047
2055,2060,2044,2039,2081,2031,2051,2058
2062,2058,2046,2050,2092,2040,2040,2054
2063,2055,2037,2056,2068,2036,2036,2058
2056,2047,2034,2056,2034,2018,2053,2064
2053,2047,2028,2044,2011,2005,2053,2072
2054,2045,2025,2049,2018,2017,2038,2073
2049,2036,2037,2054,2022,2039,2050,2066
2046,2032,2045,2060,2060,2059,2056,2074
2038,2048,2062,2083,2090,2079,2059,2079
2045,2050,2063,2082,2081,2084,2066,2092
2049,2040,2050,2070,2050,2069,2034,2093
2042,2032,2034,2058,2038,2053,2019,2090
2029,2016,2010,2043,2043,2025,2021,2092
2030,2016,1996,2036,2059,2001,2035,2105
2051,2028,2006,2048,2081,1995,2040,2099
2050,2032,2002,2041,2142,2019,2036,2096
2046,2031,2013,2042,2158,2043,2041,2089
2049,2050,2054,2053,2144,2053,2058,2081
2047,2067,2080,2043,2101,2061,2054,2087
2056,2069,2080,2023,2055,2045,2060,2076
2047,2064,2074,2017,2016,2040,2047,2065
2046,2060,2064,2001,1936,2032,2055,2059
2047,2064,2050,1988,1945,2042,2046,2051
2050,2075,2053,2008,2014,2065,2051,2050
2055,2077,2062,2038,2056,2068,2051,2044
2056,2074,2070,2043,2067,2068,2049,2039
2055,2070,2070,2050,2072,2073,2065,2039
2056,2068,2064,2048,2051,2085,2056,2035
2058,2066,2063,2037,2012,2080,2064,2033
2045,2052,2054,2030,1988,2060,2058,2030
2040,2049,2045,2020,1950,2041,2040,2031
2048,2046,2040,2015,1937,2009,2030,2041
2057,2056,2047,2041,1976,1997,2058,2049
2063,2064,2061,2053,2017,2015,2065,2057
2060,2067,2068,2057,2032,2040,2077,2057
2066,2064,2056,2049,2028,2060,2087,2058
2061,2069,2055,2043,2018,2070,2079,2067
2059,2065,2047,2031,2023,2069,2063,2073
2056,2056,2033,2021,2022,2057,2050,2068
2043,2049,2028,2025,2022,2044,2039,2071
2050,2043,2044,2036,2041,2047,2053,2083
2056,2065,2061,2051,2073,2061,2061,2088
2063,2062,2064,2049,2058,2076,2051,2085
2051,2051,2056,2048,2059,2089,2047,2090
2036,2035,2030,2044,2079,2070,2032,2078
2029,2025,2023,2046,2080,2054,2031,2086
2037,2041,2035,2054,2070,2059,2051,2092
2039,2049,2041,2053,2069,2056,2037,2084
2041,2049,2050,2053,2070,2049,2037,2081
2035,2050,2045,2051,2079,2047,2044,2077
2041,2049,2039,2050,2079,2039,2042,2070
2045,2048,2032,2042,2057,2046,2042,2066
2050,2042,2035,2061,2054,2039,2028,2056
2054,2037,2043,2066,2046,2021,2034,2033
2043,2024,2040,2062,2038,2010,2029,2034
2041,2014,2022,2056,2053,2009,2029,2036
2037,2006,2021,2051,2066,2021,2032,2033
2043,2016,2019,2062,2078,2028,2028,2025
2049,2030,2017,2080,2085,2041,2022,2006
2040,2035,2008,2090,2125,2045,2027,2002
2031,2030,1993,2086,2139,2043,2028,1989
2021,2028,1995,2087,2138,2045,2026,2013
2028,2032,2001,2090,2131,2047,2034,2021
2029,2049,2000,2080,2128,2041,2036,2020
2030,2054,2003,2065,2025,2043,2033,2028
2048,2061,2000,2038,1966,2036,2051,2030
2042,2047,1998,2032,1992,2045,2054,2040
2039,2034,2000,2038,2006,2062,2059,2050
2052,2044,2027,2045,2029,2086,2076,2064
2069,2061,2056,2046,2014,2088,2074,2068
2070,2066,2078,2040,2012,2087,2069,2070
2053,2063,2078,2041,2009,2079,2078,2084
2049,2061,2079,2040,1994,2077,2081,2088
2062,2066,2092,2044,1967,2068,2069,2098
2063,2065,2088,2047,2004,2055,2057,2102
2057,2057,2083,2034,2005,2060,2041,2104
2053,2050,2074,2026,2001,2072,2032,2091
2040,2036,2069,2029,1993,2081,2046,2083
2039,2049,2079,2034,2011,2072,2020,2089
2049,2057,2091,2041,2023,2064,2019,2091
2054,2068,2105,2057,2024,2032,2047,2098
2054,2067,2103,2074,2051,2002,2041,2088
2045,2062,2095,2072,2081,2029,2038,2078
2039,2060,2094,2077,2121,2066,2053,2070
2063,2067,2094,2082,2147,2076,2079,2075
2070,2069,2091,2078,2100,2044,2068,2068
2071,2063,2077,2062,1999,2020,2042,2055
2060,2054,2074,2072,1938,2017,2038,2041
2053,2050,2080,2082,1933,2028,2058,2032
2053,2053,2087,2086,1942,2034,2031,2028
2053,2058,2084,2091,2001,2040,2046,2032
2057,2053,2068,2092,2023,2036,2040,2033
2060,2051,2070,2088,2021,2035,2028,2024
2055,2056,2069,2090,2044,2051,2031,2018
2052,2058,2065,2073,2048,2060,2057,2018
2053,2056,2046,2050,2051,2066,2058,2016
2050,2041,2021,2024,2045,2072,2042,2022
2047,2033,2008,2005,2032,2070,2037,2022
2044,2039,2007,1998,2045,2066,2031,2023
2038,2041,2009,2014,2069,2086,2034,2026
2044,2043,2019,2026,2066,2088,2065,2032
2038,2037,2016,2033,2063,2084,2051,2039
2040,2038,2028,2026,2068,2081,2074,2057
2040,2052,2037,2034,2055,2068,2055,2072
2045,2049,2030,2022,2024,2056,2050,2074
2042,2035,2017,2007,2016,2057,2044,2079
2047,2036,2028,2019,2020,2068,2039,2081
2046,2040,2018,2009,2010,2060,2042,2082
2040,2034,2013,2006,2019,2059,2028,2085
2042,2023,2004,2011,2026,2012,2022,2089
2041,2022,2004,2017,2025,2005,2014,2089
2042,2024,2013,2023,2026,2017,2040,2092
2036,2028,2016,2015,2017,2030,2029,2092
2050,2035,2032,2021,2009,2028,2045,2094
2065,2064,2059,2029,2003,2026,2027,2088
2063,2076,2065,2033,2000,2034,2036,2073
2059,2070,2050,2033,1999,2035,2037,2062
2061,2054,2038,2043,2022,2034,2038,2045
2055,2048,2037,2043,2035,2037,2029,2038
2050,2045,2022,2042,2034,2040,2036,2036
2046,2049,2020,2044,2030,2043,2045,2032
2054,2053,2025,2050,2034,2044,2047,2027
2048,2054,2027,2049,2049,2048,2026,2019
2042,2053,2023,2047,2063,2048,2031,2022
2036,2048,2014,2043,2064,2046,2047,2016
2041,2041,2016,2034,2043,2033,2035,2010
2036,2024,2016,2020,2018,2031,2023,2008
2036,2028,2031,2024,2015,2038,2048,2018
2043,2041,2046,2025,2012,2043,2044,2021
2042,2039,2036,2012,2015,2045,2033,2029
2049,2041,2052,2026,2015,2048,2029,2038
2060,2065,2099,2044,2012,2054,2042,2042
2070,2075,2116,2062,2036,2062,2055,2045
2066,2070,2107,2062,2059,2063,2058,2046
2066,2063,2098,2059,2078,2059,2056,2047
2067,2052,2091,2063,2088,2064,2069,2048
2057,2048,2079,2056,2069,2055,2067,2054
2045,2042,2068,2051,2050,2043,2075,2059
2038,2044,2079,2054,2045,2037,2060,2075
2052,2060,2087,2059,2043,2042,2058,2072
2057,2066,2088,2056,2041,2044,2053,2073
2054,2060,2087,2063,2030,2034,2049,2081
2050,2043,2067,2056,2017,2013,2037,2084
2043,2034,2063,2060,2003,2013,2016,2093
2056,2057,2073,2072,2001,2010,2034,2089
2059,2059,2077,2069,1983,2003,2036,2089
2054,2051,2064,2056,1969,2005,2050,2074
2039,2037,2050,2057,1987,2020,2050,2073
2042,2035,2051,2068,2004,2040,2052,2065
2046,2038,2046,2057,2005,2054,2054,2051
2046,2035,2036,2057,2032,2070,2052,2044
2046,2037,2035,2071,2081,2070,2065,2040
2043,2040,2039,2075,2116,2077,2061,2042
2045,2044,2058,2069,2131,2081,2047,2035
2050,2044,2044,2052,2116,2069,2056,2024
2044,2038,2042,2051,2108,2063,2066,2019
2050,2046,2059,2055,2106,2058,2054,2023
2050,2053,2057,2056,2089,2062,2053,2026
2054,2042,2046,2049,2093,2065,2044,2020
2040,2030,2027,2045,2103,2072,2046,2021
2045,2031,2021,2046,2049,2062,2052,2026
2051,2034,2022,2029,1935,2038,2036,2015
2049,2036,2040,2027,1952,2035,2050,2013
2048,2043,2056,2040,2017,2038,2048,2014
2045,2041,2063,2038,2029,2043,2032,2022
2034,2039,2071,2034,2037,2045,2012,2028
2034,2044,2086,2046,2050,2045,2027,2032
2039,2048,2098,2053,2069,2053,2036,2044
2043,2053,2084,2049,2069,2055,2054,2059
2055,2061,2074,2047,2060,2054,2055,2075
2063,2061,2068,2052,2057,2056,2064,2084
2063,2064,2067,2053,2058,2061,2051,2093
2064,2052,2059,2047,2050,2057,2064,2090
2057,2054,2058,2047,2050,2058,2059,2085
2054,2048,2060,2045,2040,2056,2053,2085
2053,2039,2052,2047,2047,2060,2056,2094
2042,2036,2047,2046,2052,2062,2078,2091
2042,2037,2042,2042,2047,2058,2054,2088
2037,2024,2025,2038,2036,2054,2033,2082
2043,2029,2021,2038,2034,2050,2024,2078
2042,2029,2025,2035,2038,2054,2025,2056
2034,2032,2041,2046,2046,2063,2024,2052
2038,2043,2046,2057,2046,2062,2032,2055
2034,2039,2034,2054,2048,2069,2053,2048
2021,2023,2025,2040,2041,2079,2048,2034
2023,2024,2012,2033,2030,2088,2043,2042
2041,2034,2022,2039,2034,2094,2047,2038
2052,2055,2047,2052,2033,2094,2044,2029
2045,2059,2057,2051,2041,2066,2044,2029
2044,2054,2060,2061,2062,2042,2062,2029
2039,2054,2060,2069,2076,2061,2066,2030
2044,2054,2053,2061,2056,2062,2076,2032
2042,2046,2044,2049,2038,2057,2062,2029
2048,2037,2041,2045,2033,2055,2066,2025
2054,2053,2055,2047,2037,2057,2062,2030
2054,2058,2059,2053,2036,2060,2062,2039
2059,2059,2067,2055,2029,2071,2041,2041
2054,2057,2063,2052,2009,2086,2045,2040
2047,2054,2068,2043,1987,2084,2033,2039
2043,2052,2066,2029,1988,2090,2021,2048
2041,2054,2077,2041,1996,2068,2019,2044
2048,2068,2092,2053,2018,2003,2016,2054
2066,2083,2101,2071,2068,1981,2022,2069
2065,2076,2091,2078,2106,2010,2042,2072
2054,2066,2079,2071,2096,2035,2023,2075
2049,2063,2066,2062,2089,2036,2041,2074
2051,2055,2064,2049,2060,2029,2042,2080
2050,2051,2058,2041,2063,2034,2040,2082
2041,2034,2039,2040,2064,2047,2034,2080
2041,2037,2035,2032,2063,2067,2059,2092
2052,2044,2039,2040,2072,2093,2065,2091
2050,2037,2038,2046,2067,2085,2066,2078
2041,2044,2041,2052,2072,2087,2062,2064
2039,2044,2050,2057,2076,2092,2072,2053
2036,2040,2042,2065,2074,2101,2058,2043
2025,2044,2039,2055,2063,2093,2059,2042
2022,2041,2036,2059,2060,2087,2070,2039
2025,2034,2029,2061,2061,2080,2061,2035
2029,2032,2026,2065,2065,2077,2053,2041
2048,2044,2033,2067,2055,2045,2057,2033
2053,2045,2026,2062,2047,2001,2047,2028
2052,2047,2030,2061,2045,1991,2046,2031
2053,2049,2038,2060,2037,1996,2040,2023
2052,2049,2053,2055,2024,2005,2036,2020
2050,2052,2060,2054,2013,2014,2032,2004
2046,2053,2069,2050,2025,2026,2016,2004
2050,2058,2078,2051,2040,2039,2028,2016
2051,2055,2070,2049,2044,2043,2031,2015
2045,2051,2070,2043,2046,2045,2024,2014
2031,2046,2066,2038,2051,2044,2044,2016
2033,2039,2069,2041,2051,2043,2053,2030
2040,2044,2053,2034,2045,2044,2059,2037
2043,2045,2056,2035,2043,2045,2045,2049
2047,2045,2053,2039,2042,2044,2048,2047
2043,2038,2055,2043,2035,2037,2044,2053
2029,2030,2057,2041,2038,2035,2040,2056
2037,2034,2056,2052,2040,2044,2054,2067
2044,2039,2054,2058,2046,2048,2051,2076
2042,2041,2058,2054,2039,2043,2040,2077
2043,2049,2068,2063,2037,2045,2061,2076
2041,2044,2064,2054,2035,2040,2065,2085
2042,2038,2060,2052,2037,2043,2051,2103
2048,2051,2061,2052,2036,2057,2056,2105
2051,2057,2057,2056,2036,2059,2069,2094
2051,2045,2047,2049,2038,2060,2080,2081
2039,2044,2040,2041,2024,2059,2076,2076
2042,2052,2036,2054,2049,2069,2081,2075
2052,2055,2035,2058,2082,2075,2078,2071
2053,2052,2028,2061,2074,2072,2052,2066
2058,2046,2023,2063,2083,2078,2049,2052
2058,2050,2024,2072,2070,2080,2038,2042
2049,2044,2021,2068,2061,2076,2064,2039
2059,2033,2021,2063,2061,2071,2052,2039
2067,2036,2026,2071,2058,2058,2052,2036
2058,2041,2034,2055,2030,2040,2045,2020
2050,2035,2026,2037,1982,2027,2035,2006
2048,2026,2019,2031,1983,2017,2028,1995
2040,2010,2015,2026,1991,2000,2027,1988
2035,2014,2018,2028,1999,2001,2032,1996
2037,2031,2035,2032,2001,2008,2030,1995
2033,2029,2024,2019,2017,2026,2021,2002
2027,2033,2037,2028,2025,2039,2043,2015
2031,2049,2064,2034,2028,2033,2054,2016
2037,2062,2086,2043,2026,2034,2055,2027
2041,2061,2084,2031,2032,2041,2051,2033
2044,2060,2059,2016,2037,2040,2039,2045
2042,2051,2039,2005,2046,2040,2045,2050
2043,2052,2047,2017,2064,2040,2035,2063
2049,2067,2072,2042,2081,2050,2059,2079
2056,2072,2086,2056,2091,2061,2055,2082
2058,2076,2083,2056,2086,2057,2068,2084
2060,2070,2076,2058,2072,2052,2058,2085
2057,2060,2072,2052,2065,2051,2070,2097
2048,2052,2055,2037,2052,2037,2054,2093
2046,2041,2062,2036,2038,2038,2054,2088
2041,2048,2065,2049,2048,2044,2063,2083
2046,2050,2056,2044,2057,2039,2060,2080
2044,2048,2052,2038,2060,2037,2067,2080
2048,2052,2046,2049,2087,2053,2068,2078
2049,2050,2048,2059,2096,2060,2079,2076
2055,2055,2051,2057,2084,2063,2083,2064
2053,2053,2053,2065,2076,2063,2080,2062
2054,2049,2060,2065,2076,2060,2086,2052
2051,2045,2046,2052,2071,2053,2068,2039
2047,2040,2045,2052,2062,2047,2070,2029
2047,2035,2056,2036,2039,2038,2063,2017
2045,2040,2055,2036,2029,2027,2063,2019
2038,2040,2040,2038,2030,2031,2054,2013
2041,2045,2034,2044,2033,2034,2061,2018
2044,2046,2036,2048,2040,2028,2042,2012
2036,2037,2022,2052,2040,2026,2045,2003
2039,2029,2025,2065,2046,2045,2064,2017
2052,2043,2032,2068,2043,2058,2052,2019
2052,2043,2022,2053,2043,2054,2042,2016
2039,2039,2014,2045,2031,2038,2055,2014
2042,2032,2009,2039,2030,2042,2059,2022
2032,2029,2003,2034,2037,2052,2048,2030
2034,2031,1990,2017,2039,2055,2036,2035
2038,2031,1988,2001,2031,2039,2021,2032
2035,2037,1988,1993,2023,2040,2044,2045
2042,2029,1993,1986,2019,2037,2059,2051
2049,2034,2006,1985,2015,2045,2046,2060
2047,2044,2031,1988,2025,2052,2047,2068
2050,2044,2061,2002,2025,2060,2063,2072
2047,2052,2081,2016,2034,2057,2066,2068
2041,2045,2079,2020,2044,2053,2053,2073
2031,2025,2061,2019,2053,2048,2041,2060
2030,2021,2049,2022,2057,2049,2039,2068
2026,2035,2049,2030,2047,2052,2042,2076
2033,2046,2047,2039,2046,2057,2044,2079
2039,2051,2038,2039,2047,2050,2048,2076
2046,2056,2040,2043,2042,2049,2042,2069
2050,2054,2042,2045,2044,2044,2042,2062
2043,2049,2040,2046,2040,2041,2030,2052
2046,2043,2027,2045,2033,2045,2042,2042
2039,2038,2033,2042,2022,2041,2048,2040
2041,2041,2043,2046,2015,2042,2061,2024
2054,2041,2046,2048,2016,2038,2058,2025
2056,2038,2049,2039,1998,2038,2050,2024
2053,2034,2043,2030,1984,2033,2040,2014
2034,2018,2039,2025,1991,2037,2045,2001
2032,2028,2043,2030,2022,2042,2054,2003
2039,2033,2043,2024,2040,2042,2019,1999
2034,2027,2046,2021,2034,2049,2047,2009
2034,2034,2058,2039,2055,2062,2049,2013
2043,2050,2062,2052,2075,2063,2053,2024
2054,2070,2080,2063,2092,2066,2046,2025
2064,2088,2102,2066,2132,2070,2052,2032
2074,2086,2101,2076,2164,2069,2057,2032
2066,2083,2097,2084,2171,2076,2052,2038
2052,2064,2087,2090,2175,2078,2051,2039
2045,2057,2080,2090,2168,2075,2055,2029
2043,2060,2082,2088,2150,2073,2061,2043
2048,2062,2081,2079,2130,2067,2041,2048
2044,2066,2093,2077,2104,2060,2044,2062
2046,2071,2101,2070,2065,2054,2041,2077
2047,2071,2088,2052,1974,2035,2026,2074
2051,2063,2076,2034,1960,2032,2052,2081
2050,2064,2059,2024,1987,2025,2037,2077
2044,2055,2051,2019,1993,2015,2039,2080
2043,2053,2056,2020,1996,2019,2038,2082
2041,2062,2066,2023,2002,2030,2033,2082
2055,2056,2056,2020,2011,2036,2042,2079
2049,2058,2050,2025,2012,2036,2047,2071
2047,2053,2044,2025,2022,2043,2042,2072
2054,2055,2047,2039,2018,2052,2059,2063
2050,2055,2045,2032,2014,2043,2055,2049
2053,2048,2046,2032,1998,2029,2044,2042
2044,2048,2044,2026,1974,2019,2019,2028
2041,2044,2043,2024,1964,2009,2050,2014
2038,2040,2036,2024,1977,2006,2019,2008
