CH1,CH2,CH3,CH4,CH5,CH6,CH7,CH8
2041,2042,2058,2048,2045,2044,2053,2068
2033,2039,2063,2029,2035,2043,2034,2066
2035,2053,2097,2013,2038,2041,2018,2066
2036,2055,2101,1994,2021,2026,2021,2064
2036,2056,2096,1981,2018,2034,2031,2067
2056,2079,2111,2007,2036,2049,2050,2072
2058,2080,2116,2025,2050,2052,2046,2071
2059,2081,2093,2019,2048,2056,2042,2062
2057,2076,2077,2023,2050,2060,2046,2062
2057,2068,2075,2025,2052,2062,2059,2047
2058,2064,2070,2032,2054,2061,2069,2048
2058,2060,2067,2038,2051,2058,2069,2044
2051,2054,2068,2049,2045,2063,2052,2036
2049,2053,2060,2043,2052,2060,2064,2033
2048,2050,2050,2041,2045,2059,2059,2026
2050,2052,2048,2044,2045,2055,2069,2033
2049,2047,2044,2045,2028,2048,2064,2021
2040,2048,2051,2042,2030,2047,2051,2027
2044,2056,2070,2047,2028,2047,2043,2025
2037,2048,2070,2037,2022,2038,2040,2014
2031,2046,2069,2037,2023,2041,2043,2020
2043,2053,2072,2046,2036,2053,2036,2026
2046,2048,2061,2047,2036,2052,2035,2028
2049,2050,2057,2044,2042,2052,2044,2033
2054,2059,2069,2054,2052,2057,2047,2037
2058,2067,2097,2059,2062,2053,2070,2040
2063,2079,2096,2066,2064,2056,2066,2047
2061,2082,2100,2064,2066,2060,2050,2052
2059,2076,2093,2064,2066,2058,2050,2049
2045,2069,2076,2060,2060,2059,2058,2049
2050,2069,2070,2059,2060,2053,2051,2050
2052,2062,2072,2061,2056,2053,2041,2058
2051,2061,2076,2059,2052,2055,2057,2065
2052,2065,2077,2063,2052,2051,2069,2068
2051,2060,2071,2059,2047,2053,2068,2070
2051,2051,2054,2048,2040,2040,2054,2063
2041,2042,2048,2041,2035,2037,2056,2068
2044,2049,2051,2047,2036,2048,2057,2067
2054,2056,2054,2051,2046,2044,2065,2065
2049,2053,2056,2054,2043,2047,2052,2058
2049,2051,2058,2050,2034,2041,2058,2046
2047,2052,2059,2060,2034,2044,2050,2048
2041,2044,2057,2064,2045,2044,2061,2045
2042,2041,2058,2065,2063,2050,2049,2039
2043,2049,2062,2071,2076,2051,2048,2032
2040,2045,2056,2068,2079,2048,2050,2034
2041,2048,2055,2066,2077,2046,2052,2026
2045,2042,2046,2060,2068,2051,2053,2026
2047,2043,2045,2061,2068,2056,2060,2019
2042,2042,2054,2064,2062,2056,2050,2021
2041,2047,2054,2067,2057,2062,2046,2018
2049,2045,2053,2055,2039,2045,2045,2013
2036,2031,2040,2047,2029,2038,2030,2006
2036,2036,2042,2052,2023,2036,2036,2018
2041,2041,2044,2048,2036,2038,2033,2019
2043,2042,2042,2053,2050,2042,2036,2023
2049,2046,2039,2047,2055,2046,2043,2029
2049,2049,2043,2043,2050,2045,2045,2029
2052,2057,2054,2054,2048,2048,2025,2037
2045,2057,2055,2051,2050,2047,2048,2046
2050,2050,2045,2047,2052,2043,2045,2046
2047,2044,2046,2047,2051,2048,2053,2046
2051,2049,2052,2054,2060,2046,2040,2054
2048,2060,2053,2062,2063,2052,2039,2058
2056,2058,2044,2061,2058,2049,2045,2060
2053,2052,2044,2060,2051,2046,2048,2068
2052,2057,2056,2055,2055,2050,2032,2075
2051,2058,2049,2042,2044,2045,2033,2063
2045,2040,2041,2040,2040,2044,2027,2066
2046,2046,2050,2046,2052,2055,2036,2076
2051,2065,2054,2051,2050,2051,2030,2073
2057,2071,2054,2053,2043,2047,2065,2062
2056,2068,2052,2054,2046,2041,2054,2061
2056,2060,2047,2048,2045,2046,2047,2048
2045,2048,2039,2047,2033,2042,2048,2041
2049,2046,2032,2043,2038,2045,2045,2039
2043,2046,2038,2041,2037,2045,2045,2035
2047,2055,2044,2054,2045,2044,2049,2028
2052,2058,2044,2061,2055,2046,2049,2032
2053,2058,2044,2059,2053,2045,2056,2035
2049,2056,2036,2054,2049,2042,2052,2024
2049,2057,2043,2050,2046,2042,2057,2023
2059,2051,2046,2057,2046,2046,2068,2024
2057,2052,2045,2057,2041,2040,2039,2016
2041,2036,2027,2048,2036,2040,2048,2007
2041,2033,2034,2052,2047,2049,2068,2018
2054,2047,2049,2060,2057,2059,2068,2021
2055,2048,2046,2058,2050,2060,2063,2028
2054,2049,2046,2052,2052,2059,2033,2031
2061,2054,2044,2049,2056,2056,2054,2032
2060,2047,2048,2048,2052,2046,2038,2044
2058,2049,2042,2052,2046,2052,2044,2048
2057,2053,2041,2053,2047,2046,2054,2051
2055,2059,2052,2058,2059,2051,2061,2055
2058,2064,2061,2066,2072,2056,2062,2058
2060,2059,2066,2069,2070,2054,2049,2060
2054,2052,2060,2067,2074,2053,2045,2062
2053,2045,2054,2070,2063,2044,2040,2068
2051,2037,2043,2065,2049,2039,2054,2070
2046,2031,2040,2070,2038,2035,2013,2064
2032,2024,2036,2077,2034,2031,2011,2060
2034,2024,2040,2084,2031,2040,2031,2069
2041,2043,2059,2094,2038,2048,2032,2064
2056,2048,2066,2098,2042,2056,2041,2060
2060,2052,2060,2092,2049,2060,2048,2053
2049,2050,2052,2100,2046,2066,2032,2048
2051,2047,2040,2096,2047,2065,2056,2043
2052,2040,2036,2083,2040,2057,2045,2036
2048,2044,2028,2074,2043,2052,2052,2033
2046,2043,2025,2064,2043,2056,2039,2032
2051,2040,2018,2050,2054,2051,2053,2020
2050,2042,2027,2042,2045,2048,2047,2017
2046,2039,2043,2035,2050,2043,2043,2020
2051,2044,2052,2032,2060,2050,2041,2023
2042,2048,2064,2029,2052,2044,2038,2025
2053,2059,2067,2026,2050,2044,2040,2023
2047,2056,2049,2017,2043,2036,2049,2025
2050,2046,2031,2006,2034,2042,2059,2027
2064,2055,2034,2014,2049,2054,2059,2032
2059,2053,2030,2017,2044,2056,2069,2033
2059,2060,2039,2034,2062,2056,2056,2027
2064,2055,2038,2042,2065,2058,2050,2026
2061,2054,2038,2039,2068,2056,2045,2030
2055,2046,2032,2040,2053,2056,2051,2036
2051,2041,2024,2049,2058,2060,2049,2038
2049,2041,2031,2056,2059,2084,2064,2046
2054,2050,2041,2064,2068,2098,2066,2050
2051,2048,2039,2072,2075,2102,2049,2054
2052,2050,2038,2071,2071,2095,2064,2057
2048,2048,2038,2061,2062,2086,2050,2058
2043,2048,2048,2067,2056,2078,2023,2065
2042,2046,2062,2070,2060,2078,2046,2065
2041,2035,2067,2056,2057,2060,2031,2058
2035,2026,2052,2058,2052,2049,2030,2061
2038,2029,2055,2061,2041,2046,2051,2067
2045,2036,2045,2070,2050,2041,2039,2062
2043,2043,2046,2074,2048,2031,2048,2066
2046,2046,2053,2077,2054,2021,2034,2071
2044,2050,2050,2060,2045,2007,2028,2049
2044,2040,2042,2045,2031,1999,2041,2037
2040,2037,2043,2040,2035,2013,2041,2033
2039,2042,2049,2052,2040,2026,2048,2028
2046,2046,2064,2057,2051,2045,2044,2029
2048,2054,2065,2060,2048,2058,2055,2030
2052,2052,2047,2050,2039,2054,2034,2020
2046,2039,2021,2035,2036,2048,2040,2023
2037,2032,2006,2033,2029,2046,2033,2018
2043,2023,2002,2024,2016,2041,2043,2021
2038,2033,2014,2028,2017,2032,2028,2011
2034,2022,2017,2026,2019,2032,2018,2012
2029,2027,2033,2029,2023,2040,2049,2022
2041,2038,2043,2024,2018,2037,2028,2025
2049,2035,2034,2022,2024,2024,2041,2022
2046,2044,2040,2026,2039,2034,2049,2022
2044,2047,2045,2037,2045,2046,2044,2021
2041,2042,2050,2042,2056,2050,2031,2029
2040,2038,2045,2039,2045,2050,2016,2034
2040,2033,2046,2040,2047,2056,2030,2043
2039,2033,2047,2050,2045,2052,2040,2047
2036,2042,2066,2054,2053,2064,2064,2053
2047,2050,2091,2055,2048,2063,2046,2061
2049,2054,2100,2044,2043,2056,2050,2068
2053,2059,2089,2041,2042,2056,2066,2060
2047,2053,2076,2035,2044,2067,2054,2066
2051,2049,2062,2037,2045,2054,2032,2059
2040,2038,2051,2032,2045,2050,2028,2061
2040,2032,2046,2029,2044,2056,2050,2069
2052,2045,2055,2038,2047,2055,2040,2068
2046,2049,2059,2038,2043,2063,2036,2063
2050,2046,2055,2039,2044,2074,2037,2054
2052,2047,2049,2038,2045,2080,2047,2055
2058,2052,2046,2044,2036,2069,2026,2046
2058,2053,2047,2036,2036,2035,2040,2043
2057,2047,2043,2035,2042,1998,2037,2036
2057,2053,2049,2038,2035,2004,2042,2035
2056,2051,2047,2041,2039,2019,2033,2030
2056,2051,2048,2043,2038,2024,2040,2030
2055,2049,2051,2048,2048,2037,2042,2026
2050,2049,2044,2053,2046,2038,2047,2026
2045,2045,2043,2048,2052,2045,2051,2021
2044,2042,2046,2051,2045,2041,2055,2017
2036,2035,2046,2043,2054,2037,2046,2011
2040,2032,2039,2044,2044,2042,2058,2023
2053,2042,2052,2047,2053,2044,2062,2021
2046,2036,2049,2046,2052,2052,2063,2019
2051,2034,2049,2056,2062,2050,2041,2020
2049,2036,2052,2051,2060,2053,2072,2025
2039,2032,2047,2052,2053,2046,2067,2031
2040,2034,2049,2053,2054,2044,2061,2033
2044,2039,2058,2058,2057,2045,2058,2030
2038,2035,2042,2056,2052,2048,2040,2036
2030,2028,2031,2055,2058,2056,2044,2040
2037,2025,2027,2058,2057,2054,2048,2053
2034,2022,2024,2048,2054,2062,2061,2057
2035,2030,2014,2034,2051,2050,2059,2066
2032,2023,1994,2040,2041,2048,2069,2066
2033,2020,1998,2029,2039,2038,2068,2064
2034,2012,1981,2019,2031,2040,2041,2061
2037,2011,1979,2022,2035,2048,2068,2067
2041,2028,1991,2033,2050,2059,2072,2062
2048,2025,1992,2044,2053,2058,2071,2062
2049,2018,1992,2039,2051,2054,2065,2046
2045,2013,1983,2036,2043,2047,2056,2048
2035,2007,1985,2036,2044,2046,2054,2033
2038,2017,1993,2038,2039,2051,2056,2037
2038,2023,2005,2035,2038,2046,2052,2032
2028,2021,2016,2035,2045,2046,2051,2039
2035,2027,2020,2036,2034,2045,2056,2043
2039,2028,2037,2040,2039,2044,2057,2043
2048,2048,2072,2048,2034,2043,2064,2041
2053,2065,2120,2060,2048,2046,2067,2040
2055,2096,2151,2073,2057,2050,2072,2040
2066,2106,2169,2083,2061,2051,2075,2038
2059,2094,2145,2066,2050,2039,2052,2032
2056,2073,2115,2053,2041,2044,2058,2035
2057,2081,2112,2056,2064,2061,2074,2043
2056,2081,2104,2055,2070,2063,2059,2040
2061,2079,2096,2055,2066,2064,2083,2040
2057,2074,2088,2053,2061,2062,2069,2043
2063,2069,2085,2058,2062,2062,2068,2053
2060,2070,2081,2054,2057,2056,2068,2050
2056,2074,2077,2057,2054,2058,2064,2060
2053,2069,2077,2054,2056,2060,2080,2067
2049,2063,2078,2046,2051,2061,2069,2066
2050,2066,2077,2035,2045,2058,2077,2074
2052,2059,2073,2031,2055,2044,2068,2074
2049,2056,2072,2038,2056,2044,2067,2082
2040,2053,2067,2048,2057,2045,2073,2085
2045,2049,2061,2052,2056,2054,2058,2066
2037,2039,2044,2049,2056,2041,2049,2065
2030,2034,2043,2040,2057,2042,2045,2070
2046,2049,2059,2050,2052,2055,2059,2077
2047,2056,2063,2052,2052,2054,2069,2072
2051,2053,2059,2046,2050,2049,2064,2065
2044,2051,2054,2054,2050,2050,2038,2064
2048,2053,2055,2054,2050,2048,2057,2056
2057,2056,2054,2048,2042,2042,2057,2050
2048,2052,2050,2046,2046,2042,2047,2049
2052,2051,2049,2047,2048,2037,2052,2041
2049,2050,2048,2049,2045,2043,2057,2036
2047,2049,2052,2057,2042,2044,2051,2033
2048,2050,2055,2064,2044,2041,2060,2032
2043,2044,2054,2067,2040,2037,2052,2020
2042,2031,2044,2072,2038,2044,2050,2025
2039,2034,2036,2068,2053,2041,2054,2028
2037,2025,2028,2073,2053,2040,2049,2025
2031,2024,2033,2094,2063,2041,2053,2021
2035,2030,2054,2112,2077,2053,2062,2023
2041,2033,2063,2116,2071,2046,2060,2020
2046,2032,2057,2109,2064,2046,2062,2025
2036,2027,2047,2104,2057,2044,2055,2018
2037,2028,2037,2093,2056,2041,2064,2032
2036,2029,2036,2089,2049,2042,2046,2034
2030,2029,2035,2078,2041,2040,2063,2036
2033,2026,2030,2061,2035,2040,2052,2037
2036,2030,2016,2052,2034,2036,2061,2045
2036,2033,2011,2033,2034,2035,2053,2057
2031,2031,2000,2021,2043,2033,2054,2062
2034,2040,2021,2024,2050,2041,2062,2067
2046,2052,2038,2024,2054,2042,2047,2076
2049,2062,2040,2009,2048,2045,2049,2074
2041,2062,2045,1998,2045,2039,2066,2064
2042,2066,2053,1994,2048,2044,2062,2070
2045,2072,2061,1997,2051,2056,2067,2083
2060,2089,2068,2003,2057,2063,2064,2087
2070,2082,2060,2010,2054,2058,2063,2080
2068,2077,2063,2014,2057,2052,2061,2071
2059,2070,2062,2023,2054,2044,2058,2067
2067,2071,2065,2029,2053,2040,2061,2067
2066,2070,2063,2037,2056,2046,2065,2063
2061,2071,2072,2045,2065,2051,2063,2049
2058,2066,2077,2042,2069,2054,2058,2039
2057,2058,2077,2043,2074,2052,2064,2050
2056,2057,2073,2042,2078,2055,2059,2036
2054,2053,2063,2045,2081,2053,2057,2035
2051,2049,2058,2038,2068,2047,2042,2037
2047,2050,2055,2038,2072,2045,2031,2037
2043,2047,2051,2036,2072,2046,2057,2033
2043,2039,2040,2035,2058,2038,2045,2023
2030,2039,2042,2034,2059,2039,2054,2018
2039,2047,2059,2042,2052,2052,2066,2027
2048,2053,2066,2041,2045,2049,2062,2031
2047,2047,2060,2041,2031,2045,2062,2028
2046,2048,2056,2037,2032,2044,2053,2033
2049,2050,2053,2043,2043,2042,2061,2035
2049,2053,2054,2049,2044,2042,2065,2050
2047,2051,2046,2046,2053,2047,2057,2054
2054,2047,2051,2044,2050,2049,2056,2051
2050,2052,2044,2048,2050,2050,2057,2056
2054,2053,2056,2051,2056,2047,2039,2063
2055,2050,2056,2043,2057,2045,2038,2063
2051,2052,2060,2044,2046,2042,2060,2073
2056,2053,2053,2039,2051,2049,2057,2076
2056,2049,2048,2040,2056,2047,2060,2077
2044,2047,2041,2043,2053,2042,2046,2075
2038,2033,2030,2033,2046,2036,2045,2068
2031,2033,2029,2028,2043,2036,2043,2069
2047,2049,2047,2040,2048,2049,2020,2068
2048,2052,2045,2035,2048,2048,2040,2061
2055,2048,2043,2043,2054,2052,2035,2064
2051,2047,2038,2039,2053,2055,2043,2058
2045,2043,2037,2044,2051,2060,2057,2053
2052,2046,2037,2044,2049,2069,2061,2051
2042,2043,2036,2040,2045,2067,2068,2048
2049,2046,2046,2040,2033,2062,2061,2031
2047,2054,2063,2044,2023,2057,2076,2032
2054,2057,2076,2053,2027,2056,2047,2034
2050,2050,2074,2056,2033,2056,2059,2036
2054,2058,2064,2058,2028,2051,2060,2028
2049,2056,2059,2065,2035,2043,2062,2029
2054,2055,2051,2064,2034,2032,2050,2034
2051,2046,2047,2057,2031,2021,2058,2029
2048,2042,2042,2054,2036,2019,2058,2023
2046,2044,2044,2064,2053,2026,2058,2038
2058,2055,2049,2070,2045,2028,2059,2035
2056,2056,2057,2069,2042,2037,2062,2036
2054,2057,2052,2070,2040,2037,2060,2034
2054,2057,2051,2065,2040,2041,2056,2032
2046,2057,2056,2064,2035,2046,2052,2029
2054,2056,2048,2067,2046,2046,2062,2038
2054,2052,2042,2059,2038,2044,2069,2038
2054,2051,2042,2059,2032,2042,2064,2042
2055,2046,2043,2050,2025,2042,2035,2048
2051,2051,2040,2045,2035,2048,2030,2048
2047,2048,2046,2052,2035,2051,2030,2056
2045,2045,2045,2050,2041,2050,2035,2057
2039,2041,2040,2037,2032,2043,2036,2062
2040,2035,2022,2026,2018,2028,2023,2059
2027,2017,2007,2011,2004,2016,2024,2057
2023,2024,2014,2015,2008,2013,2020,2061
2030,2034,2025,2027,2027,2022,2028,2062
2032,2028,2020,2022,2053,2031,2025,2056
2034,2035,2025,2034,2085,2049,2029,2056
2047,2035,2027,2046,2091,2053,2030,2052
2044,2040,2020,2050,2069,2048,2007,2046
2047,2042,2022,2045,2054,2044,2033,2042
2054,2045,2022,2043,2046,2041,2035,2042
2056,2043,2017,2040,2037,2042,2035,2030
2051,2038,2019,2041,2040,2048,2017,2023
2048,2044,2029,2049,2042,2052,2013,2027
2040,2054,2042,2047,2041,2057,2029,2030
2055,2059,2048,2050,2050,2056,2034,2020
2065,2059,2036,2051,2046,2054,2038,2015
2057,2057,2042,2060,2051,2046,2035,2015
2058,2059,2055,2057,2046,2037,2035,2005
2042,2040,2048,2047,2044,2034,2035,2004
2035,2035,2047,2050,2048,2040,2044,2014
2040,2049,2052,2060,2053,2038,2041,2024
2039,2052,2051,2056,2059,2045,2069,2023
2047,2050,2053,2041,2049,2045,2049,2035
2052,2052,2056,2047,2046,2047,2045,2038
2052,2052,2059,2046,2044,2055,2049,2038
2063,2052,2061,2041,2045,2050,2060,2049
2053,2044,2058,2033,2046,2048,2054,2050
2049,2041,2057,2029,2048,2054,2059,2052
2052,2053,2072,2045,2047,2049,2065,2056
2055,2064,2078,2056,2090,2058,2064,2061
2051,2060,2068,2056,2109,2073,2053,2066
2047,2052,2058,2055,2126,2080,2052,2059
2048,2044,2048,2054,2123,2074,2040,2056
2044,2043,2048,2052,2113,2058,2035,2049
2035,2033,2034,2043,2108,2038,2006,2057
2033,2037,2043,2044,2088,2026,2028,2065
2047,2053,2057,2061,2081,2027,2026,2067
2052,2057,2052,2057,2068,2035,2016,2068
2047,2054,2056,2052,2041,2035,2013,2060
2045,2051,2054,2040,1950,2027,2020,2054
2050,2050,2056,2024,1817,2026,2027,2040
2044,2051,2059,2021,1861,2059,2026,2030
2045,2050,2061,2028,1942,2089,2015,2022
2044,2046,2055,2038,2030,2120,2040,2019
2049,2047,2061,2064,2088,2145,2059,2030
2055,2057,2071,2090,2130,2127,2062,2031
2058,2059,2075,2095,2118,2082,2048,2032
2058,2063,2070,2088,2101,2070,2039,2029
2056,2061,2068,2079,2093,2057,2041,2020
2058,2053,2070,2080,2101,2039,2028,2021
2054,2056,2056,2072,2069,2009,2026,2022
2052,2049,2050,2049,2008,1995,2027,2021
2060,2057,2066,2052,2031,1999,2046,2027
2056,2059,2062,2050,2017,2018,2047,2032
2053,2055,2065,2039,1958,2018,2039,2033
2050,2048,2055,2027,1939,2002,2032,2036
2052,2047,2044,2023,1956,1996,2029,2034
2045,2039,2043,2020,1954,2006,2033,2030
2040,2038,2040,2028,1944,1990,2037,2035
2039,2036,2039,2026,1940,1993,2054,2040
2036,2034,2036,2021,1977,2020,2051,2048
2046,2040,2046,2047,2035,2046,2068,2054
2044,2039,2050,2059,2065,2064,2050,2066
2048,2042,2052,2063,2093,2076,2053,2067
2050,2043,2045,2058,2102,2065,2045,2070
2053,2043,2043,2056,2097,2030,2052,2064
2043,2022,2033,2050,2089,2020,2048,2056
2035,2019,2025,2041,2072,2021,2046,2060
2046,2036,2028,2044,2052,2026,2049,2066
2040,2035,2031,2046,2049,2036,2067,2059
2046,2039,2032,2039,2043,2039,2057,2053
2044,2044,2044,2046,2044,2049,2068,2056
2050,2051,2047,2048,2039,2043,2058,2048
2054,2056,2045,2049,2037,2040,2064,2044
2049,2055,2046,2050,2044,2038,2077,2038
2041,2053,2051,2049,2046,2041,2068,2031
2041,2047,2050,2050,2055,2046,2070,2026
2050,2046,2046,2052,2048,2036,2064,2024
2042,2048,2046,2051,2043,2031,2058,2019
2042,2040,2046,2046,2036,2026,2054,2016
2042,2044,2042,2049,2029,2026,2054,2024
2039,2038,2046,2044,2028,2029,2050,2021
2030,2026,2037,2037,2036,2036,2050,2021
2035,2032,2041,2047,2044,2047,2065,2024
2048,2045,2052,2051,2045,2053,2077,2030
2057,2046,2057,2050,2048,2050,2056,2033
2054,2047,2055,2044,2059,2058,2066,2030
2053,2049,2049,2046,2061,2054,2059,2041
2056,2050,2053,2049,2059,2057,2070,2047
2056,2053,2055,2055,2058,2062,2080,2054
2064,2058,2060,2058,2075,2066,2078,2063
2057,2056,2055,2062,2082,2067,2071,2067
2061,2058,2060,2056,2090,2052,2054,2064
2052,2051,2057,2052,2072,2049,2069,2068
2053,2046,2048,2042,2051,2046,2053,2067
2053,2052,2052,2047,2042,2041,2060,2077
2048,2048,2044,2045,2042,2034,2053,2078
2047,2040,2043,2046,2042,2031,2037,2068
2034,2026,2028,2033,2037,2029,2038,2068
2035,2023,2032,2044,2040,2035,2055,2066
2042,2044,2038,2044,2041,2035,2037,2061
2039,2044,2042,2044,2031,2028,2049,2058
2046,2048,2042,2043,2013,2018,2040,2064
2044,2050,2043,2039,2002,2012,2041,2054
2050,2050,2042,2037,2004,2016,2044,2056
2055,2048,2045,2035,2011,2033,2034,2046
2047,2045,2040,2030,2021,2042,2033,2046
2051,2047,2044,2055,2052,2052,2055,2044
2049,2052,2052,2061,2061,2063,2045,2040
2048,2047,2044,2052,2058,2065,2058,2031
2046,2043,2040,2053,2064,2062,2058,2035
2052,2043,2044,2048,2065,2055,2057,2033
2047,2039,2047,2047,2062,2054,2066,2027
2052,2039,2038,2041,2053,2035,2062,2027
2037,2029,2025,2037,2046,2037,2050,2030
2037,2026,2026,2038,2055,2060,2061,2033
2049,2039,2032,2044,2061,2064,2083,2033
2049,2037,2033,2044,2066,2074,2083,2032
2042,2039,2035,2043,2077,2073,2076,2033
2039,2036,2030,2040,2077,2082,2066,2027
2041,2033,2037,2045,2083,2068,2058,2023
2045,2036,2037,2047,2078,2069,2076,2023
2038,2041,2038,2046,2086,2085,2070,2045
2038,2038,2036,2056,2098,2090,2076,2049
2041,2038,2044,2053,2090,2084,2076,2058
2045,2033,2040,2047,2069,2077,2076,2060
2042,2036,2041,2052,2066,2060,2083,2069
2045,2045,2037,2046,2045,2056,2078,2072
2049,2044,2035,2043,2045,2032,2081,2076
2048,2045,2036,2043,2028,2000,2072,2074
2036,2026,2030,2029,2011,1970,2065,2075
2036,2025,2029,2027,2021,1966,2065,2079
2045,2045,2046,2044,2026,1972,2064,2081
2057,2049,2044,2042,2024,1984,2054,2080
2056,2057,2049,2044,2030,2000,2056,2075
2058,2065,2052,2051,2044,2020,2038,2063
2058,2062,2055,2062,2061,2050,2048,2058
2058,2061,2055,2062,2088,2072,2031,2055
2054,2061,2061,2055,2083,2074,2043,2045
2056,2053,2055,2050,2072,2054,2058,2036
2051,2054,2052,2052,2057,2040,2056,2039
2050,2059,2057,2053,2065,2036,2053,2037
2055,2061,2059,2052,2056,2034,2052,2040
2050,2061,2060,2052,2050,2017,2050,2034
2053,2062,2058,2054,2048,2010,2038,2031
2048,2053,2059,2058,2054,2015,2018,2032
2042,2040,2044,2044,2037,2012,2019,2030
2040,2035,2040,2046,2041,2030,2030,2039
2049,2053,2053,2049,2051,2041,2044,2041
2049,2055,2046,2049,2058,2043,2031,2036
2049,2052,2046,2048,2056,2047,2036,2034
2046,2045,2053,2046,2063,2060,2031,2034
2045,2051,2051,2044,2062,2078,2047,2039
2052,2049,2047,2047,2060,2081,2045,2041
2045,2049,2047,2047,2057,2072,2034,2036
2042,2042,2041,2049,2059,2096,2048,2044
2042,2042,2046,2053,2061,2105,2045,2058
2041,2047,2051,2049,2062,2105,2042,2064
2043,2043,2051,2056,2081,2058,2007,2065
2040,2042,2051,2059,2098,1988,2037,2069
2039,2047,2054,2050,2111,2002,2039,2076
2056,2045,2049,2050,2123,2039,2046,2087
2041,2033,2040,2052,2136,2062,2061,2083
2041,2037,2041,2054,2140,2092,2060,2093
2051,2045,2047,2064,2126,2114,2073,2088
2055,2042,2046,2063,2115,2102,2080,2085
2059,2040,2044,2062,2088,2117,2090,2079
2055,2038,2046,2064,2059,2146,2079,2075
2055,2039,2050,2060,1978,2149,2083,2072
2048,2047,2050,2053,1912,2108,2052,2067
2046,2050,2055,2052,1936,2040,2028,2050
2041,2044,2054,2046,1946,1975,2014,2033
2039,2043,2046,2037,1930,1985,2041,2029
2036,2039,2052,2021,1909,2024,2036,2032
2036,2040,2048,2012,1936,2038,2049,2028
2037,2040,2044,2021,1975,2047,2041,2025
2044,2043,2045,2012,1991,2046,2038,2024
2045,2044,2046,2018,2020,2038,2035,2020
2029,2028,2036,2024,2062,2012,2020,2011
2024,2017,2035,2027,2084,2010,2029,2012
2037,2032,2049,2048,2107,2054,2051,2023
2042,2035,2050,2058,2104,2089,2059,2028
2041,2041,2051,2054,2100,2110,2073,2035
2047,2046,2051,2051,2094,2112,2073,2038
2053,2046,2061,2053,2089,2083,2070,2045
2057,2043,2050,2051,2076,2043,2058,2051
2054,2047,2053,2051,2061,2017,2054,2060
2055,2052,2054,2050,2056,2004,2066,2065
2055,2054,2057,2052,2055,1994,2060,2073
2057,2055,2057,2050,2052,1975,2050,2076
2062,2057,2061,2049,2050,1961,2025,2080
2055,2053,2052,2049,2044,1964,2025,2079
2051,2047,2050,2047,2038,1974,2044,2078
2052,2044,2050,2053,2044,1989,2070,2076
2041,2036,2042,2042,2044,2003,2045,2066
2032,2030,2041,2040,2040,2012,2035,2061
2042,2039,2049,2050,2058,2080,2065,2068
2050,2042,2056,2051,2074,2146,2094,2085
2054,2045,2055,2051,2072,2112,2070,2080
2046,2049,2053,2055,2070,2089,2058,2065
2046,2049,2057,2053,2056,2071,2068,2057
2049,2049,2059,2051,2048,2078,2066,2062
2060,2054,2057,2050,2053,2088,2065,2050
2058,2057,2060,2054,2047,2074,2063,2040
2054,2055,2062,2056,2054,2043,2036,2033
2050,2054,2056,2057,2046,2037,2013,2036
2053,2054,2057,2052,2047,2041,2039,2031
2047,2049,2056,2046,2038,2039,2039,2032
2052,2049,2052,2049,2042,2041,2041,2035
2052,2049,2060,2049,2042,2031,2047,2029
2047,2046,2045,2042,2033,2011,2022,2022
2045,2044,2046,2047,2027,2014,2021,2011
2050,2050,2054,2057,2081,2036,2041,2022
2049,2053,2054,2063,2106,2039,2018,2025
2048,2051,2052,2059,2104,2027,2037,2029
2055,2050,2055,2064,2103,2023,2036,2028
2051,2053,2052,2067,2083,2012,2016,2031
2047,2051,2058,2064,2052,2000,2040,2039
2057,2053,2056,2067,2043,2008,2031,2036
2054,2045,2055,2066,2051,2018,2004,2044
2050,2049,2059,2059,2030,2027,2011,2052
2049,2038,2051,2042,1979,2016,2030,2055
2050,2045,2049,2037,2006,2033,2040,2058
2047,2042,2051,2040,2017,2037,2050,2056
2045,2041,2044,2039,2022,2039,2037,2064
2044,2039,2046,2034,2028,2045,2029,2063
2045,2036,2041,2029,2036,2029,2012,2063
2038,2022,2038,2028,2035,2023,2022,2063
2043,2034,2045,2035,2036,2021,2033,2066
2050,2039,2051,2038,2034,2023,2027,2065
2046,2048,2055,2028,2026,2022,2027,2058
2049,2047,2046,2030,2020,2033,2037,2056
2048,2046,2050,2033,2031,2048,2038,2048
2049,2047,2050,2038,2049,2054,2019,2040
2041,2036,2043,2053,2080,2056,2028,2034
2043,2036,2043,2061,2086,2060,2038,2026
2044,2034,2046,2050,2083,2066,2034,2022
2044,2032,2048,2054,2073,2064,2043,2024
2038,2037,2045,2054,2065,2063,2045,2021
2038,2040,2046,2054,2066,2065,2055,2029
2042,2044,2049,2048,2067,2064,2033,2019
2047,2046,2054,2052,2070,2061,2056,2016
2045,2035,2041,2047,2057,2060,2041,2013
2038,2029,2038,2045,2058,2057,2049,2011
2038,2033,2046,2042,2058,2058,2059,2020
2053,2048,2050,2045,2053,2049,2067,2032
2050,2046,2049,2049,2042,2029,2058,2026
2049,2046,2047,2043,2040,2023,2039,2019
2042,2040,2040,2045,2040,2031,2042,2022
2046,2035,2044,2041,2040,2042,2049,2014
2041,2035,2043,2042,2053,2049,2061,2021
2044,2039,2046,2045,2051,2051,2039,2029
2042,2038,2044,2042,2053,2054,2060,2037
2045,2040,2045,2046,2049,2056,2056,2037
2041,2034,2047,2046,2050,2054,2058,2033
2036,2027,2048,2041,2046,2047,2049,2044
2033,2034,2045,2039,2043,2050,2059,2051
2029,2038,2046,2044,2041,2042,2054,2051
2032,2034,2045,2034,2029,2026,2045,2044
2025,2022,2035,2040,2019,2015,2049,2040
2012,2013,2042,2036,2024,2028,2050,2043
2020,2029,2048,2032,2022,2036,2044,2044
2035,2032,2047,2030,2004,2050,2038,2040
2033,2030,2041,2020,1973,2033,2037,2035
2039,2032,2036,2022,1958,2034,2046,2040
2038,2039,2034,2028,1967,2034,2049,2041
2042,2040,2036,2022,1984,2026,2062,2057
2060,2042,2043,2048,2034,2030,2069,2065
2070,2060,2061,2063,2077,2045,2077,2073
2083,2060,2059,2065,2063,2048,2063,2066
2066,2052,2053,2057,2065,2050,2041,2048
2056,2046,2043,2054,2101,2060,2031,2033
2058,2047,2049,2056,2130,2073,2046,2032
2054,2049,2051,2059,2139,2076,2050,2028
2046,2046,2051,2060,2106,2085,2050,2014
2034,2033,2038,2038,2081,2100,2066,2014
2037,2026,2035,2038,2079,2135,2082,2020
2047,2036,2036,2043,2072,2159,2083,2018
2041,2023,2035,2031,2052,2173,2052,2014
2041,2034,2043,2040,2052,2163,2063,2018
2047,2047,2055,2047,2062,2077,2045,2026
2046,2045,2067,2044,2047,1988,2030,2030
2044,2043,2062,2046,2039,1993,2027,2035
2041,2047,2065,2044,2032,2005,2057,2041
2052,2046,2068,2047,2029,1980,2044,2056
2049,2060,2069,2050,2037,1954,2033,2060
2050,2056,2064,2051,2058,1992,2026,2056
2047,2062,2073,2057,2072,2019,2052,2063
2047,2051,2068,2054,2078,2047,2056,2068
2045,2055,2060,2051,2073,2069,2051,2077
2046,2048,2054,2049,2061,2056,2040,2064
2034,2042,2044,2040,2042,2050,2036,2067
2037,2037,2040,2043,2048,2054,2050,2074
2055,2051,2057,2040,2052,2045,2067,2073
2050,2047,2055,2043,2055,2036,2062,2059
2053,2053,2048,2044,2054,2030,2056,2050
2053,2047,2051,2046,2056,2026,2026,2046
2046,2046,2049,2046,2051,2021,2034,2039
2050,2046,2049,2046,2045,2025,2039,2041
2053,2058,2047,2046,2059,2039,2063,2041
2058,2060,2046,2043,2056,2052,2056,2045
2058,2056,2049,2041,2054,2051,2054,2040
2057,2051,2050,2037,2051,2049,2040,2042
2053,2057,2051,2040,2048,2056,2045,2032
2057,2053,2050,2045,2047,2086,2042,2031
2051,2051,2051,2046,2056,2143,2067,2024
2051,2046,2051,2048,2057,2159,2056,2017
2032,2027,2030,2031,2050,2143,2046,2008
2037,2026,2029,2036,2048,2047,2043,2018
2042,2039,2036,2048,2057,1931,2049,2033
2044,2038,2041,2045,2058,1939,2042,2029
2045,2048,2050,2046,2050,2002,2059,2027
2046,2048,2056,2046,2051,2067,2064,2025
2043,2053,2063,2055,2062,2115,2068,2030
2051,2052,2054,2053,2076,2131,2078,2035
2042,2051,2050,2047,2062,2107,2076,2035
2047,2046,2042,2049,2064,2076,2066,2036
2039,2039,2045,2045,2058,2060,2071,2047
2037,2039,2041,2046,2064,2094,2085,2059
2043,2042,2048,2047,2108,2094,2080,2066
2044,2048,2049,2050,2125,2059,2064,2061
2047,2051,2047,2047,2129,2022,2038,2059
2039,2047,2045,2040,2125,1983,2022,2049
2033,2031,2041,2038,2109,1961,2012,2040
2027,2030,2042,2039,2098,1959,2018,2045
2036,2043,2051,2045,2093,1987,2033,2052
2043,2044,2051,2049,2079,2014,2023,2054
2040,2047,2053,2052,2067,2042,2030,2049
2044,2049,2057,2054,2041,2047,2020,2046
2057,2052,2056,2044,1933,2009,2020,2038
2055,2050,2054,2031,1903,1988,2018,2032
2054,2049,2058,2031,1950,2010,2021,2039
2058,2052,2060,2040,1983,2018,2029,2031
2061,2054,2058,2043,2011,2042,2050,2027
2058,2054,2058,2040,2035,2072,2060,2032
2061,2057,2054,2047,2055,2087,2053,2035
2061,2055,2054,2051,2068,2084,2060,2026
2058,2055,2052,2047,2060,2071,2056,2013
2048,2051,2047,2039,2058,2073,2049,2007
2040,2047,2045,2037,2048,2070,2045,2005
2037,2040,2035,2033,2040,2066,2036,2007
2044,2036,2035,2038,2047,2073,2032,2016
2055,2054,2054,2055,2061,2055,2034,2017
2052,2060,2051,2054,2063,2037,2033,2020
2052,2056,2053,2053,2073,2044,2040,2018
2044,2059,2048,2058,2076,2043,2042,2025
2044,2050,2045,2056,2064,2045,2039,2028
2047,2048,2049,2055,2067,2052,2033,2031
2041,2046,2046,2056,2067,2064,2038,2038
2044,2047,2043,2052,2068,2069,2045,2047
2048,2044,2039,2053,2064,2064,2040,2052
2047,2039,2046,2050,2064,2081,2052,2054
2046,2038,2049,2047,2056,2091,2056,2058
2041,2047,2044,2037,2024,2080,2041,2052
2040,2045,2048,2026,1982,2067,2039,2063
2042,2044,2036,2024,1978,2064,2038,2057
2033,2027,2024,2018,2003,2068,2033,2048
2029,2022,2020,2018,2025,2078,2021,2051
2038,2041,2028,2030,2027,2088,2026,2051
2038,2041,2035,2034,2036,2099,2044,2048
2041,2042,2039,2040,2060,2115,2051,2050
2044,2044,2038,2037,2071,2094,2038,2040
2044,2043,2035,2040,2084,2070,2039,2037
2046,2043,2041,2041,2084,2063,2030,2036
2051,2047,2043,2050,2085,2050,2037,2036
2053,2054,2039,2050,2075,2041,2045,2032
2057,2042,2040,2055,2075,2059,2055,2026
2047,2042,2036,2053,2082,2064,2045,2014
2046,2044,2040,2051,2084,2063,2047,2017
2050,2046,2041,2053,2078,2051,2050,2012
2047,2046,2034,2054,2069,2048,2044,2020
2045,2046,2025,2045,2023,2020,2020,2003
2053,2044,2014,2028,1968,1983,2012,1996
2032,2028,2004,2010,1952,1979,2011,1996
2032,2030,2008,2016,1954,1999,2036,2005
2040,2042,2015,2029,1998,2024,2052,2011
2044,2044,2022,2046,2055,2045,2041,2014
2043,2037,2026,2042,2080,2045,2048,2016
2039,2037,2022,2048,2095,2068,2058,2036
2034,2039,2029,2052,2095,2078,2065,2032
2034,2038,2029,2038,2058,2073,2076,2041
2029,2045,2028,2029,2050,2065,2078,2042
2037,2039,2037,2027,2046,2068,2066,2044
2036,2042,2038,2028,2024,2067,2065,2044
2043,2053,2054,2020,1970,2057,2065,2051
2042,2065,2070,2043,2030,2065,2060,2050
2046,2065,2070,2048,2059,2071,2043,2056
2045,2065,2072,2049,2058,2071,2054,2058
2041,2059,2071,2049,2060,2055,2037,2050
2032,2043,2062,2039,2053,2035,2009,2055
2033,2040,2057,2032,2037,2017,2019,2056
2042,2054,2066,2039,2037,2019,2002,2059
2045,2054,2065,2045,2044,2026,2006,2059
2045,2059,2061,2047,2043,2029,2023,2053
2048,2055,2056,2048,2057,2050,2022,2040
2045,2051,2054,2037,2054,2058,2060,2036
2046,2051,2059,2037,2041,2061,2064,2032
2048,2046,2050,2042,2040,2066,2052,2028
2037,2038,2045,2036,2035,2069,2054,2024
2038,2033,2039,2043,2039,2084,2062,2029
2039,2037,2046,2039,2025,2096,2061,2019
2041,2040,2033,2042,2036,2107,2055,2017
2041,2035,2036,2048,2037,2089,2048,2015
2036,2030,2030,2042,2031,2073,2040,2004
2038,2031,2032,2041,2038,2048,2018,2007
2035,2026,2016,2037,2038,1978,2005,2000
2023,2020,2009,2037,2038,1964,2033,2008
2024,2018,2013,2041,2062,2000,2054,2016
2033,2033,2020,2050,2065,2023,2075,2023
2040,2032,2026,2054,2058,2036,2067,2027
2039,2036,2028,2041,2047,2043,2064,2030
2035,2035,2032,2045,2033,2041,2050,2034
2039,2043,2031,2041,2033,2027,2059,2045
2041,2041,2029,2041,2035,2034,2061,2057
2046,2046,2028,2038,2053,2115,2079,2057
2052,2048,2031,2038,2056,2184,2050,2053
2039,2045,2020,2037,2059,2233,2063,2048
2039,2046,2024,2042,2075,2285,2062,2054
2045,2047,2031,2048,2072,2248,2031,2053
2046,2056,2035,2047,2055,2106,2007,2045
2044,2065,2045,2047,2039,1963,1972,2037
2042,2066,2059,2051,2031,1920,1979,2041
2031,2055,2058,2047,2064,1951,1967,2044
2029,2052,2059,2052,2097,2009,2027,2055
2048,2065,2082,2070,2108,2053,2039,2068
2051,2075,2085,2063,2093,2028,2036,2053
2050,2060,2072,2054,2067,2009,2046,2055
2052,2059,2068,2054,2059,2035,2036,2051
2051,2059,2064,2050,2062,2057,2042,2047
2050,2058,2054,2044,2066,2058,2048,2032
2042,2046,2049,2043,2061,2049,2033,2031
2039,2048,2041,2037,2055,2042,2033,2025
2041,2043,2037,2038,2062,2049,2041,2026
2042,2050,2038,2044,2059,2058,2045,2024
2042,2044,2044,2045,2060,2059,2042,2026
2040,2049,2040,2049,2063,2055,2040,2021
2039,2047,2040,2044,2054,2052,2052,2023
2043,2049,2046,2040,2055,2062,2044,2022
2044,2046,2042,2035,2049,2039,2036,2018
2035,2029,2032,2035,2036,2031,2034,2021
2032,2026,2038,2044,2049,2039,2023,2029
2041,2045,2045,2054,2059,2039,2044,2033
2044,2041,2039,2042,2048,2028,2056,2031
2044,2042,2038,2040,2058,2014,2033,2029
2045,2042,2035,2048,2062,2014,2043,2029
2042,2045,2038,2058,2075,2011,2029,2037
2048,2046,2041,2061,2080,2021,2037,2041
2043,2050,2041,2060,2084,2036,2037,2035
2042,2050,2039,2059,2079,2063,2042,2038
2042,2055,2042,2056,2080,2074,2041,2044
2041,2050,2040,2053,2070,2085,2056,2048
2044,2046,2039,2054,2079,2091,2052,2058
2046,2045,2039,2052,2083,2097,2050,2067
2042,2046,2041,2052,2076,2095,2061,2054
2037,2046,2037,2051,2067,2096,2018,2050
2034,2044,2034,2035,2049,2075,2036,2044
2030,2035,2036,2031,2035,2046,2038,2051
2032,2048,2052,2041,2025,2032,2040,2056
2040,2060,2062,2045,2028,2014,2040,2060
2049,2057,2053,2044,2029,2015,2041,2054
2054,2059,2049,2045,2043,2024,2043,2060
2045,2056,2041,2045,2049,2031,2042,2046
2043,2056,2037,2041,2054,2045,2026,2036
2040,2050,2039,2043,2044,2059,2017,2032
2046,2055,2043,2044,2039,2060,2011,2025
2050,2057,2049,2049,2040,2068,2031,2024
2053,2060,2049,2053,2058,2069,2036,2029
2064,2067,2059,2059,2068,2081,2035,2030
2068,2078,2061,2057,2076,2073,2043,2027
2063,2070,2054,2053,2067,2053,2029,2022
2054,2066,2047,2052,2063,2044,2021,2013
2054,2061,2044,2046,2054,2043,2033,2015
2050,2049,2036,2048,2056,2027,1996,2013
2041,2039,2032,2048,2044,2031,2005,2013
2041,2054,2039,2050,2058,2045,2025,2025
2048,2057,2040,2044,2050,2054,2047,2012
2042,2048,2037,2038,2037,2056,2032,2011
2039,2052,2045,2041,2048,2064,2024,2018
2043,2054,2045,2051,2063,2065,2051,2019
2043,2062,2047,2054,2062,2056,2063,2029
2050,2063,2051,2053,2053,2047,2075,2036
2050,2062,2049,2057,2046,2056,2065,2036
2045,2056,2043,2054,2047,2065,2064,2050
2044,2053,2045,2056,2047,2067,2077,2051
2045,2052,2051,2050,2043,2059,2066,2045
2040,2050,2058,2055,2033,2057,2061,2048
2042,2049,2053,2049,2025,2038,2052,2050
2040,2045,2052,2046,2027,2024,2065,2054
2043,2049,2055,2045,2017,2015,2063,2049
2033,2027,2040,2034,2014,2032,2061,2047
2031,2024,2039,2041,2026,2051,2067,2061
2035,2042,2054,2057,2076,2064,2074,2054
2039,2050,2060,2062,2106,2065,2071,2048
2041,2044,2052,2056,2099,2045,2057,2042
2044,2043,2048,2044,2094,2033,2049,2037
2041,2043,2046,2045,2097,2049,2043,2029
2042,2043,2047,2054,2135,2071,2046,2026
2043,2045,2040,2056,2128,2070,2053,2024
2040,2045,2044,2054,2103,2054,2050,2011
2036,2044,2042,2047,2072,2039,2027,2012
2039,2051,2047,2039,1955,2019,2029,2013
2040,2044,2043,2035,1922,2020,2007,2009
2045,2046,2053,2042,1982,2030,2015,2006
2039,2050,2054,2050,2029,2033,2036,2015
2042,2052,2056,2056,2054,2038,2007,2007
2040,2041,2043,2049,2039,2028,1995,2001
2029,2041,2043,2045,2041,2032,2023,2007
2039,2053,2056,2058,2052,2053,2032,2018
2046,2060,2058,2052,2053,2068,2047,2020
2051,2067,2060,2054,2059,2070,2066,2020
2046,2066,2056,2051,2055,2075,2047,2026
2057,2067,2060,2052,2044,2070,2041,2031
2049,2068,2067,2054,2050,2069,2024,2040
2064,2069,2069,2056,2056,2078,2048,2044
2057,2071,2073,2060,2054,2079,2058,2051
2056,2068,2070,2054,2051,2065,2044,2059
2061,2065,2066,2058,2051,2059,2037,2059
2055,2064,2061,2054,2044,2050,2058,2059
2042,2052,2058,2052,2032,2037,2034,2061
2044,2054,2055,2049,2009,2029,2013,2055
2045,2050,2048,2037,1991,2012,2006,2053
2035,2040,2037,2029,1982,1986,2008,2041
2020,2022,2019,2016,1988,2001,2012,2025
2018,2022,2025,2030,2039,2048,2046,2035
2035,2038,2042,2047,2076,2084,2059,2052
2042,2047,2049,2068,2098,2118,2066,2061
2055,2059,2056,2067,2117,2147,2075,2063
2059,2065,2059,2069,2112,2152,2071,2054
2059,2065,2055,2064,2077,2133,2070,2046
2056,2063,2052,2055,2050,2093,2073,2054
2059,2060,2061,2068,2074,2061,2074,2049
2064,2060,2056,2072,2086,2007,2060,2037
2049,2057,2056,2069,2077,1991,2051,2035
2049,2061,2054,2061,2061,2006,2060,2028
2049,2061,2055,2061,2056,2026,2050,2025
2048,2055,2051,2051,2051,2036,2049,2027
2049,2053,2047,2052,2049,2038,2046,2018
2051,2050,2048,2052,2041,2039,2047,2022
2044,2042,2040,2046,2037,2028,2044,2020
2043,2042,2047,2053,2045,2040,2055,2029
2054,2063,2062,2064,2074,2059,2052,2026
2052,2066,2057,2071,2082,2065,2052,2023
2058,2060,2059,2071,2088,2074,2052,2029
2050,2063,2053,2070,2097,2073,2058,2036
2050,2061,2047,2047,2074,2059,2056,2029
2044,2054,2043,2037,2050,2051,2077,2028
2038,2046,2040,2036,2063,2062,2062,2033
2038,2044,2048,2038,2077,2068,2062,2039
2046,2050,2052,2038,2070,2081,2032,2057
2045,2054,2043,2042,2054,2086,2031,2060
2047,2049,2046,2041,2050,2076,2020,2059
2041,2046,2045,2044,2050,2065,2020,2062
2042,2044,2043,2044,2059,2070,2005,2061
2043,2043,2042,2044,2061,2069,2023,2066
2037,2036,2032,2038,2051,2032,2028,2052
2029,2033,2031,2033,2044,2023,2028,2046
2035,2038,2038,2038,2042,2015,2020,2044
2035,2041,2038,2034,2023,1968,2030,2044
2037,2042,2034,2032,2031,1972,2033,2040
2039,2043,2041,2036,2039,2016,2044,2045
2045,2047,2039,2041,2060,2066,2080,2049
2042,2048,2044,2044,2076,2084,2092,2040
2049,2051,2044,2049,2073,2071,2071,2039
2048,2046,2043,2042,2069,2061,2063,2036
2047,2046,2040,2047,2056,2069,2054,2038
2043,2048,2047,2050,2052,2074,2076,2040
2048,2047,2044,2043,2041,2060,2059,2039
2046,2042,2044,2039,2049,2046,2021,2033
2042,2046,2042,2037,2038,2050,1983,2020
2042,2043,2051,2044,2039,2049,2002,2013
2049,2043,2040,2029,2013,2057,2014,2009
2028,2025,2031,2023,2001,2093,2034,2016
2040,2032,2038,2031,2024,2140,2081,2038
2060,2050,2058,2046,2039,2141,2088,2041
2067,2052,2054,2048,2037,2060,2066,2040
2068,2057,2049,2045,2023,2011,2076,2040
2068,2055,2048,2037,2017,2018,2048,2036
2056,2055,2050,2040,2022,1978,2042,2022
2055,2052,2051,2043,2028,1886,2026,2020
2045,2044,2050,2037,2039,1919,2019,2015
2045,2042,2054,2044,2063,2026,2031,2016
2034,2038,2051,2053,2068,2082,2041,2027
2032,2046,2052,2050,2065,2098,2035,2037
2030,2046,2053,2046,2058,2063,2031,2048
2029,2049,2051,2047,2048,2036,2002,2056
2032,2045,2051,2050,2053,2036,2014,2063
2039,2045,2050,2048,2054,2036,2016,2055
2027,2034,2043,2037,2052,2035,2013,2049
2030,2029,2040,2042,2043,2028,2023,2066
2037,2046,2056,2048,2055,2035,2011,2057
2048,2051,2054,2054,2057,2034,2006,2052
2049,2048,2054,2050,2055,2038,2033,2045
2048,2046,2052,2053,2064,2047,2033,2040
2042,2044,2045,2056,2060,2052,2041,2038
2044,2043,2046,2052,2059,2065,2065,2032
2046,2042,2043,2053,2068,2063,2060,2034
2047,2042,2045,2052,2057,2060,2079,2032
2045,2042,2040,2041,2043,2044,2081,2026
2045,2046,2038,2042,2026,2048,2078,2033
2046,2042,2040,2031,2031,2046,2067,2034
2047,2042,2041,2036,2029,2043,2060,2029
2051,2045,2045,2039,2022,2034,2043,2026
2051,2043,2047,2039,2022,2041,2048,2025
2042,2036,2038,2034,2013,2030,2047,2020
2030,2031,2035,2032,2020,2039,2050,2012
2044,2048,2051,2048,2041,2048,2064,2017
2054,2051,2050,2048,2047,2040,2053,2012
2044,2042,2046,2056,2041,2046,2024,2012
2040,2039,2050,2050,2050,2078,2022,2020
2038,2041,2043,2052,2067,2105,2049,2028
2037,2044,2045,2053,2085,2111,2062,2036
2040,2041,2050,2057,2088,2108,2073,2045
2048,2044,2052,2064,2083,2103,2074,2053
2050,2048,2049,2058,2092,2102,2081,2052
2045,2047,2048,2053,2082,2079,2076,2054
2043,2046,2044,2046,2057,2035,2071,2067
2043,2042,2048,2039,2040,1998,2064,2070
2047,2044,2047,2040,2043,1976,2065,2067
2047,2045,2054,2044,2048,1981,2052,2065
2033,2030,2044,2035,2036,1993,2053,2068
2031,2027,2037,2036,2020,1990,2037,2065
2031,2040,2042,2036,2022,1994,2038,2057
2039,2041,2046,2029,2022,1993,2028,2052
2034,2038,2044,2035,2037,2006,2030,2050
2044,2044,2040,2040,2023,2013,2027,2052
2043,2044,2049,2050,2063,2026,2035,2045
2044,2044,2043,2052,2098,2035,2046,2041
2045,2049,2047,2052,2098,2041,2058,2036
2047,2052,2047,2057,2100,2056,2057,2038
2048,2046,2047,2054,2083,2071,2059,2030
2044,2038,2055,2046,2057,2070,2053,2026
2041,2039,2040,2039,2052,2065,2055,2032
2040,2042,2044,2044,2056,2064,2054,2029
2042,2041,2039,2023,1986,2049,2031,2021
2039,2043,2033,2014,1998,2059,2019,2016
2030,2031,2031,2016,2006,2053,2029,2009
2031,2029,2027,2015,2009,2066,2044,2017
2033,2032,2038,2021,2014,2103,2062,2032
2042,2035,2040,2022,2015,2096,2055,2032
2047,2039,2039,2029,2050,2077,2077,2040
2049,2044,2043,2047,2075,2030,2041,2033
2047,2052,2049,2044,2076,2012,2052,2040
2050,2050,2041,2058,2098,2030,2034,2041
2050,2049,2046,2063,2100,2035,2063,2048
2046,2043,2044,2062,2094,2039,2053,2046
2045,2043,2044,2052,2083,2037,2064,2052
2044,2033,2042,2050,2069,2035,2067,2057
2039,2035,2046,2046,2063,2034,2056,2062
2047,2036,2045,2051,2055,2036,2061,2064
2042,2040,2052,2049,2047,2027,2061,2067
2046,2043,2050,2055,2031,2025,2058,2068
2046,2038,2044,2044,2026,2021,2050,2060
2039,2030,2043,2043,2021,2023,2048,2066
2047,2047,2053,2047,2034,2034,2068,2074
2056,2046,2048,2042,2041,2038,2078,2073
2060,2054,2053,2046,2042,2045,2067,2071
2055,2056,2052,2045,2038,2049,2052,2064
2052,2054,2049,2036,2031,2038,2048,2051
2056,2055,2055,2040,2035,2042,2037,2041
2050,2050,2047,2040,2032,2043,2030,2031
2056,2044,2042,2037,2037,2047,2036,2033
2044,2050,2046,2042,2048,2066,2056,2038
2054,2044,2048,2047,2050,2073,2064,2030
2049,2048,2047,2044,2046,2058,2045,2028
2043,2045,2042,2036,2031,2051,2029,2018
2048,2039,2038,2033,2038,2040,2052,2025
2049,2046,2040,2037,2033,2044,2041,2021
2044,2041,2038,2027,2027,2034,2032,2014
2035,2030,2027,2026,2032,2036,2029,2018
2037,2039,2034,2037,2040,2045,2054,2028
2048,2043,2039,2034,2044,2050,2055,2026
2043,2046,2041,2038,2050,2052,2061,2036
2048,2042,2043,2043,2045,2053,2049,2040
2050,2044,2048,2046,2049,2052,2047,2044
2044,2058,2054,2051,2049,2052,2042,2054
2050,2058,2064,2053,2043,2056,2047,2055
2049,2055,2064,2044,2047,2057,2052,2056
2048,2052,2068,2048,2045,2054,2044,2053
2047,2053,2061,2045,2050,2058,2050,2062
2049,2050,2057,2048,2055,2064,2046,2063
2051,2045,2057,2044,2061,2067,2040,2068
2044,2044,2055,2049,2062,2072,2052,2074
2045,2045,2057,2043,2057,2081,2055,2079
2054,2044,2051,2040,2047,2066,2036,2076
2038,2029,2037,2036,2051,2068,2031,2072
2036,2035,2045,2040,2063,2042,2051,2067
2045,2043,2053,2045,2060,1982,2032,2067
2042,2043,2053,2046,2046,1981,2020,2065
2049,2050,2060,2044,2035,2000,2018,2064
2056,2050,2056,2045,2045,2005,2028,2061
2053,2052,2056,2043,2041,2008,2022,2050
2055,2051,2057,2042,2038,2007,2027,2046
2054,2046,2056,2042,2028,2017,2027,2044
2055,2044,2054,2036,2034,2017,2022,2028
2055,2046,2052,2036,2038,2025,2034,2034
2046,2045,2050,2037,2047,2045,2031,2025
2041,2039,2045,2043,2050,2054,2036,2022
2043,2032,2043,2038,2043,2061,2031,2028
2043,2038,2044,2039,2046,2054,2038,2033
2049,2043,2045,2034,2043,2033,2047,2024
2045,2028,2035,2024,2037,2036,2042,2017
2041,2028,2037,2040,2067,2046,2058,2026
2055,2038,2049,2048,2066,2056,2062,2025
2048,2039,2043,2049,2074,2073,2052,2035
2050,2040,2049,2054,2075,2081,2044,2035
2050,2045,2041,2054,2077,2084,2067,2042
2054,2048,2050,2055,2081,2084,2055,2051
2049,2049,2056,2054,2075,2087,2065,2054
2052,2047,2056,2053,2068,2082,2063,2049
2046,2038,2050,2047,2057,2088,2063,2072
2048,2039,2048,2050,2060,2085,2060,2081
2047,2037,2042,2051,2055,2078,2064,2075
2047,2040,2045,2049,2045,2053,2052,2078
2047,2035,2042,2046,2043,2048,2054,2077
2044,2037,2045,2052,2040,2050,2043,2082
2041,2035,2045,2043,2012,2032,2031,2062
2027,2018,2032,2031,1990,1989,2005,2060
2028,2019,2029,2029,1983,1972,2029,2063
2038,2037,2040,2022,1982,1988,2028,2063
2043,2041,2042,2027,1998,1992,2045,2069
2047,2045,2046,2030,2012,1998,2053,2071
2058,2042,2045,2039,2042,2022,2053,2068
2060,2046,2052,2045,2064,2014,2054,2065
2053,2050,2056,2049,2065,2018,2057,2058
2059,2056,2056,2052,2072,2033,2058,2055
2054,2057,2053,2052,2072,2050,2060,2060
2053,2054,2056,2044,2066,2060,2053,2054
2053,2054,2056,2044,2063,2077,2062,2051
2047,2048,2053,2040,2046,2092,2062,2042
2046,2048,2052,2030,2048,2118,2052,2039
2046,2045,2050,2033,2035,2124,2042,2030
2046,2040,2052,2025,2037,2059,2015,2018
2027,2027,2042,2020,2026,1980,1978,2013
2030,2027,2036,2024,2033,1999,2002,2027
2055,2044,2052,2046,2045,2053,2032,2041
2063,2046,2056,2049,2053,2056,2027,2047
2059,2046,2056,2041,2036,2038,2049,2049
2059,2040,2046,2036,2043,2034,2049,2051
2063,2046,2045,2041,2039,2033,2041,2051
2066,2054,2050,2046,2039,2024,2053,2055
2065,2056,2060,2045,2038,2024,2049,2060
2059,2050,2052,2045,2045,2018,2039,2060
2049,2045,2064,2046,2038,2010,2040,2054
2043,2042,2059,2041,2036,2024,2035,2065
2040,2034,2055,2042,2035,2031,2032,2069
2037,2038,2056,2045,2034,2029,2048,2077
2040,2050,2062,2044,2026,2033,2036,2085
2035,2051,2056,2041,2025,2034,2040,2076
2033,2037,2047,2031,2013,2038,2042,2073
2037,2032,2044,2034,2020,2050,2049,2082
2047,2050,2055,2047,2027,2066,2078,2088
2052,2050,2051,2046,2038,2050,2081,2080
2053,2047,2052,2043,2034,2047,2068,2080
2051,2045,2058,2046,2033,2044,2061,2076
2052,2049,2049,2046,2038,2048,2068,2062
2049,2050,2042,2047,2032,2051,2069,2064
2046,2042,2041,2046,2031,2060,2076,2061
2041,2043,2041,2043,2034,2060,2072,2056
2044,2042,2040,2048,2051,2052,2062,2047
2043,2040,2042,2050,2096,2038,2059,2048
2040,2039,2040,2054,2127,2001,2041,2042
2046,2045,2043,2056,2146,1993,2036,2036
2045,2049,2045,2059,2165,2047,2044,2036
2049,2047,2044,2061,2166,2071,2045,2038
2042,2034,2035,2048,2148,2067,2054,2028
2035,2030,2035,2049,2134,2064,2030,2032
2046,2044,2044,2063,2125,2080,2052,2034
2048,2044,2041,2056,2081,2111,2068,2043
2042,2036,2032,2034,1969,2159,2059,2038
2044,2029,2029,2025,1965,2162,2058,2041
2045,2038,2041,2031,1974,2081,2054,2043
2044,2049,2042,2026,1932,1992,2040,2047
2042,2046,2052,2020,1914,2002,2032,2053
2046,2045,2048,2023,1948,2043,2037,2061
2046,2047,2049,2030,1998,2082,2035,2068
2048,2048,2053,2040,2036,2071,2064,2078
2049,2044,2053,2044,2028,2047,2065,2080
2050,2043,2050,2044,2038,2039,2039,2084
2048,2049,2056,2044,2042,2028,2031,2080
2046,2055,2064,2055,2038,2017,2062,2067
2041,2045,2057,2053,2039,1988,2032,2069
2039,2045,2051,2041,2033,1960,2013,2064
2048,2056,2058,2052,2036,1964,2004,2072
2040,2051,2061,2049,2028,1985,2031,2073
2044,2047,2056,2044,2025,2019,2045,2073
2053,2046,2055,2043,2022,2022,2036,2070
2054,2052,2055,2042,2012,2024,2022,2060
2051,2051,2054,2042,2019,2025,2031,2057
2051,2050,2052,2043,2026,2020,2037,2050
2054,2051,2049,2046,2020,2025,2039,2044
2054,2050,2053,2039,2019,2026,2030,2042
2058,2051,2058,2039,2015,2025,2034,2038
2057,2055,2056,2042,2004,2037,2050,2040
2053,2051,2054,2038,2015,2037,2046,2035
2051,2052,2047,2037,2027,2042,2046,2034
2051,2051,2045,2041,2037,2041,2047,2036
2044,2034,2037,2035,2035,2038,2036,2023
2034,2029,2029,2041,2046,2051,2039,2035
2048,2039,2033,2048,2058,2063,2057,2041
2046,2039,2035,2047,2059,2058,2040,2041
2043,2043,2032,2043,2060,2053,2024,2042
2051,2041,2026,2037,2049,2061,2026,2042
2045,2037,2029,2045,2049,2064,2038,2050
2040,2039,2028,2038,2046,2061,2046,2052
2041,2040,2034,2041,2042,2059,2048,2053
2047,2034,2033,2040,2042,2054,2053,2060
2042,2038,2030,2043,2037,2055,2058,2063
2048,2033,2035,2035,2042,2056,2045,2062
2050,2033,2034,2044,2048,2051,2069,2074
2045,2032,2040,2044,2038,2052,2064,2077
2045,2039,2040,2047,2051,2051,2047,2086
2041,2041,2043,2043,2044,2047,2052,2091
2050,2038,2034,2039,2032,2039,2045,2089
2046,2034,2035,2042,2032,2047,2044,2086
2046,2040,2045,2049,2044,2056,2036,2087
2052,2045,2046,2047,2049,2072,2028,2079
2054,2048,2047,2053,2052,2084,2040,2065
2053,2050,2051,2055,2055,2068,2044,2058
2058,2045,2048,2049,2045,2060,2017,2053
2054,2048,2052,2055,2051,2042,2021,2056
2052,2048,2058,2059,2044,2032,2018,2053
2051,2053,2060,2059,2050,2029,2027,2044
2051,2054,2060,2065,2060,2032,2039,2043
2055,2051,2058,2062,2056,2017,2039,2032
2052,2042,2051,2056,2054,2005,2037,2030
2050,2039,2040,2057,2046,2000,2054,2030
2043,2040,2036,2053,2050,2021,2059,2030
2045,2035,2032,2062,2055,2053,2062,2032
2047,2031,2027,2047,2031,2051,2058,2026
2045,2024,2019,2048,2027,2032,2045,2020
2044,2035,2027,2053,2040,2043,2048,2029
2050,2040,2030,2056,2048,2052,2052,2030
2053,2038,2024,2054,2051,2058,2058,2035
2053,2035,2019,2055,2057,2063,2063,2042
2053,2035,2022,2046,2062,2059,2080,2039
2057,2037,2027,2044,2057,2046,2066,2040
2047,2040,2021,2046,2056,2048,2066,2053
2050,2045,2023,2045,2061,2066,2071,2056
2052,2034,2017,2041,2061,2083,2064,2064
2057,2041,2009,2046,2065,2095,2060,2070
2058,2041,2008,2044,2066,2105,2061,2082
2056,2040,2012,2052,2057,2104,2075,2087
2056,2048,2021,2057,2059,2047,2050,2091
2060,2049,2032,2058,2051,2008,2060,2089
2061,2055,2036,2054,2043,2009,2053,2090
2055,2039,2028,2043,2032,2028,2050,2089
2046,2033,2023,2037,2040,2036,2038,2086
2051,2040,2040,2040,2031,2036,2048,2083
2054,2042,2044,2041,2030,2043,2060,2068
2041,2045,2052,2044,2033,2050,2054,2060
2044,2044,2057,2047,2031,2053,2048,2062
2049,2050,2071,2052,2033,2029,2045,2059
2051,2050,2074,2056,2026,2004,2048,2059
2056,2047,2078,2059,2027,2017,2064,2056
2057,2052,2072,2056,2036,2044,2064,2052
2058,2046,2070,2062,2047,2076,2076,2043
2057,2041,2072,2059,2043,2062,2070,2033
2046,2048,2070,2053,2031,2042,2048,2035
2051,2054,2065,2051,2033,2031,2050,2034
2052,2045,2058,2048,2029,2035,2064,2027
2048,2044,2055,2048,2028,2035,2050,2024
2039,2028,2049,2041,2031,2022,2038,2027
2036,2028,2045,2039,2028,2030,2054,2032
2052,2044,2058,2051,2034,2037,2059,2030
2051,2048,2066,2050,2042,2046,2049,2038
2061,2051,2063,2053,2042,2049,2067,2049
2063,2048,2061,2045,2032,2052,2071,2040
2057,2050,2058,2044,2033,2053,2055,2047
2055,2048,2051,2050,2045,2049,2059,2054
2061,2046,2056,2052,2050,2052,2063,2053
2062,2050,2056,2049,2050,2063,2062,2056
2063,2048,2058,2053,2053,2064,2071,2056
2058,2048,2055,2054,2052,2063,2042,2063
2054,2045,2060,2054,2056,2055,2041,2064
2054,2046,2061,2057,2055,2049,2055,2076
2049,2050,2059,2054,2053,2042,2049,2076
2043,2053,2063,2056,2054,2020,2054,2078
2047,2041,2054,2050,2047,2010,2036,2074
2041,2045,2051,2049,2049,2019,2057,2083
2056,2054,2058,2056,2050,2014,2064,2078
2054,2058,2063,2051,2039,1999,2049,2077
2056,2054,2065,2054,2044,2019,2036,2074
2060,2048,2059,2052,2049,2019,2050,2077
2059,2052,2059,2054,2049,2023,2048,2064
2060,2052,2058,2052,2047,2033,2050,2061
2060,2056,2054,2056,2044,2039,2035,2051
2050,2054,2055,2051,2038,2041,2045,2035
2053,2051,2049,2045,2038,2050,2049,2031
2046,2046,2049,2044,2041,2067,2047,2033
2053,2048,2051,2051,2052,2079,2068,2036
2057,2054,2052,2047,2055,2062,2076,2037
2051,2048,2047,2052,2046,2039,2060,2031
2057,2050,2047,2051,2035,2023,2035,2018
2040,2026,2030,2041,2019,2026,2039,2016
2034,2028,2037,2037,2030,2053,2044,2019
2053,2045,2050,2045,2042,2062,2043,2029
2060,2046,2055,2053,2041,2055,2061,2031
2057,2054,2052,2047,2041,2059,2060,2036
2057,2051,2047,2049,2044,2065,2068,2032
2058,2043,2047,2047,2045,2061,2074,2034
2053,2040,2045,2050,2059,2063,2070,2036
2051,2043,2044,2059,2059,2062,2069,2042
2052,2042,2043,2055,2070,2070,2091,2050
2047,2037,2047,2060,2080,2078,2081,2060
2051,2039,2051,2057,2081,2079,2087,2074
2047,2036,2044,2058,2074,2078,2075,2076
2049,2031,2040,2048,2067,2073,2083,2075
2044,2031,2041,2052,2066,2080,2072,2080
2050,2037,2040,2048,2070,2105,2063,2073
2039,2027,2034,2036,2052,2092,2054,2071
2037,2020,2030,2034,2030,2052,2046,2065
2039,2042,2036,2039,2033,1959,2021,2064
2051,2044,2041,2045,2033,1945,2028,2063
2042,2043,2038,2047,2035,1998,2020,2057
2048,2043,2039,2045,2044,2034,2030,2049
2049,2046,2047,2042,2044,2043,2033,2047
2051,2042,2045,2046,2044,2056,2028,2043
2047,2050,2048,2047,2034,2047,2028,2049
2058,2054,2051,2046,2026,2040,2020,2047
2060,2058,2049,2045,2017,2040,2036,2045
2058,2053,2044,2042,2020,2053,2059,2046
2054,2052,2047,2045,2019,2052,2063,2034
2051,2045,2038,2039,2005,2032,2044,2039
2053,2042,2030,2031,2003,2025,2059,2037
2053,2045,2037,2043,2032,2034,2041,2036
2050,2039,2034,2043,2038,2019,2035,2030
2046,2030,2031,2042,2062,2012,2032,2021
2048,2037,2036,2048,2068,2021,2053,2026
2051,2033,2035,2044,2051,2009,2046,2028
2051,2037,2038,2044,2040,1998,2048,2037
2048,2042,2039,2044,2040,1988,2037,2042
2059,2050,2041,2050,2050,2003,2062,2045
2062,2057,2043,2054,2053,2014,2063,2053
2062,2053,2049,2057,2055,2033,2077,2056
2058,2053,2058,2054,2053,2070,2097,2058
2050,2052,2056,2055,2050,2108,2094,2069
2055,2050,2054,2050,2046,2114,2087,2079
2054,2053,2056,2047,2040,2096,2103,2088
2054,2047,2056,2045,2044,2082,2085,2096
2058,2045,2056,2049,2035,2067,2079,2094
2054,2049,2052,2043,2032,2062,2076,2091
2055,2044,2044,2041,2023,2057,2061,2073
2045,2038,2039,2045,2031,2054,2051,2076
2040,2045,2049,2052,2041,2090,2056,2078
2054,2053,2051,2051,2045,2083,2049,2071
2054,2056,2059,2054,2051,2065,2054,2060
2058,2057,2056,2062,2056,2057,2040,2054
2055,2058,2058,2056,2055,2042,2028,2045
2052,2057,2052,2055,2043,2032,2021,2044
2044,2051,2053,2046,2040,2025,2018,2040
2041,2055,2055,2053,2032,2033,2027,2042
2045,2056,2056,2053,2039,2042,2043,2041
2052,2053,2056,2053,2044,2047,2053,2042
2052,2054,2060,2054,2047,2050,2041,2040
2059,2058,2055,2051,2049,2051,2053,2040
2056,2053,2058,2050,2047,2052,2052,2035
2055,2050,2054,2047,2052,2056,2030,2037
2055,2043,2049,2041,2043,2043,2042,2023
2042,2034,2045,2039,2037,2044,2051,2030
2044,2039,2055,2049,2049,2056,2046,2039
2055,2054,2061,2056,2055,2050,2058,2037
2049,2053,2061,2051,2051,2052,2055,2044
2050,2052,2070,2049,2046,2058,2053,2046
2050,2047,2064,2051,2049,2061,2060,2045
2056,2052,2063,2052,2046,2061,2054,2036
2053,2053,2061,2054,2047,2070,2045,2057
2052,2043,2055,2047,2056,2099,2058,2055
2053,2045,2062,2054,2062,2111,2047,2059
2057,2051,2058,2058,2060,2112,2061,2062
2053,2043,2064,2059,2054,2101,2065,2068
2056,2040,2058,2061,2053,2085,2069,2077
2057,2040,2060,2055,2050,2067,2073,2085
2060,2047,2060,2053,2058,2029,2064,2077
2049,2045,2053,2050,2047,1981,2037,2080
2040,2026,2042,2040,2040,1967,2030,2071
2045,2027,2037,2042,2037,1957,2033,2078
2052,2043,2051,2050,2047,1966,2035,2070
2051,2045,2051,2057,2054,1970,2046,2070
2049,2042,2049,2055,2051,2015,2042,2061
2052,2041,2051,2054,2054,2051,2037,2064
2049,2044,2050,2052,2043,2099,2046,2052
2048,2048,2053,2049,2034,2142,2045,2050
2058,2050,2050,2045,2036,2168,2067,2044
2053,2044,2047,2049,2043,2136,2058,2036
2054,2048,2040,2046,2042,2013,2017,2030
2060,2045,2048,2049,2030,1995,2033,2032
2056,2043,2048,2053,2042,2001,2037,2029
2048,2045,2041,2047,2041,1992,2052,2024
2052,2045,2042,2045,2036,2009,2039,2026
2056,2044,2037,2046,2038,2024,2064,2022
2048,2034,2030,2038,2035,2022,2043,2018
2039,2022,2029,2036,2045,2031,2042,2017
2039,2029,2034,2043,2059,2051,2044,2018
2055,2041,2042,2050,2060,2045,2041,2028
2056,2043,2043,2045,2057,2042,2024,2026
2055,2044,2046,2049,2059,2042,2028,2032
2055,2045,2045,2048,2063,2039,2045,2039
2046,2049,2047,2055,2056,2047,2031,2046
2053,2042,2049,2053,2057,2056,2033,2052
2054,2044,2049,2049,2046,2052,2050,2056
2051,2041,2048,2051,2034,2067,2041,2061
2052,2044,2051,2048,2037,2078,2051,2066
2057,2045,2055,2056,2035,2086,2049,2074
2060,2052,2057,2051,2039,2077,2054,2077
2060,2058,2056,2052,2034,2057,2028,2075
2060,2056,2052,2056,2031,2034,2033,2078
2053,2049,2056,2046,2023,2016,2024,2078
2043,2041,2052,2045,2019,2008,2020,2081
2042,2041,2048,2052,2021,2005,2044,2080
2052,2051,2052,2049,2022,2001,2031,2078
2049,2040,2047,2043,2038,1994,2030,2070
2048,2042,2045,2041,2064,2019,2027,2068
2058,2043,2051,2046,2082,2045,2033,2064
2055,2046,2055,2049,2074,2056,2020,2060
2059,2044,2053,2052,2067,2063,2040,2044
2048,2044,2047,2044,2054,2056,2011,2031
2043,2039,2037,2036,2043,2053,2028,2027
2043,2037,2043,2040,2034,2051,2025,2027
2042,2051,2056,2051,2050,2058,2046,2026
2048,2058,2066,2069,2076,2075,2062,2036
2055,2062,2065,2070,2089,2070,2052,2027
2052,2059,2056,2059,2080,2056,2068,2019
2057,2056,2051,2062,2078,2061,2065,2015
2058,2043,2043,2050,2058,2044,2047,2024
2045,2039,2040,2045,2052,2038,2008,2030
2056,2052,2052,2058,2061,2046,2037,2032
2059,2058,2055,2057,2063,2048,2046,2043
2058,2055,2058,2055,2052,2047,2038,2041
2062,2065,2052,2058,2051,2067,2059,2044
2062,2061,2057,2062,2050,2061,2042,2044
2061,2065,2053,2060,2044,2042,2036,2043
2059,2054,2057,2053,2046,2038,2042,2044
2053,2048,2053,2056,2050,2049,2035,2040
2058,2049,2051,2050,2055,2058,2027,2051
2058,2049,2051,2058,2055,2071,2044,2066
2052,2046,2055,2062,2066,2069,2040,2070
2058,2050,2052,2056,2057,2058,2035,2068
2051,2048,2050,2053,2055,2052,2043,2073
2055,2049,2053,2057,2046,2051,2049,2075
2052,2046,2053,2054,2043,2032,2035,2070
2042,2034,2038,2045,2027,2010,2024,2066
2043,2032,2037,2046,2028,2020,2038,2074
2055,2041,2048,2046,2039,2034,2036,2070
2056,2048,2047,2052,2042,2044,2035,2064
2049,2046,2044,2054,2044,2045,2043,2060
2053,2050,2045,2053,2040,2046,2042,2060
2053,2051,2048,2050,2035,2046,2027,2047
2057,2050,2046,2046,2042,2047,2040,2050
2059,2053,2048,2049,2044,2044,2042,2042
2054,2041,2044,2050,2048,2041,2053,2039
2059,2044,2041,2049,2048,2049,2053,2039
2056,2045,2047,2049,2042,2052,2059,2037
2057,2042,2050,2050,2052,2054,2055,2025
2048,2044,2048,2047,2048,2060,2056,2023
2054,2040,2050,2045,2049,2066,2043,2027
2057,2043,2045,2042,2039,2065,2032,2017
2046,2035,2039,2036,2034,2056,2037,2019
2045,2031,2038,2038,2037,2055,2031,2019
2046,2034,2042,2042,2047,2077,2044,2032
2051,2037,2044,2046,2046,2072,2047,2031
2054,2042,2048,2051,2051,2077,2033,2041
2060,2044,2048,2046,2052,2085,2050,2038
2056,2044,2049,2049,2051,2091,2055,2043
2057,2049,2048,2054,2054,2088,2052,2048
2061,2044,2054,2056,2063,2085,2034,2048
2060,2050,2058,2055,2059,2080,2034,2047
2054,2048,2057,2061,2066,2057,2050,2047
2058,2048,2056,2061,2059,2031,2054,2050
2056,2046,2055,2057,2052,2028,2034,2053
2048,2040,2052,2050,2049,2032,2028,2061
2046,2046,2056,2057,2061,2044,2033,2076
2066,2046,2056,2063,2067,2058,2047,2080
2064,2049,2055,2056,2051,2043,2037,2073
2051,2035,2045,2047,2039,2015,2027,2073
2045,2036,2037,2040,2034,2013,2037,2073
2057,2044,2048,2042,2036,2041,2026,2063
2058,2043,2041,2043,2035,2073,2044,2059
2049,2047,2038,2036,2029,2100,2051,2051
2051,2042,2036,2036,2028,2114,2027,2045
2055,2048,2037,2032,2021,2027,2038,2047
2052,2040,2031,2036,2020,1896,2023,2051
2058,2038,2031,2041,2032,1911,2029,2042
2060,2040,2033,2040,2025,1970,2034,2037
2052,2037,2036,2040,2027,2010,2020,2025
2057,2037,2031,2043,2029,2040,2031,2024
2046,2035,2033,2050,2041,2067,2036,2031
2049,2039,2034,2053,2043,2071,2046,2025
2038,2037,2021,2047,2046,2062,2052,2016
2038,2037,2025,2045,2044,2049,2051,2014
2036,2026,2014,2042,2033,2036,2035,2003
2025,2009,2007,2037,2037,2052,2031,2007
2029,2017,2022,2044,2052,2072,2068,2024
2047,2032,2031,2056,2054,2077,2064,2030
2045,2037,2031,2053,2054,2062,2063,2029
2051,2037,2031,2042,2041,2054,2072,2039
2048,2041,2032,2040,2032,2047,2064,2052
2050,2046,2032,2045,2036,2024,2066,2047
