CH1,CH2,CH3,CH4,CH5,CH6,CH7,CH8
2040,2034,2004,2010,2063,2037,2058,2043
2041,2025,2001,2016,2056,2044,2061,2047
2036,2026,2020,2032,2060,2051,2062,2061
2035,2028,2032,2028,2072,2051,2054,2072
2043,2038,2041,2038,2068,2054,2064,2076
2047,2049,2058,2039,2067,2051,2055,2084
2060,2056,2070,2044,2060,2044,2017,2084
2052,2052,2063,2043,2059,2042,2034,2072
2040,2045,2064,2040,2043,2035,2033,2064
2039,2039,2068,2045,2036,2030,2039,2068
2043,2051,2080,2050,2045,2038,2020,2066
2047,2044,2075,2050,2049,2034,2017,2066
2035,2038,2074,2050,2056,2035,2016,2059
2029,2049,2083,2055,2051,2038,2036,2063
2036,2056,2081,2058,2053,2042,2050,2062
2036,2048,2078,2051,2057,2035,2044,2052
2038,2051,2070,2048,2048,2031,2028,2050
2036,2036,2047,2038,2038,2021,2031,2035
2035,2045,2049,2043,2049,2037,2047,2030
2045,2061,2062,2056,2061,2050,2039,2020
2042,2057,2069,2057,2056,2051,2037,2009
2036,2051,2067,2060,2053,2044,2063,2018
2038,2050,2060,2051,2045,2045,2062,2032
2041,2041,2047,2042,2042,2044,2071,2033
2040,2034,2029,2032,2042,2032,2044,2024
2026,2037,2028,2034,2049,2035,2058,2029
2037,2047,2044,2050,2065,2050,2061,2036
2053,2060,2055,2058,2074,2043,2058,2041
2057,2059,2052,2051,2065,2052,2056,2046
2054,2057,2049,2054,2064,2051,2071,2042
2047,2050,2054,2056,2069,2051,2073,2047
2050,2050,2045,2052,2067,2053,2073,2047
2054,2056,2053,2054,2063,2057,2078,2046
2049,2056,2055,2048,2062,2053,2072,2054
2042,2056,2048,2057,2061,2057,2070,2059
2048,2059,2058,2069,2058,2046,2056,2064
2052,2056,2069,2077,2063,2052,2075,2062
2051,2053,2073,2081,2060,2060,2065,2072
2051,2046,2075,2082,2055,2054,2058,2067
2048,2036,2078,2083,2053,2057,2058,2074
2051,2033,2072,2080,2061,2042,2062,2069
2039,2022,2063,2070,2056,2038,2047,2061
2040,2030,2071,2076,2056,2041,2072,2055
2047,2034,2073,2074,2049,2034,2040,2042
2035,2037,2063,2076,2056,2043,2033,2040
2040,2044,2056,2075,2060,2053,2044,2040
2058,2053,2066,2086,2058,2047,2043,2042
2049,2056,2058,2087,2062,2035,2025,2033
2042,2052,2043,2069,2054,2034,2038,2028
2036,2037,2016,2037,2046,2032,2038,2022
2033,2026,1996,2001,2022,2024,2031,2014
2019,2011,1979,1981,1990,2024,2028,2010
2025,2016,1991,1984,1987,2025,2024,2020
2035,2037,2010,1991,2000,2028,2021,2024
2034,2037,2006,1977,2007,2034,2042,2024
2041,2050,2019,1986,2013,2033,2032,2028
2045,2059,2050,2002,2020,2032,2021,2025
2048,2062,2062,2013,2023,2031,2011,2025
2051,2053,2061,2020,2026,2034,2014,2031
2044,2057,2058,2030,2033,2036,2042,2039
2050,2052,2060,2031,2042,2037,2036,2043
2059,2058,2066,2049,2069,2049,2050,2045
2064,2070,2064,2056,2096,2051,2058,2040
2052,2068,2065,2056,2096,2052,2048,2049
2050,2067,2070,2057,2081,2049,2052,2057
2053,2065,2062,2054,2072,2043,2047,2052
2042,2056,2065,2049,2072,2044,2032,2052
2046,2068,2079,2055,2073,2053,2050,2062
2054,2071,2080,2056,2077,2052,2045,2071
2045,2060,2061,2048,2067,2049,2050,2066
2034,2051,2056,2036,2066,2051,2051,2067
2041,2060,2055,2039,2049,2057,2053,2077
2047,2061,2054,2043,2044,2055,2052,2072
2049,2046,2048,2031,2036,2043,2028,2074
2038,2037,2036,2028,2035,2042,2036,2077
2043,2044,2041,2037,2038,2048,2042,2074
2050,2051,2047,2042,2032,2048,2050,2079
2050,2058,2057,2043,2038,2046,2054,2081
2058,2061,2060,2044,2042,2051,2067,2074
2057,2064,2052,2048,2042,2053,2048,2068
2051,2053,2053,2041,2038,2048,2058,2052
2048,2054,2052,2044,2040,2054,2066,2050
2035,2052,2053,2038,2038,2052,2058,2036
2031,2057,2057,2037,2046,2045,2044,2036
2041,2067,2064,2037,2053,2049,2041,2039
2047,2068,2068,2047,2060,2050,2052,2041
2057,2071,2069,2052,2061,2060,2063,2030
2061,2067,2061,2060,2060,2060,2064,2032
2057,2056,2050,2046,2053,2051,2048,2020
2041,2046,2046,2042,2045,2040,2060,2025
2039,2042,2049,2046,2042,2043,2061,2030
2046,2058,2059,2055,2046,2054,2061,2033
2047,2058,2061,2059,2048,2048,2062,2025
2037,2057,2054,2055,2049,2040,2057,2027
2037,2053,2052,2051,2027,2035,2059,2030
2034,2042,2042,2047,2005,2038,2061,2035
2035,2043,2041,2047,2018,2045,2072,2043
2045,2042,2039,2049,2034,2052,2073,2047
2042,2040,2027,2049,2047,2058,2060,2055
2049,2043,2031,2041,2046,2057,2055,2061
2043,2056,2043,2050,2041,2056,2071,2061
2048,2057,2056,2058,2040,2053,2068,2065
2044,2055,2055,2059,2036,2053,2070,2063
2052,2047,2058,2058,2047,2052,2072,2068
2047,2050,2063,2064,2067,2061,2076,2077
2045,2048,2058,2068,2082,2063,2074,2075
2039,2041,2043,2055,2093,2057,2070,2068
2031,2037,2034,2043,2057,2052,2070,2066
2030,2043,2036,2046,2035,2049,2067,2059
2032,2033,2033,2042,2055,2046,2053,2053
2027,2039,2028,2040,2073,2046,2066,2051
2041,2053,2044,2053,2093,2062,2068,2066
2056,2059,2059,2063,2103,2060,2070,2049
2056,2062,2069,2056,2082,2062,2056,2042
2054,2063,2069,2051,2056,2065,2061,2038
2055,2057,2062,2046,2059,2069,2076,2038
2059,2062,2061,2039,2040,2058,2058,2029
2058,2056,2057,2020,2016,2043,2051,2035
2049,2061,2058,2022,2041,2044,2065,2034
2056,2058,2066,2032,2041,2039,2059,2036
2056,2059,2078,2051,2022,2041,2075,2023
2052,2056,2087,2045,1979,2042,2066,2018
2039,2046,2075,2029,1943,2036,2055,2006
2036,2041,2064,2039,1983,2037,2064,2017
2039,2052,2066,2046,2003,2043,2067,2026
2039,2058,2067,2056,2013,2046,2034,2027
2045,2060,2065,2063,2036,2046,2052,2032
2048,2062,2058,2061,2054,2045,2047,2034
2046,2053,2046,2057,2065,2052,2051,2040
2047,2054,2046,2049,2068,2057,2063,2044
2047,2052,2035,2052,2062,2062,2060,2037
2035,2046,2029,2056,2077,2056,2059,2041
2033,2044,2023,2052,2087,2055,2068,2039
2038,2043,2014,2049,2088,2058,2060,2043
2036,2049,2024,2046,2085,2061,2064,2054
2042,2053,2036,2052,2096,2054,2064,2064
2051,2064,2040,2051,2103,2057,2052,2072
2052,2057,2035,2043,2101,2058,2066,2071
2041,2044,2023,2032,2076,2048,2060,2066
2038,2022,2013,2030,2097,2044,2050,2072
2046,2033,2021,2040,2128,2065,2068,2077
2061,2044,2048,2054,2149,2065,2068,2073
2066,2056,2068,2058,2148,2067,2058,2064
2058,2057,2068,2057,2145,2069,2057,2053
2052,2052,2059,2045,2099,2054,2042,2052
2045,2049,2055,2031,2054,2057,2047,2043
2041,2038,2039,2028,2056,2044,2019,2042
2037,2041,2035,2026,2037,2036,2027,2029
2033,2040,2034,2026,1959,2036,2028,2021
2044,2065,2051,2033,1901,2043,2043,2019
2054,2074,2057,2041,1966,2053,2068,2024
2063,2068,2050,2051,2021,2054,2056,2022
2057,2061,2045,2052,2046,2058,2052,2028
2055,2066,2053,2058,2062,2060,2032,2036
2057,2064,2049,2050,2037,2042,2031,2029
2050,2052,2039,2040,2016,2030,2020,2022
2052,2056,2047,2034,2009,2042,2026,2026
2053,2064,2050,2042,2020,2048,2027,2030
2050,2058,2045,2042,2028,2054,2038,2024
2045,2053,2034,2043,2029,2047,2052,2031
2047,2056,2038,2051,2039,2054,2032,2033
2057,2060,2036,2055,2049,2057,2050,2036
2058,2060,2040,2064,2052,2065,2044,2043
2059,2057,2048,2063,2052,2065,2046,2045
2057,2053,2045,2064,2064,2062,2048,2042
2053,2050,2041,2059,2062,2054,2048,2039
2047,2044,2037,2059,2058,2042,2021,2034
2030,2036,2031,2052,2049,2034,2023,2035
2035,2035,2038,2052,2040,2062,2033,2062
2054,2047,2044,2059,2038,2074,2044,2066
2054,2048,2044,2059,2050,2064,2053,2052
2046,2043,2041,2052,2045,2047,2041,2054
2041,2042,2043,2054,2038,2044,2046,2058
2047,2056,2049,2057,2040,2052,2053,2066
2046,2054,2044,2053,2045,2044,2045,2059
2040,2049,2042,2050,2047,2050,2043,2050
2049,2049,2054,2056,2049,2056,2050,2047
2047,2050,2056,2059,2058,2057,2044,2042
2047,2051,2054,2054,2067,2056,2054,2035
2048,2052,2044,2053,2080,2047,2039,2033
2043,2047,2040,2054,2094,2051,2046,2020
2044,2048,2036,2054,2097,2047,2042,2015
2042,2040,2037,2052,2080,2050,2046,2014
2040,2045,2038,2053,2067,2047,2038,2013
2044,2049,2039,2051,2050,2048,2053,2015
2047,2050,2028,2049,2027,2043,2034,2013
2049,2043,2024,2039,2017,2046,2052,2006
2042,2034,2017,2032,2009,2047,2052,2003
2031,2032,2011,2024,2000,2042,2062,1997
2025,2023,2013,2027,2012,2041,2044,2016
2032,2030,2015,2034,2007,2049,2037,2023
2035,2035,2002,2030,2012,2039,2033,2022
2038,2040,2007,2037,2016,2034,2050,2026
2035,2033,2007,2041,2025,2038,2027,2031
2036,2035,2011,2053,2053,2042,2060,2032
2033,2032,2018,2075,2067,2049,2050,2030
2037,2033,2025,2080,2067,2047,2063,2039
2037,2036,2031,2078,2064,2048,2050,2034
2027,2030,2038,2081,2068,2048,2046,2037
2026,2041,2062,2086,2070,2051,2050,2051
2032,2044,2065,2091,2072,2056,2029,2044
2036,2048,2065,2084,2073,2058,2036,2066
2040,2052,2066,2087,2080,2057,2040,2074
2046,2060,2070,2092,2077,2044,2031,2072
2053,2072,2078,2088,2058,2030,2012,2072
2047,2065,2061,2074,2060,2038,2024,2077
2049,2060,2061,2080,2064,2054,2037,2075
2058,2067,2059,2072,2059,2052,2031,2072
2052,2058,2054,2050,2045,2047,2037,2071
2045,2043,2032,2016,2035,2043,2029,2065
2042,2036,2017,1992,2028,2039,2039,2058
2042,2043,2017,1988,2021,2040,2045,2049
2041,2049,2033,2000,2031,2047,2030,2056
2054,2060,2037,2009,2044,2064,2051,2053
2056,2073,2044,2017,2055,2064,2056,2049
2064,2078,2068,2038,2066,2061,2061,2040
2066,2073,2071,2042,2050,2065,2059,2038
2063,2068,2062,2044,2056,2063,2042,2029
2052,2059,2051,2040,2052,2063,2038,2028
2054,2052,2037,2038,2052,2060,2029,2021
2048,2044,2030,2035,2049,2045,2051,2019
2045,2044,2034,2038,2044,2036,2032,2021
2052,2043,2045,2044,2046,2041,2049,2022
2050,2054,2061,2055,2055,2049,2044,2037
2066,2065,2068,2055,2054,2041,2056,2038
2059,2069,2070,2050,2047,2040,2041,2036
2059,2077,2064,2049,2054,2039,2042,2041
2051,2065,2059,2049,2055,2045,2017,2041
2047,2058,2057,2048,2058,2048,2027,2041
2056,2058,2058,2050,2060,2046,2038,2039
2053,2057,2057,2040,2050,2053,2030,2035
2047,2043,2051,2037,2049,2055,2049,2040
2043,2052,2054,2044,2054,2060,2040,2048
2033,2055,2052,2048,2054,2070,2053,2058
2040,2050,2060,2053,2051,2071,2060,2062
2030,2047,2059,2057,2054,2064,2048,2068
2038,2041,2064,2069,2049,2060,2048,2067
2040,2039,2069,2066,2049,2070,2042,2057
2036,2044,2070,2079,2049,2072,2035,2058
2044,2053,2075,2081,2050,2077,2036,2062
2045,2066,2075,2085,2056,2094,2054,2061
2052,2064,2056,2086,2059,2099,2039,2067
2046,2054,2045,2081,2065,2086,2033,2057
2047,2053,2029,2072,2060,2053,2044,2051
2055,2048,2014,2068,2055,2013,2032,2041
2055,2042,2017,2067,2058,2017,2029,2040
2052,2047,2016,2072,2051,2028,2032,2033
2052,2044,2023,2065,2044,2029,2044,2028
2041,2036,2020,2050,2038,2030,2048,2014
2049,2024,2014,2036,2032,2017,2030,2005
2036,2011,1996,2021,2033,2034,2037,2008
2033,2009,1987,2003,2030,2051,2043,2004
2041,2012,1981,2000,2029,2058,2049,2010
2043,2022,1987,2007,2044,2045,2040,2007
2044,2015,1995,2007,2050,2047,2037,1995
2037,2010,1988,2011,2046,2030,2046,1998
2024,2010,1991,2014,2038,2030,2048,2009
2025,2016,2014,2022,2046,2034,2056,2018
2033,2029,2043,2030,2047,2048,2068,2020
2037,2046,2063,2038,2045,2051,2048,2024
2045,2062,2074,2039,2045,2045,2045,2028
2049,2066,2076,2043,2052,2041,2047,2028
2055,2074,2076,2049,2058,2046,2054,2040
2061,2078,2084,2048,2058,2046,2053,2046
2056,2078,2083,2039,2055,2043,2042,2054
2059,2072,2075,2040,2052,2040,2032,2054
2061,2068,2074,2037,2054,2040,2042,2060
2057,2071,2073,2049,2055,2027,2059,2065
2064,2074,2074,2042,2054,2027,2050,2061
2059,2077,2072,2050,2057,2041,2032,2064
2059,2074,2070,2051,2059,2053,2021,2059
2059,2074,2068,2051,2057,2044,2028,2051
2050,2063,2063,2048,2047,2039,2038,2052
2045,2068,2069,2053,2049,2048,2069,2060
2055,2070,2069,2055,2042,2041,2042,2054
2050,2071,2071,2050,2030,2034,2056,2052
2045,2068,2063,2043,2030,2034,2055,2052
2053,2064,2061,2049,2042,2041,2038,2047
2057,2066,2058,2051,2051,2042,2012,2042
2051,2060,2056,2056,2039,2037,2016,2032
2044,2054,2058,2054,2040,2035,2031,2028
2051,2063,2058,2063,2045,2042,2031,2023
2050,2061,2064,2061,2052,2037,2030,2033
2058,2067,2062,2058,2045,2036,2039,2033
2063,2066,2058,2062,2044,2043,2045,2030
2065,2065,2061,2058,2049,2047,2050,2028
2066,2062,2054,2052,2043,2052,2055,2023
2058,2062,2063,2054,2039,2043,2044,2020
2059,2049,2054,2045,2028,2038,2041,2013
2047,2046,2035,2038,2016,2040,2036,2002
2039,2048,2032,2043,2014,2046,2033,2008
2040,2052,2037,2053,2013,2043,2046,2018
2051,2064,2044,2049,2017,2047,2051,2022
2053,2064,2044,2052,2005,2040,2054,2025
2051,2063,2046,2049,1992,2043,2048,2026
2052,2065,2049,2050,2000,2048,2060,2031
2051,2060,2049,2045,1998,2049,2071,2038
2044,2060,2051,2050,1990,2052,2075,2043
2049,2060,2046,2053,2004,2052,2077,2051
2056,2059,2045,2049,2023,2058,2064,2057
2057,2054,2045,2058,2038,2057,2062,2061
2050,2050,2041,2053,2052,2062,2063,2061
2047,2046,2034,2046,2029,2065,2068,2066
2044,2041,2031,2048,2062,2057,2053,2061
2043,2039,2029,2050,2101,2063,2043,2050
2034,2035,2033,2060,2106,2061,2045,2050
2032,2036,2037,2066,2105,2064,2049,2049
2040,2054,2057,2080,2083,2064,2036,2049
2042,2053,2044,2069,2059,2060,2044,2050
2038,2049,2042,2071,2057,2056,2070,2047
2045,2042,2036,2070,2078,2058,2027,2039
2044,2045,2029,2066,2051,2044,2027,2036
2047,2038,2021,2053,2028,2041,2029,2029
2042,2031,2019,2061,2068,2052,2028,2024
2036,2028,2021,2062,2083,2059,2037,2021
2041,2022,2012,2053,2067,2063,2034,2017
2028,2013,1996,2036,2040,2051,2030,2008
2037,2017,2005,2039,2028,2046,2031,2011
2047,2037,2016,2051,2020,2042,2012,2007
2044,2037,2008,2048,2016,2034,2008,2008
2043,2030,2003,2050,2020,2005,2005,2013
2042,2028,2006,2046,2013,1994,1991,2016
2035,2019,1996,2035,2000,2005,2001,2007
2031,2014,1985,2028,2004,2021,2029,2011
2046,2028,1996,2030,2015,2034,2026,2010
2045,2032,2009,2036,2037,2048,2038,2010
2042,2038,2021,2049,2048,2056,2031,2018
2041,2051,2038,2051,2044,2054,2043,2015
2042,2053,2056,2064,2042,2048,2038,2020
2045,2065,2075,2075,2040,2050,2050,2031
2060,2073,2080,2084,2037,2052,2060,2045
2062,2072,2083,2084,2040,2062,2064,2051
2062,2077,2087,2093,2047,2065,2092,2059
2068,2076,2076,2096,2041,2070,2074,2066
2063,2067,2077,2096,2048,2061,2062,2069
2052,2061,2074,2087,2036,2058,2042,2062
2050,2051,2073,2078,2021,2055,2045,2057
2047,2047,2072,2070,2025,2046,2050,2064
2045,2041,2067,2068,2028,2032,2043,2061
2038,2040,2060,2066,2041,2038,2047,2063
2037,2049,2057,2062,2062,2041,2064,2064
2043,2051,2048,2056,2057,2037,2065,2056
2047,2048,2040,2052,2036,2037,2069,2057
2052,2046,2037,2057,2036,2045,2062,2053
2050,2056,2046,2064,2046,2055,2039,2045
2050,2053,2040,2062,2053,2062,2044,2041
2047,2045,2027,2044,2044,2050,2041,2025
2045,2037,2018,2028,2032,2042,2064,2033
2048,2035,2020,2033,2027,2044,2056,2027
2049,2043,2050,2045,2035,2039,2062,2027
2054,2048,2061,2061,2044,2037,2067,2028
2053,2055,2072,2077,2041,2050,2041,2024
2054,2067,2100,2081,2051,2046,2046,2018
2056,2069,2108,2071,2049,2045,2040,2023
2049,2072,2117,2070,2040,2050,2060,2019
2044,2066,2112,2070,2035,2042,2045,2020
2037,2067,2113,2084,2050,2045,2062,2031
2054,2082,2123,2096,2067,2052,2072,2036
2054,2075,2104,2089,2059,2054,2082,2040
2050,2072,2088,2078,2049,2053,2059,2036
2056,2064,2077,2079,2059,2055,2057,2036
2054,2053,2059,2074,2068,2059,2056,2039
2058,2049,2037,2073,2075,2058,2059,2036
2057,2051,2040,2072,2099,2064,2052,2039
2058,2053,2050,2086,2149,2073,2064,2046
2062,2051,2058,2094,2177,2080,2061,2044
2059,2043,2053,2093,2183,2077,2051,2037
2048,2030,2041,2080,2161,2058,2045,2048
2040,2007,2011,2052,2117,2029,2020,2057
2028,1999,1988,2042,2089,2009,2012,2056
2032,2008,1981,2033,2087,2015,1997,2050
2030,2022,1999,2039,2065,2021,2016,2049
2040,2028,2010,2038,2035,2023,2023,2048
2034,2041,2025,2044,1935,2021,2040,2058
2045,2054,2037,2028,1847,2015,2056,2055
2044,2056,2033,2024,1883,2010,2028,2048
2046,2054,2033,2015,1926,2016,2045,2049
2046,2051,2039,2013,1949,2026,2066,2059
2056,2048,2032,1996,1958,2027,2058,2053
2062,2039,2024,1991,1966,2024,2036,2047
2057,2032,2027,1995,1973,2024,2024,2044
2053,2040,2043,2012,2007,2037,2040,2035
2045,2066,2072,2029,2038,2055,2053,2026
2041,2072,2081,2037,2057,2060,2040,2019
2044,2075,2092,2045,2067,2055,2068,2024
2056,2074,2093,2039,2049,2048,2070,2022
2054,2066,2086,2038,2060,2057,2071,2024
2037,2057,2068,2032,2076,2062,2076,2019
2030,2046,2058,2039,2074,2058,2060,2020
2031,2043,2055,2033,2065,2057,2050,2029
2041,2050,2055,2034,2057,2065,2059,2030
2050,2054,2052,2033,2042,2060,2047,2023
2051,2050,2056,2038,2043,2056,2055,2028
2053,2052,2059,2044,2040,2060,2041,2035
2054,2049,2058,2044,2032,2058,2027,2043
2044,2046,2057,2052,2040,2060,2058,2047
2047,2047,2055,2068,2041,2062,2047,2046
2048,2048,2059,2072,2035,2067,2057,2055
2049,2039,2062,2062,2037,2061,2062,2062
2050,2045,2059,2059,2036,2055,2064,2068
2042,2037,2047,2048,2017,2044,2050,2064
2044,2036,2043,2041,2015,2029,2046,2073
2039,2038,2042,2038,2018,2004,2042,2072
2041,2034,2044,2025,2004,1981,2023,2070
2040,2034,2046,2014,1994,1974,2036,2068
2036,2027,2043,2010,1989,1993,2042,2069
2043,2030,2048,2008,1993,2021,2052,2068
2049,2051,2051,2027,2035,2063,2065,2067
2059,2053,2057,2056,2084,2080,2078,2070
2059,2053,2061,2066,2106,2075,2066,2070
2054,2046,2057,2076,2118,2079,2052,2063
2052,2043,2059,2078,2115,2085,2037,2057
2048,2054,2071,2069,2081,2073,2045,2051
2043,2058,2065,2058,2041,2053,2047,2043
2036,2051,2060,2043,2021,2041,2032,2037
2032,2046,2055,2050,2029,2046,2057,2040
2045,2052,2061,2051,2058,2047,2055,2033
2054,2053,2062,2042,2057,2032,2055,2031
2052,2050,2051,2043,2025,2026,2056,2026
2051,2043,2049,2042,2009,2027,2067,2024
2041,2043,2054,2043,2015,2018,2062,2018
2024,2032,2037,2033,2013,2012,2054,2014
2025,2034,2027,2034,2025,2038,2058,2019
2038,2046,2041,2063,2071,2066,2082,2033
2047,2052,2055,2076,2111,2082,2093,2042
2050,2050,2053,2082,2133,2089,2081,2037
2048,2042,2053,2084,2145,2092,2083,2032
2046,2048,2051,2078,2141,2080,2064,2039
2044,2046,2051,2075,2147,2079,2067,2043
2045,2043,2051,2067,2124,2064,2066,2047
2040,2043,2050,2049,2029,2047,2063,2048
2025,2033,2040,2037,1969,2030,2051,2049
2031,2029,2036,2049,2004,2046,2046,2055
2034,2032,2041,2065,2039,2054,2070,2060
2042,2039,2053,2064,2048,2051,2054,2062
2034,2043,2054,2065,2049,2042,2029,2064
2039,2032,2047,2051,2042,2046,2050,2058
2033,2024,2027,2039,2031,2040,2037,2060
2029,2022,2026,2044,2044,2051,2047,2069
2042,2035,2050,2060,2061,2064,2070,2079
2054,2045,2056,2070,2071,2064,2069,2072
2050,2047,2058,2068,2067,2063,2067,2065
2045,2045,2049,2060,2061,2061,2054,2055
2042,2037,2036,2054,2057,2060,2055,2047
2039,2034,2026,2047,2045,2050,2058,2041
2039,2028,2014,2035,2039,2046,2061,2034
2034,2029,2009,2032,2054,2047,2068,2036
2045,2037,2019,2038,2064,2052,2066,2041
2052,2043,2026,2040,2071,2051,2053,2034
2052,2037,2030,2045,2063,2047,2064,2034
2048,2047,2030,2049,2066,2047,2041,2033
2051,2048,2034,2057,2060,2044,2069,2036
2048,2041,2040,2059,2054,2041,2072,2035
2046,2034,2043,2063,2052,2033,2062,2025
2040,2037,2049,2065,2047,2045,2060,2026
2047,2052,2071,2076,2049,2053,2068,2036
2045,2054,2071,2080,2050,2052,2067,2035
2045,2044,2076,2074,2048,2056,2070,2031
2036,2050,2088,2074,2047,2053,2074,2036
2041,2050,2097,2084,2057,2056,2074,2040
2045,2055,2106,2103,2069,2058,2056,2043
2047,2045,2102,2110,2070,2056,2057,2049
2046,2046,2088,2108,2069,2060,2065,2053
2047,2046,2069,2105,2073,2054,2059,2066
2047,2048,2053,2096,2070,2053,2068,2071
2053,2042,2047,2073,2062,2050,2059,2070
2050,2033,2036,2055,2054,2042,2060,2062
2045,2040,2037,2053,2055,2039,2057,2064
2032,2045,2051,2052,2058,2039,2055,2061
2043,2047,2056,2046,2051,2037,2021,2063
2037,2057,2048,2046,2049,2040,2046,2072
2044,2067,2073,2047,2057,2056,2049,2079
2055,2073,2076,2045,2063,2057,2040,2078
2058,2067,2054,2041,2053,2051,2064,2072
2056,2060,2044,2025,2051,2052,2051,2073
2047,2047,2034,2017,2043,2054,2053,2067
2053,2053,2023,2005,2037,2056,2058,2054
2050,2048,2012,1995,2030,2042,2047,2046
2057,2052,2020,2004,2039,2046,2039,2037
2057,2056,2036,2021,2043,2053,2048,2044
2057,2063,2034,2028,2051,2053,2066,2036
2058,2053,2028,2012,2050,2039,2060,2045
2057,2049,2025,1996,2040,2036,2067,2034
2045,2043,2026,1995,2032,2032,2055,2028
2046,2047,2031,2003,2036,2037,2069,2030
2048,2053,2045,2017,2039,2040,2067,2025
2045,2047,2058,2022,2025,2027,2059,2033
2051,2040,2075,2056,2028,2021,2058,2031
2038,2023,2073,2070,2030,2024,2052,2025
2036,2023,2091,2095,2039,2037,2071,2039
2051,2041,2094,2102,2065,2051,2078,2050
2064,2047,2087,2105,2072,2057,2082,2058
2066,2054,2094,2115,2070,2063,2085,2061
2068,2066,2088,2118,2068,2060,2079,2062
2061,2056,2072,2117,2068,2048,2070,2060
2053,2052,2045,2114,2063,2049,2068,2064
2044,2046,2019,2108,2060,2045,2062,2064
2042,2034,1999,2090,2067,2049,2049,2073
2046,2043,1999,2087,2061,2059,2058,2077
2049,2043,1993,2070,2062,2084,2058,2076
2049,2048,1993,2052,2036,2085,2068,2079
2037,2024,1982,2020,2026,2045,2037,2077
2025,2017,1977,1994,2038,2029,2036,2074
2023,2018,1977,1978,2041,2028,2046,2068
2025,2024,2003,1970,2037,2034,2047,2061
2039,2041,2034,1981,2024,2044,2042,2066
2056,2058,2080,2009,2015,2051,2050,2063
2067,2072,2111,2031,2022,2056,2060,2063
2074,2082,2118,2042,2020,2057,2054,2047
2065,2071,2115,2031,1983,2035,2030,2041
2063,2062,2102,2024,1998,2028,2038,2035
2060,2060,2090,2035,2022,2044,2050,2030
2058,2049,2081,2035,2028,2052,2048,2023
2054,2040,2075,2026,2021,2056,2056,2023
2046,2039,2067,2018,2038,2054,2049,2019
2038,2032,2055,2021,2059,2061,2058,2023
2033,2031,2043,2019,2067,2057,2038,2019
2040,2033,2039,2027,2077,2058,2037,2018
2045,2038,2041,2026,2076,2068,2050,2023
2051,2040,2039,2024,2066,2067,2044,2018
2044,2036,2048,2021,2026,2086,2043,2025
2054,2051,2068,2017,1982,2084,2037,2028
2052,2059,2072,2016,1957,2054,2031,2032
2046,2058,2069,2014,1942,2017,2017,2035
2052,2058,2064,2013,1950,2008,2034,2041
2055,2058,2065,2036,2009,1997,2056,2062
2059,2058,2069,2057,2060,2004,2065,2058
2052,2052,2063,2055,2068,2026,2072,2065
2057,2052,2061,2056,2080,2041,2053,2067
2042,2049,2069,2067,2084,2051,2063,2086
2046,2056,2079,2063,2074,2047,2054,2094
2054,2049,2071,2057,2076,2040,2041,2092
2049,2041,2060,2053,2095,2040,2024,2086
2045,2031,2046,2046,2129,2041,2042,2073
2038,2031,2044,2053,2168,2047,2033,2077
2053,2045,2052,2061,2196,2052,2043,2075
2056,2047,2056,2069,2209,2056,2055,2068
2053,2047,2053,2072,2226,2057,2052,2061
2047,2042,2050,2074,2246,2058,2035,2060
2052,2045,2044,2083,2213,2062,2050,2061
2050,2044,2042,2074,2149,2056,2048,2053
2053,2042,2040,2059,2074,2057,2054,2047
2058,2043,2034,2033,2014,2043,2049,2032
2043,2034,2036,2008,1893,2026,2056,2028
2045,2038,2031,2009,1886,2015,2054,2026
2047,2041,2031,2018,1931,2018,2057,2028
2044,2036,2034,2026,1969,2023,2039,2031
2049,2033,2036,2029,1984,2020,2033,2035
2046,2033,2038,2030,2005,2015,2045,2040
2053,2033,2035,2038,2014,2013,2063,2034
2039,2022,2034,2025,2025,2023,2059,2022
2032,2024,2037,2031,2036,2038,2070,2026
2037,2042,2060,2045,2042,2052,2072,2036
2051,2049,2074,2051,2044,2055,2067,2042
2061,2057,2073,2055,2056,2053,2069,2045
2056,2052,2063,2055,2062,2060,2074,2046
2057,2051,2053,2060,2058,2061,2066,2053
2051,2043,2056,2060,2061,2067,2071,2051
2053,2037,2047,2059,2070,2078,2069,2047
2054,2043,2043,2061,2068,2082,2067,2052
2051,2044,2043,2050,2065,2073,2065,2052
2046,2036,2044,2048,2056,2045,2044,2053
2041,2041,2049,2055,2062,2040,2044,2055
2045,2044,2066,2070,2067,2049,2032,2059
2042,2040,2064,2064,2064,2048,2042,2068
2038,2035,2053,2058,2060,2039,2052,2066
2043,2040,2051,2051,2047,2036,2036,2067
2036,2032,2049,2050,2050,2039,2014,2070
2041,2044,2060,2060,2049,2049,2041,2075
2056,2055,2067,2066,2061,2052,2050,2077
2059,2057,2069,2062,2070,2056,2056,2069
2054,2057,2072,2068,2080,2057,2053,2069
2049,2060,2071,2078,2087,2061,2050,2069
2059,2064,2070,2088,2100,2063,2059,2065
2061,2068,2071,2078,2096,2064,2052,2056
2056,2059,2067,2075,2087,2055,2054,2042
2050,2052,2056,2075,2085,2056,2053,2038
2041,2051,2058,2084,2081,2062,2066,2041
2044,2053,2063,2084,2085,2064,2066,2040
2042,2049,2061,2073,2065,2069,2070,2043
2047,2048,2058,2046,2029,2061,2056,2042
2049,2053,2055,2018,1994,2050,2057,2036
2052,2052,2049,1975,1961,2035,2051,2029
2032,2030,2038,1941,1940,2027,2037,2023
2036,2029,2037,1963,1954,2042,2058,2034
2049,2040,2035,2003,1981,2064,2063,2042
2061,2038,2040,2028,1980,2053,2055,2058
2062,2036,2049,2037,1982,2034,2033,2061
2067,2028,2049,2036,1979,2031,2015,2056
2056,2024,2046,2027,1964,2032,2022,2046
2042,2030,2049,2034,1972,2027,2020,2036
2031,2033,2049,2047,1978,2024,2028,2034
2031,2033,2039,2042,1963,2014,2035,2036
2028,2032,2031,2033,1954,2028,2030,2039
2031,2034,2028,2034,1950,2036,2020,2041
2034,2036,2013,2025,1968,2036,1982,2042
2022,2030,2003,2031,2029,2036,1999,2042
2018,2029,2020,2054,2112,2053,2034,2057
2029,2036,2039,2073,2148,2043,2058,2074
2035,2041,2049,2095,2151,2028,2037,2078
2028,2034,2058,2098,2117,2029,2043,2070
2024,2031,2065,2089,2084,2029,2050,2071
2032,2031,2058,2072,2063,2020,2045,2062
2029,2027,2047,2084,2065,2015,2030,2060
2034,2031,2066,2102,2090,2032,2032,2054
2034,2038,2071,2114,2086,2032,2028,2044
2040,2028,2068,2116,2072,2026,2033,2041
2030,2029,2068,2113,2060,2029,2048,2039
2029,2038,2064,2124,2057,2041,2029,2033
2029,2045,2054,2122,2070,2055,2026,2036
2033,2043,2035,2102,2077,2061,2025,2048
2040,2039,2004,2074,2070,2061,2019,2034
2036,2033,1973,2030,2076,2057,2024,2026
2030,2027,1972,2009,2066,2062,2022,2020
2039,2050,2003,2017,2094,2082,2034,2025
2037,2050,2016,2018,2112,2093,2010,2027
2030,2046,2020,2000,2045,2096,2033,2030
2034,2051,2042,2007,2039,2105,2029,2045
2048,2069,2065,2031,2076,2078,2037,2061
2060,2071,2066,2029,2053,2026,2023,2055
2053,2070,2073,2026,2027,2022,2026,2054
2059,2078,2069,2009,2008,2038,2050,2060
2063,2076,2066,2001,1997,2058,2074,2057
2058,2067,2061,2006,2042,2064,2040,2057
2060,2069,2050,2009,2064,2059,2059,2056
2057,2058,2048,2008,2056,2048,2040,2068
2060,2063,2048,2007,2088,2039,2035,2078
2049,2046,2050,2038,2176,2044,2055,2081
2046,2044,2058,2070,2278,2090,2069,2090
2066,2057,2064,2099,2325,2117,2075,2096
2063,2051,2065,2098,2344,2118,2062,2086
2058,2053,2055,2096,2344,2113,2058,2085
2060,2046,2048,2076,2178,2096,2034,2069
2047,2042,2039,2036,1847,2046,2029,2074
2045,2046,2042,2001,1749,2018,2016,2074
2045,2049,2044,2013,1869,2001,2030,2068
2052,2056,2047,2035,1919,1986,2027,2065
2046,2049,2040,2039,1935,1993,2032,2050
2034,2044,2036,2041,1967,2013,2045,2050
2039,2050,2040,2041,2006,2030,2049,2047
2042,2056,2033,2052,2080,2035,2051,2044
2048,2052,2031,2060,2142,2054,2043,2043
2051,2043,2028,2062,2150,2052,2025,2035
2049,2048,2032,2049,2051,2041,2053,2032
2058,2054,2038,2046,2020,2036,2041,2040
2055,2055,2045,2040,2013,2039,2054,2037
2047,2050,2044,2021,1989,2017,2019,2019
2032,2037,2045,2003,1941,2006,2027,2003
2024,2034,2045,2006,1899,2004,2006,2002
2019,2026,2045,2009,1923,2006,2032,2006
2025,2026,2044,2003,1935,2016,2045,2008
2037,2035,2043,2004,1884,2013,2034,2019
2035,2025,2031,1997,1862,2015,2018,2021
2037,2011,2020,2001,1871,2021,2024,2018
2033,2018,2017,2009,1916,2004,2009,2020
2033,2029,2024,2039,1997,2010,2044,2034
2039,2035,2037,2062,2054,2036,2058,2042
2044,2038,2044,2066,2078,2062,2056,2043
2049,2045,2055,2069,2075,2081,2050,2059
2055,2048,2059,2072,2069,2086,2051,2066
2047,2048,2054,2064,2107,2083,2051,2067
2047,2049,2050,2047,2096,2069,2041,2071
2044,2047,2044,2030,2056,2055,2037,2072
2052,2057,2042,2020,2062,2041,2023,2076
2056,2056,2045,2013,2024,2020,2024,2079
2050,2043,2036,2016,2039,2025,2013,2085
2066,2051,2042,2036,2074,2042,2024,2088
2061,2066,2056,2036,2034,2033,2024,2081
2060,2063,2058,2027,2020,2037,2040,2081
2066,2071,2072,2048,2049,2061,2015,2076
2067,2068,2069,2047,2108,2059,2042,2067
2064,2060,2061,2041,2152,2059,2032,2051
2057,2054,2060,2046,2194,2080,2005,2042
2062,2056,2064,2071,2225,2089,2047,2058
2073,2069,2064,2073,2227,2083,2070,2059
2065,2062,2056,2078,2238,2085,2064,2057
2059,2053,2039,2074,2230,2076,2034,2047
2052,2037,2027,2046,2108,2033,2014,2037
2048,2041,2036,2026,1992,1989,2021,2032
2047,2039,2033,2012,1871,1982,2012,2022
2046,2036,2030,2024,1864,2005,2014,2009
2034,2031,2026,2044,1941,2038,2015,2005
2027,2032,2030,2063,1985,2075,2022,2010
2041,2045,2044,2068,2014,2095,2031,2019
2046,2046,2041,2053,2004,2103,2026,2027
2047,2042,2039,2049,1995,2076,2007,2033
2054,2043,2038,2041,1995,2037,2006,2039
2060,2045,2050,2045,2007,2009,1992,2050
2062,2053,2054,2054,1987,1981,2022,2064
2057,2053,2054,2058,1983,1936,2028,2056
2058,2044,2044,2070,2044,1965,2008,2058
2062,2048,2041,2096,2134,2025,2034,2063
2070,2053,2059,2118,2221,2060,2046,2069
2052,2050,2056,2106,2216,2068,2043,2053
2039,2041,2044,2088,2186,2063,2034,2062
2041,2043,2040,2064,2112,2046,2034,2069
2053,2044,2038,2039,2027,2045,2048,2075
2056,2042,2030,2030,1987,2053,2029,2062
2039,2024,2016,2031,1979,2050,2039,2064
2037,2022,2022,2026,1935,2036,2034,2064
2046,2037,2032,2030,1934,2034,2026,2061
2050,2040,2027,2040,1973,2042,2023,2054
2045,2036,2033,2042,2009,2058,2032,2040
2047,2035,2043,2056,2080,2078,2040,2043
2043,2043,2053,2056,2102,2040,2050,2048
2060,2046,2058,2055,2052,2011,2048,2056
2061,2049,2053,2058,2011,2027,2043,2064
2062,2047,2045,2036,1966,2043,2054,2061
2063,2036,2023,2020,1944,2043,2057,2047
2046,2031,2027,2018,1942,2058,2043,2036
2052,2048,2050,2035,1947,2065,2064,2035
2047,2049,2050,2030,1966,2083,2064,2029
2045,2047,2054,2033,2022,2095,2076,2024
2042,2037,2052,2042,2043,2092,2076,2026
2051,2033,2036,2031,2018,2075,2056,2034
2058,2034,2032,2035,2029,2076,2035,2023
2047,2039,2029,2052,2098,2083,2037,2019
2034,2042,2029,2082,2195,2100,2032,2013
2038,2045,2036,2100,2217,2087,2033,2018
2037,2049,2030,2072,2062,2042,2020,2016
2042,2046,2026,2047,1947,1986,2016,2034
2041,2040,2037,2065,1982,1998,2025,2046
2047,2044,2049,2074,2005,2009,2037,2053
2046,2052,2054,2064,2005,2027,2039,2049
2046,2060,2066,2076,2078,2068,2039,2059
2055,2060,2071,2081,2110,2082,2049,2057
2046,2051,2077,2067,2118,2080,2049,2061
2048,2049,2079,2063,2065,2062,2051,2068
2046,2057,2090,2054,2001,2043,2048,2073
2046,2060,2087,2058,2012,2033,2038,2075
2042,2050,2073,2058,2017,2021,2028,2070
2048,2042,2064,2068,2071,2040,2056,2080
2052,2052,2072,2085,2144,2062,2042,2072
2050,2048,2067,2090,2162,2071,2053,2074
2058,2048,2061,2096,2155,2080,2057,2071
2058,2054,2062,2091,2128,2094,2064,2068
2056,2061,2057,2085,2118,2098,2061,2051
2048,2058,2060,2084,2111,2089,2057,2049
2045,2059,2053,2084,2100,2085,2051,2052
2049,2064,2051,2075,2022,2072,2061,2047
2057,2069,2061,2075,2010,2070,2046,2043
2052,2066,2072,2085,2016,2063,2064,2047
2054,2066,2073,2085,2011,2064,2051,2044
2067,2063,2074,2081,2023,2053,2068,2042
2067,2055,2068,2068,1982,2033,2061,2025
2056,2044,2040,2026,1869,2019,2042,2008
2029,2021,2016,1998,1840,2015,2010,2002
2024,2019,2032,2017,1894,2022,2006,1993
2031,2024,2052,2025,1930,2005,1993,1992
2052,2029,2068,2041,2008,1995,2016,1991
2055,2032,2077,2073,2148,2028,2026,2018
2049,2035,2078,2115,2240,2040,2037,2027
2046,2041,2082,2122,2183,2041,2055,2033
2051,2050,2070,2123,2203,2096,2052,2037
2044,2058,2069,2158,2332,2173,2076,2057
2063,2079,2076,2172,2362,2197,2081,2060
2060,2078,2072,2155,2345,2169,2073,2054
2049,2069,2055,2113,2285,2094,2049,2036
2037,2058,2035,2075,2150,2042,2037,2048
2046,2049,2033,2030,1906,2034,2023,2058
2043,2041,2026,1977,1812,2024,2021,2052
2036,2048,2030,1958,1851,2020,2018,2049
2042,2047,2031,1938,1811,2007,2015,2043
2035,2029,2011,1938,1860,1994,2018,2061
2037,2033,2013,1991,1943,2008,2034,2073
2066,2064,2043,2034,1976,2020,2050,2084
2064,2069,2050,2042,2062,2033,2062,2080
2059,2061,2065,2067,2105,2047,2057,2074
2063,2063,2071,2061,2046,2045,2075,2076
2063,2068,2081,2050,1993,2029,2049,2075
2069,2073,2078,2031,1850,2019,2057,2064
2059,2077,2076,2014,1786,2046,2064,2056
2061,2068,2069,2026,1889,2081,2061,2049
2054,2058,2058,2041,1911,2080,2053,2047
2054,2056,2053,2068,1962,2053,2033,2036
2043,2046,2046,2039,1875,1997,2022,2021
2032,2037,2028,1984,1781,1904,1987,2012
2034,2032,2024,1991,1811,1891,2010,2011
2040,2042,2041,2043,2066,2009,2009,2000
2028,2034,2047,2083,2289,2092,2036,1998
2030,2037,2049,2079,2299,2089,2035,2011
2038,2044,2050,2070,2230,2066,2041,2013
2046,2041,2044,2050,2168,2055,2024,2019
2046,2045,2047,2029,2122,2067,2015,2022
2054,2043,2046,2029,2152,2088,2014,2026
2054,2052,2049,2053,2212,2102,2050,2039
2060,2050,2053,2066,2241,2112,2058,2052
2062,2047,2052,2073,2208,2118,2046,2058
2079,2056,2050,2073,2142,2107,2080,2074
2094,2062,2057,2072,2095,2098,2067,2064
2082,2055,2047,2066,2089,2104,2073,2075
2077,2053,2051,2072,2042,2079,2082,2072
2059,2056,2060,2081,1972,2022,2086,2079
2052,2036,2042,2060,1981,2013,2047,2072
2040,2023,2035,2040,1913,2012,2058,2056
2032,2010,2029,2014,1839,2019,2045,2040
2014,2018,2032,2042,2084,2042,2038,2039
2013,2029,2031,2052,2239,2058,2063,2043
2036,2034,2031,2055,2224,2067,2040,2048
2025,2033,2024,2050,2101,2044,2036,2045
2038,2035,2040,2059,2001,2043,2040,2036
2039,2040,2038,2066,2026,2045,2033,2020
2042,2039,2043,2055,2051,2040,2022,2028
2045,2050,2044,2054,2065,2040,2041,2037
2045,2050,2046,2039,2054,2035,2045,2030
2044,2045,2047,2035,2024,2025,2037,2019
2040,2038,2046,2031,2030,2021,2043,2022
2047,2040,2050,2036,2057,2025,2031,2022
2039,2049,2056,2040,2050,2018,2027,2019
2041,2051,2059,2035,2020,2008,2024,2019
2045,2046,2059,2036,2015,2015,2039,2014
2042,2041,2050,2036,2020,2036,2028,2008
2034,2029,2037,2027,2009,2047,2048,2011
2036,2023,2030,2026,2004,2045,2031,2020
2036,2029,2034,2033,1991,2037,2037,2019
2052,2045,2054,2050,1999,2014,2036,2023
2058,2058,2055,2049,2015,2002,2036,2017
2035,2051,2045,2051,2032,2030,2006,2028
2050,2050,2043,2059,2054,2076,2039,2049
2067,2042,2036,2066,2080,2094,2053,2059
2064,2032,2038,2066,2099,2110,2045,2052
2059,2030,2038,2068,2109,2115,2058,2050
2049,2031,2042,2073,2087,2105,2072,2060
2054,2048,2051,2083,2063,2104,2059,2067
2052,2042,2044,2077,2057,2106,2050,2050
2032,2041,2042,2068,2057,2102,2043,2059
2031,2048,2047,2070,2064,2098,2038,2064
2034,2042,2034,2066,2057,2082,2046,2065
2035,2036,2033,2077,2077,2038,2052,2076
2058,2048,2036,2083,2094,2006,2062,2072
2054,2044,2024,2069,2066,2014,2061,2063
2049,2039,2023,2070,2047,2029,2062,2054
2043,2046,2027,2066,2026,2053,2066,2048
2034,2056,2033,2060,2012,2078,2057,2040
2041,2063,2040,2050,2050,2090,2052,2040
2042,2056,2035,2037,2091,2086,2042,2032
2037,2053,2030,2024,2073,2049,2046,2031
2040,2046,2032,2025,2077,2003,2044,2024
2043,2049,2038,2016,2055,1995,2047,2023
2045,2047,2047,2015,2032,2010,2048,2021
2043,2041,2044,2015,2002,2023,2049,2016
2041,2039,2046,2023,2002,2021,2052,2019
2044,2045,2052,2010,1947,2004,2045,2020
2043,2050,2060,2015,2002,2001,2045,2026
2041,2052,2050,2020,2046,2021,2049,2033
2057,2055,2060,2025,2028,2028,2055,2043
2055,2063,2045,2023,2018,2029,2072,2047
2065,2056,2037,2036,2071,2035,2069,2048
2049,2045,2030,2054,2094,2040,2062,2035
2043,2047,2042,2068,2098,2059,2070,2040
2058,2062,2045,2063,2044,2071,2083,2059
2066,2059,2046,2053,1891,2062,2085,2066
2065,2060,2055,2037,1876,2083,2080,2065
2060,2062,2057,2057,2029,2120,2102,2068
2055,2063,2062,2086,2161,2149,2095,2066
2060,2055,2064,2097,2212,2138,2084,2068
2052,2055,2069,2093,2212,2126,2071,2073
2048,2056,2081,2088,2224,2085,2066,2075
2061,2067,2086,2076,2212,2040,2054,2071
2045,2041,2062,2041,2192,1979,2030,2055
2038,2017,2040,2003,1975,1926,2014,2046
2027,2024,2034,2024,1954,1957,2027,2037
2032,2029,2049,2075,2012,2005,2031,2037
2038,2038,2065,2101,2078,2043,2048,2040
2051,2051,2070,2083,2084,2055,2072,2041
2052,2054,2069,2058,2061,2056,2065,2041
2056,2057,2065,2045,2053,2046,2078,2038
2060,2064,2076,2036,2030,2035,2073,2033
2061,2068,2080,2035,1991,2027,2072,2038
2062,2059,2067,2037,1981,2036,2046,2031
2053,2055,2049,2037,1996,2041,2068,2024
2033,2051,2044,2034,1985,2034,2058,2026
2035,2046,2044,2043,1975,2030,2052,2025
2045,2053,2045,2043,1985,2042,2050,2034
2050,2056,2048,2042,1985,2038,2057,2029
2052,2052,2042,2049,2006,2031,2047,2026
2041,2051,2042,2058,2071,2039,2063,2032
2055,2055,2036,2070,2132,2039,2057,2029
2055,2049,2029,2062,2144,2041,2056,2032
2044,2042,2018,2052,2130,2042,2034,2030
2036,2037,2020,2052,2121,2054,2041,2021
2040,2046,2035,2057,2101,2046,2042,2025
2036,2036,2027,2057,2062,2042,2042,2027
2037,2036,2028,2055,2062,2053,2060,2036
2053,2034,2020,2061,2091,2065,2061,2046
2052,2027,2017,2061,2101,2065,2067,2052
2041,2022,2010,2055,2089,2054,2060,2062
2043,2033,2033,2065,2087,2056,2070,2061
2044,2050,2051,2074,2131,2079,2078,2068
2051,2064,2066,2087,2169,2098,2078,2060
2052,2053,2057,2075,2179,2092,2062,2052
2043,2043,2048,2069,2164,2083,2061,2059
2041,2048,2060,2061,2069,2072,2045,2065
2058,2053,2068,2052,2065,2060,2052,2077
2063,2070,2079,2048,2161,2072,2058,2075
2069,2065,2080,2044,2163,2068,2062,2080
2064,2068,2069,2041,2061,2053,2042,2056
2049,2061,2070,2033,1981,2027,2029,2039
2049,2063,2070,2021,1923,2036,2033,2035
2059,2069,2071,2021,1919,2057,2052,2030
2049,2072,2072,2017,1881,2045,2053,2020
2052,2071,2060,2007,1850,1998,2041,2024
2052,2060,2053,1997,1829,1943,2018,2021
2058,2054,2050,2026,1965,1990,2038,2036
2060,2062,2062,2072,2082,2051,2050,2027
2068,2060,2058,2092,2125,2091,2059,2020
2061,2062,2059,2092,2124,2099,2058,2011
2053,2049,2052,2070,2095,2065,2042,2014
2050,2048,2052,2059,2075,2033,2036,2019
2049,2049,2048,2051,2062,2010,2039,2019
2043,2041,2051,2057,2062,2016,2042,2019
2038,2046,2055,2064,2068,2015,2046,2029
2045,2050,2061,2063,2054,2022,2042,2026
2044,2047,2063,2060,2047,2034,2034,2034
2051,2050,2049,2060,2047,2043,2058,2042
2052,2048,2052,2062,2051,2041,2064,2049
2051,2048,2046,2064,2057,2020,2078,2050
2044,2044,2039,2069,2057,2012,2056,2046
2039,2042,2039,2065,2057,2002,2040,2048
2043,2039,2040,2072,2049,2008,2028,2049
2039,2032,2041,2067,2044,2010,2032,2040
2032,2030,2034,2058,2034,1993,2033,2042
2030,2027,2029,2052,2030,1987,2021,2045
2026,2027,2026,2056,2026,1996,2009,2049
2030,2035,2032,2062,2038,2035,2033,2061
2050,2045,2043,2070,2045,2085,2041,2056
2056,2049,2045,2072,2050,2092,2052,2053
2054,2043,2034,2069,2042,2090,2047,2039
2040,2038,2030,2064,2047,2099,2053,2037
2036,2034,2032,2069,2056,2116,2053,2030
2035,2036,2029,2066,2057,2101,2034,2019
2042,2035,2024,2062,2046,2082,2030,2021
2035,2037,2018,2048,2052,2076,2049,2022
2046,2046,2026,2049,2046,2078,2052,2027
2056,2061,2036,2050,2032,2081,2069,2026
2048,2061,2043,2046,2025,2072,2066,2027
2048,2062,2041,2040,2026,2063,2056,2033
2048,2061,2033,2039,2043,2074,2044,2026
2039,2050,2046,2054,2065,2087,2057,2025
2032,2052,2058,2075,2101,2093,2053,2022
2044,2061,2064,2084,2096,2076,2047,2031
2049,2056,2057,2073,2080,2058,2025,2021
2044,2047,2048,2061,2062,2045,2030,2018
2038,2040,2039,2061,2052,2059,2014,2034
2043,2049,2042,2057,2058,2065,2023,2044
2050,2058,2065,2062,2052,2070,2015,2048
2048,2058,2070,2055,2046,2053,2022,2038
2044,2058,2062,2052,2047,2051,2026,2045
2044,2055,2053,2052,2057,2051,2016,2048
2041,2046,2052,2050,2052,2036,2032,2057
2047,2046,2047,2046,2052,2032,2043,2056
2038,2051,2050,2047,2049,2037,2044,2060
2041,2054,2061,2051,2050,2046,2044,2071
2054,2066,2064,2050,2048,2043,2036,2067
2052,2062,2060,2045,2025,2034,2038,2062
2045,2053,2050,2042,2024,2026,2028,2060
2038,2053,2054,2051,2031,2028,2013,2066
2045,2058,2056,2052,2033,2029,2025,2058
2050,2060,2055,2046,2030,2025,2029,2049
2043,2061,2054,2051,2043,2032,2040,2057
2050,2062,2058,2058,2042,2033,2043,2046
2054,2061,2060,2061,2055,2039,2044,2046
2057,2061,2056,2059,2056,2041,2036,2042
2048,2056,2052,2059,2075,2037,2035,2030
2045,2050,2044,2064,2090,2040,2033,2027
2050,2049,2050,2060,2092,2051,2044,2026
2042,2050,2056,2067,2102,2056,2055,2022
2053,2047,2054,2065,2075,2057,2059,2023
2051,2051,2046,2066,2063,2060,2043,2027
2054,2043,2052,2062,2060,2060,2052,2033
2051,2040,2048,2057,2052,2062,2045,2023
2045,2028,2037,2039,2008,2046,2038,2016
2031,2030,2029,2034,1962,2036,2051,2023
2043,2043,2037,2043,1989,2044,2056,2025
2051,2043,2035,2056,2022,2042,2046,2025
2043,2037,2040,2066,2044,2038,2045,2028
2041,2036,2040,2072,2061,2046,2042,2034
2043,2034,2041,2070,2063,2054,2054,2042
2049,2030,2030,2075,2059,2070,2048,2040
2036,2030,2041,2070,2058,2075,2042,2040
2030,2032,2044,2078,2059,2087,2048,2041
2029,2028,2045,2076,2054,2090,2055,2045
2027,2026,2030,2068,2050,2118,2062,2050
2026,2020,2015,2063,2044,2134,2065,2052
2023,2013,2006,2060,2025,2124,2056,2060
2026,2030,2013,2060,2006,2037,2028,2069
2027,2035,2008,2045,1965,1915,1987,2060
2024,2024,2000,2021,1942,1869,1985,2052
2024,2023,2004,2014,1954,1937,2003,2046
2028,2036,2035,2031,2012,2015,2022,2052
2040,2053,2063,2057,2037,2057,2057,2065
2043,2060,2080,2069,2026,2086,2062,2063
2045,2067,2075,2076,2049,2109,2091,2063
2048,2056,2060,2064,2037,2112,2076,2044
2050,2055,2061,2064,2025,2106,2072,2043
2046,2051,2049,2062,2001,2098,2069,2043
2053,2049,2028,2044,1998,2094,2050,2032
2053,2043,2014,2032,1997,2079,2061,2019
2044,2032,1998,2002,1967,2046,2048,2008
2026,2020,1991,1995,2085,2069,2039,2009
2027,2034,2011,2036,2152,2064,2052,2025
2054,2060,2038,2065,2114,2047,2058,2026
2066,2062,2042,2076,2114,2046,2046,2011
2052,2046,2030,2065,2116,2042,2036,2009
2048,2035,2023,2057,2118,2030,2045,2025
2058,2045,2040,2070,2104,2039,2042,2023
2054,2064,2060,2069,2098,2041,2038,2022
2043,2069,2065,2064,2088,2035,2053,2029
2041,2070,2070,2067,2090,2047,2060,2035
2043,2072,2075,2073,2091,2053,2069,2041
2049,2065,2076,2069,2072,2049,2043,2040
2050,2064,2070,2060,2060,2041,2054,2042
2049,2060,2072,2062,2060,2035,2024,2043
2046,2057,2062,2057,2079,2029,2051,2046
2051,2063,2068,2064,2079,2037,2055,2057
2056,2060,2064,2073,2082,2050,2060,2056
2050,2060,2068,2070,2077,2055,2063,2052
2051,2066,2075,2073,2073,2048,2046,2046
2048,2066,2074,2064,2064,2036,2041,2044
2041,2052,2060,2059,2056,2027,2038,2048
2041,2049,2051,2056,2056,2030,2061,2045
2045,2061,2054,2060,2052,2037,2029,2038
2049,2055,2058,2063,2053,2036,2023,2033
2043,2057,2055,2062,2052,2036,2036,2032
2047,2053,2050,2071,2057,2045,2035,2030
2044,2057,2045,2064,2061,2052,2048,2022
2035,2050,2044,2064,2062,2061,2054,2009
2040,2046,2040,2073,2059,2058,2038,2013
2039,2045,2033,2065,2055,2054,2045,2006
2041,2046,2029,2063,2062,2059,2043,2008
2038,2039,2025,2064,2062,2072,2050,2002
2041,2042,2026,2062,2065,2073,2046,2001
2040,2039,2019,2066,2055,2067,2042,2000
2046,2040,2023,2064,2055,2055,2035,1999
2046,2039,2021,2072,2051,2055,2045,1985
2036,2030,2016,2064,2045,2052,2030,1984
2035,2029,2017,2061,2054,2062,2058,1989
2038,2037,2029,2075,2058,2074,2032,1993
2041,2044,2029,2078,2055,2071,2021,1987
2042,2044,2036,2071,2056,2070,2030,1995
2047,2043,2038,2073,2050,2051,2036,1999
2049,2047,2055,2072,2046,2036,2027,2001
2044,2049,2058,2073,2050,2036,2056,1998
2042,2053,2055,2077,2052,2062,2048,2000
2034,2044,2051,2077,2054,2082,2060,2009
2044,2042,2052,2074,2055,2096,2085,2013
2046,2051,2060,2077,2060,2100,2065,2014
2048,2056,2063,2080,2057,2080,2053,2022
2050,2056,2059,2074,2056,2019,2047,2027
2046,2057,2065,2064,2051,2002,2052,2028
2039,2055,2066,2062,2042,2023,2030,2019
2036,2047,2053,2046,2038,2035,2045,2019
2032,2038,2040,2046,2043,2043,2032,2023
2033,2045,2037,2042,2038,2046,2045,2012
2039,2044,2039,2045,2041,2042,2039,2011
2032,2038,2035,2054,2037,2037,2035,2006
2039,2044,2038,2040,2043,2039,2056,2009
2044,2045,2033,2028,2033,2032,2055,2010
2045,2044,2040,2017,2033,2034,2046,2017
2044,2049,2044,2023,2030,2041,2075,2008
2047,2052,2053,2028,2040,2049,2076,2012
2045,2052,2058,2042,2046,2052,2079,2006
2056,2054,2064,2048,2052,2053,2068,2000
2056,2054,2063,2052,2051,2055,2070,1998
2056,2053,2069,2060,2058,2054,2052,1988
2051,2053,2056,2053,2053,2031,2037,2000
2057,2054,2059,2051,2034,2016,2022,2000
2045,2051,2064,2041,2028,2018,2047,1990
2043,2049,2062,2043,2033,2028,2043,1983
2054,2057,2075,2056,2053,2044,2043,1995
2058,2062,2086,2058,2060,2058,2052,2000
2058,2060,2073,2050,2063,2064,2047,1999
2057,2058,2063,2054,2057,2066,2080,2005
2060,2056,2052,2051,2060,2061,2051,2012
2063,2052,2049,2046,2058,2060,2067,2019
2059,2053,2047,2050,2054,2058,2060,2017
2058,2047,2044,2051,2057,2051,2073,2029
2051,2051,2059,2053,2063,2046,2068,2032
2059,2052,2056,2057,2061,2049,2059,2033
2057,2048,2053,2057,2068,2049,2074,2038
2059,2044,2039,2048,2056,2052,2056,2037
2055,2042,2039,2046,2056,2058,2047,2044
2059,2049,2034,2049,2062,2065,2064,2046
2058,2036,2026,2048,2064,2072,2066,2046
2052,2035,2028,2049,2057,2068,2066,2045
2054,2048,2046,2060,2060,2069,2060,2046
2065,2054,2048,2060,2059,2068,2060,2041
2053,2048,2051,2061,2054,2061,2063,2031
2051,2044,2052,2049,2052,2056,2065,2032
2056,2039,2047,2046,2046,2064,2073,2021
2046,2035,2051,2044,2044,2054,2073,2016
2048,2035,2047,2053,2044,2057,2063,2008
2046,2043,2049,2046,2043,2043,2051,2007
2050,2046,2056,2047,2045,2056,2041,2016
2064,2050,2052,2038,2038,2042,2060,2010
2057,2042,2061,2041,2046,2041,2065,2009
2057,2041,2067,2051,2041,2030,2068,2007
2055,2045,2071,2045,2031,2025,2068,2002
2044,2038,2065,2038,2016,2033,2054,1988
2037,2032,2053,2026,1996,2028,2043,1982
2039,2017,2044,2023,1980,2014,2039,1992
2037,2024,2043,2019,1961,1999,2055,2002
2041,2033,2046,2013,1946,1976,2053,2006
2043,2035,2042,2022,1989,1965,2057,2009
2042,2040,2044,2037,2056,2004,2073,2014
2058,2054,2058,2064,2114,2058,2075,2025
2062,2069,2072,2082,2106,2097,2057,2030
2058,2066,2067,2058,2075,2103,2070,2025
2059,2062,2062,2047,2095,2091,2065,2032
2059,2058,2058,2046,2112,2053,2049,2036
2066,2050,2056,2059,2113,2039,2054,2052
2067,2056,2059,2057,2089,2030,2064,2063
2064,2046,2051,2059,2095,2038,2064,2059
2057,2046,2047,2061,2108,2050,2064,2064
2061,2048,2054,2060,2115,2054,2079,2062
2056,2049,2055,2054,2099,2036,2065,2056
2052,2037,2045,2044,2081,2024,2055,2058
2048,2040,2043,2045,2068,2022,2056,2062
2054,2039,2047,2042,2056,2032,2065,2063
2052,2047,2054,2038,2064,2033,2073,2051
2053,2043,2051,2038,2062,2030,2062,2045
2048,2051,2056,2039,2060,2045,2064,2039
2049,2054,2061,2037,2051,2065,2029,2031
2054,2060,2072,2041,2043,2054,2019,2020
2051,2052,2065,2043,2051,2060,1999,2026
2046,2048,2062,2046,2053,2083,2033,2024
2054,2050,2059,2056,2058,2092,2061,2018
2060,2051,2057,2054,2041,2078,2065,2020
2048,2042,2049,2040,2023,2069,2038,2008
2042,2036,2047,2035,2028,2076,2049,2001
2042,2041,2048,2045,2058,2077,2036,2003
2047,2039,2053,2047,2087,2067,2025,2007
2045,2034,2047,2041,2087,2058,2028,2010
2046,2036,2042,2042,2095,2066,2047,2020
2058,2046,2049,2047,2080,2062,2051,2017
2054,2042,2044,2043,2059,2055,2031,2027
2051,2038,2036,2030,2036,2036,2033,2028
2048,2033,2030,2017,1982,2026,2019,2015
2045,2031,2024,1995,1851,2011,2031,2017
2042,2032,2025,2003,1843,2017,2038,2021
2048,2034,2032,2030,1892,2027,2044,2034
2051,2040,2036,2040,1940,2037,2025,2032
2052,2028,2036,2040,1988,2026,2037,2030
2047,2027,2034,2054,2083,2024,2025,2043
2046,2015,2029,2060,2132,2035,2038,2047
2033,2016,2020,2060,2131,2048,2020,2046
2037,2015,2020,2059,2108,2017,2032,2062
2046,2023,2019,2055,2093,1983,2024,2061
2041,2014,2018,2061,2085,2029,2029,2059
2053,2027,2026,2068,2089,2052,2046,2054
2063,2043,2040,2070,2077,2046,2037,2048
2052,2041,2036,2062,2075,2032,2030,2046
2055,2035,2033,2049,2060,2013,2032,2036
2048,2029,2023,2042,2043,2028,2045,2033
2055,2036,2030,2031,2033,2059,2043,2034
2054,2032,2038,2033,2027,2071,2048,2027
2058,2043,2047,2032,2031,2069,2065,2028
2057,2049,2068,2046,2041,2072,2056,2024
2063,2063,2101,2066,2059,2077,2067,2021
2069,2072,2127,2080,2102,2082,2040,2012
2060,2056,2112,2078,2088,2072,2048,2004
2049,2040,2083,2074,2072,2076,2038,1997
2047,2033,2078,2086,2075,2087,2049,1997
2049,2036,2080,2091,2066,2076,2049,2000
2044,2010,2060,2081,2048,2053,2039,1997
2038,2008,2054,2071,2035,2052,2035,2001
2041,2014,2049,2073,2057,2061,2036,2010
2050,2026,2052,2084,2067,2076,2043,2017
2047,2033,2045,2086,2055,2068,2030,2009
2040,2033,2037,2068,2043,2047,2027,2008
2049,2034,2024,2071,2057,2024,2006,2031
2048,2036,2011,2060,2056,2021,2034,2036
2053,2032,2002,2039,2053,2026,2028,2037
2057,2026,1996,2024,2042,2043,2022,2040
2052,2027,2000,2008,2041,2072,2045,2045
2052,2032,2000,1999,2059,2090,2058,2052
2056,2033,2021,1992,2054,2070,2052,2048
2058,2043,2041,1992,2051,2058,2032,2057
2064,2048,2063,2009,2058,2007,2024,2065
2059,2052,2073,2013,2030,1995,2044,2065
2045,2052,2072,2017,2016,2016,2025,2067
2048,2054,2071,2025,2040,2041,2011,2068
2066,2064,2078,2036,2075,2066,2025,2064
2062,2063,2069,2033,2063,2086,1995,2049
2054,2064,2068,2025,2021,2091,2015,2037
2051,2062,2074,2016,2031,2068,1999,2024
2034,2058,2080,2005,1999,2004,1988,2028
2047,2069,2081,2017,2005,1947,2015,2045
2061,2077,2094,2059,2137,1982,2051,2055
2064,2070,2080,2047,2070,1998,2037,2038
2050,2049,2056,2006,1940,2016,2036,2013
2035,2043,2056,2035,1980,2049,2048,2003
2029,2040,2061,2046,2000,2071,2044,2001
2032,2040,2056,2047,2030,2075,2064,2004
2032,2042,2055,2062,2107,2105,2068,2006
2050,2046,2049,2069,2116,2123,2063,2016
2054,2036,2052,2075,2089,2144,2072,2021
2054,2045,2075,2097,2085,2177,2090,2025
2062,2060,2087,2110,2081,2172,2072,2024
2055,2053,2080,2106,2062,2091,2054,2016
2050,2051,2075,2102,2051,1974,2034,2019
2048,2045,2069,2099,2056,1962,2033,2021
2044,2044,2060,2095,2067,2015,2048,2029
2044,2036,2045,2092,2081,2050,2056,2038
2050,2037,2041,2087,2083,2064,2076,2047
2056,2036,2031,2077,2085,2069,2058,2054
2054,2031,2021,2062,2082,2074,2060,2063
2048,2027,2018,2056,2082,2071,2051,2065
2047,2034,2021,2054,2083,2071,2055,2062
2040,2036,2025,2050,2069,2066,2055,2067
2044,2036,2019,2016,2051,2044,2058,2064
2041,2030,2005,1977,2041,2038,2040,2054
2022,2016,1998,1964,2060,2060,2049,2057
2021,2029,2029,1992,2102,2090,2063,2065
2039,2049,2061,2010,2103,2105,2062,2067
2050,2063,2065,2019,2105,2066,2053,2061
2057,2065,2068,2026,2105,2016,2049,2053
2056,2072,2072,2031,2086,2013,2041,2055
2061,2069,2065,2034,2070,2030,2045,2044
2063,2061,2048,2032,2044,2045,2063,2040
2050,2055,2042,2031,2041,2044,2061,2045
2048,2049,2033,2030,2014,2044,2057,2035
2047,2049,2029,2016,1970,2044,2056,2029
2053,2057,2041,2022,1994,2054,2052,2030
2052,2057,2041,2027,2023,2061,2038,2028
2055,2056,2042,2037,2033,2073,2041,2025
2054,2052,2041,2037,2045,2081,2038,2024
2056,2052,2037,2043,2052,2085,2040,2024
2057,2042,2029,2034,2038,2055,2017,2013
2045,2039,2024,2030,2031,2019,2027,2021
2051,2039,2025,2032,2013,2004,2028,2023
2047,2041,2022,2029,2032,2017,2019,2028
2042,2043,2022,2042,2055,2033,2016,2029
2049,2045,2029,2038,2059,2047,2041,2029
2063,2052,2036,2045,2058,2046,2050,2039
2066,2050,2041,2042,2065,2053,2051,2039
2061,2053,2040,2036,2065,2044,2045,2045
2064,2046,2037,2037,2064,2048,2043,2052
2057,2041,2035,2043,2061,2051,2049,2051
2058,2038,2030,2048,2063,2049,2042,2053
2057,2037,2029,2043,2060,2055,2045,2064
2060,2035,2035,2044,2054,2046,2033,2068
2058,2044,2041,2045,2040,2036,2030,2069
2062,2046,2048,2050,2035,2042,2010,2073
2057,2052,2049,2048,2045,2054,2027,2062
2052,2044,2047,2037,2063,2066,2020,2064
2061,2043,2049,2041,2073,2072,2041,2056
2062,2059,2057,2048,2079,2068,2049,2060
2059,2056,2061,2058,2086,2046,2035,2062
2060,2054,2066,2062,2108,2038,2021,2068
2059,2062,2074,2074,2085,2038,2058,2069
2066,2066,2070,2075,2028,2042,2065,2061
2057,2061,2066,2068,1976,2036,2051,2058
2050,2054,2055,2052,1896,2022,2022,2047
2051,2048,2056,2047,1895,2020,2029,2050
2051,2040,2050,2044,1950,2025,2033,2046
2062,2050,2060,2065,1995,2026,2023,2054
2068,2056,2071,2065,1994,2033,2058,2057
2071,2061,2065,2047,2012,2022,2043,2037
2056,2052,2056,2017,1997,2007,2056,2032
2054,2044,2045,2017,2004,2019,2032,2034
2056,2053,2056,2033,2009,2034,2057,2040
2061,2050,2054,2040,2015,2052,2056,2035
2059,2056,2065,2052,2068,2090,2074,2037
2059,2055,2062,2045,2078,2093,2069,2034
2063,2056,2061,2043,2072,2082,2073,2043
2059,2048,2049,2052,2102,2078,2056,2045
2055,2052,2052,2068,2127,2086,2061,2046
2056,2051,2049,2070,2115,2067,2046,2053
2052,2040,2042,2049,2082,2049,2044,2052
2050,2039,2040,2047,2075,2052,2050,2062
2056,2038,2036,2047,2086,2055,2044,2062
2050,2041,2029,2031,2058,2033,2045,2064
2045,2033,2020,2029,2034,2025,2041,2066
2045,2036,2019,2039,2050,2034,2026,2069
2046,2031,2014,2033,2047,2041,2034,2074
2046,2024,2012,2039,2041,2046,2051,2080
2053,2026,2015,2031,2032,2046,2051,2073
2043,2027,2010,2034,2036,2058,2052,2083
2046,2036,2021,2039,2049,2083,2074,2083
2051,2040,2029,2043,2058,2095,2074,2084
2056,2042,2026,2052,2066,2094,2061,2066
2050,2040,2039,2046,2070,2086,2056,2058
2052,2037,2039,2047,2079,2082,2033,2058
2045,2034,2032,2041,2073,2067,2057,2047
2054,2029,2026,2043,2076,2057,2055,2040
2048,2031,2035,2047,2063,2041,2056,2035
2046,2039,2045,2045,2056,2027,2056,2047
2047,2042,2056,2059,2077,2035,2035,2038
2045,2046,2065,2070,2077,2039,2042,2035
2047,2045,2078,2079,2092,2032,2042,2036
2054,2050,2094,2084,2089,2031,2054,2038
2059,2054,2090,2084,2084,2032,2052,2039
2063,2053,2104,2091,2058,2013,2024,2027
2050,2041,2103,2077,2023,2005,2027,2029
2051,2049,2107,2083,2020,2012,2044,2038
2062,2062,2112,2089,2012,2020,2042,2042
2064,2065,2106,2070,1989,2024,2052,2034
2060,2060,2098,2060,2013,2047,2053,2039
2063,2066,2101,2086,2061,2059,2056,2044
2069,2068,2094,2089,2059,2050,2046,2045
2065,2060,2075,2067,2021,2039,2031,2050
2055,2038,2043,2044,2011,2044,2060,2058
2054,2034,2031,2053,2073,2068,2070,2072
2055,2035,2029,2044,2101,2067,2067,2088
2061,2040,2034,2029,2096,2067,2059,2086
2052,2037,2027,2012,2071,2062,2038,2082
2050,2032,2024,1994,2044,2064,2068,2088
2050,2030,2024,1992,2031,2060,2075,2092
2046,2025,2031,1996,2018,2043,2060,2096
2050,2037,2037,2003,2011,2020,2061,2092
2059,2049,2040,2005,2009,2004,2064,2098
2063,2057,2038,2002,2027,2014,2044,2088
2068,2053,2039,2023,2058,2029,2052,2082
2062,2055,2053,2035,2077,2043,2036,2083
2061,2058,2061,2040,2066,2038,2042,2070
2068,2059,2062,2031,2016,2048,2043,2052
2062,2059,2062,2020,1976,2050,2054,2045
2062,2057,2058,2029,1967,2058,2038,2044
2072,2062,2074,2050,1972,2056,2046,2039
2065,2063,2079,2066,1997,2031,2024,2036
2064,2057,2075,2073,2040,2027,2022,2037
2057,2050,2073,2067,2064,2032,2039,2031
2048,2042,2063,2075,2083,2020,2025,2029
2043,2035,2058,2072,2093,2037,2033,2032
2037,2026,2045,2078,2150,2055,2030,2029
2038,2033,2047,2085,2191,2069,2033,2029
2038,2032,2051,2087,2164,2085,2048,2034
2039,2032,2051,2094,2139,2100,2040,2041
2036,2036,2044,2093,2132,2106,2049,2032
2040,2033,2038,2081,2097,2107,2069,2035
2040,2025,2030,2057,2015,2073,2066,2043
2041,2026,2039,2033,1962,2038,2041,2056
2052,2020,2032,2017,2011,2025,2039,2065
2054,2026,2036,2017,2032,1993,2053,2074
2063,2040,2045,2032,2027,2001,2052,2084
2070,2047,2047,2036,2022,2006,2048,2084
2061,2042,2027,2020,2017,2022,2036,2092
2064,2043,2026,2004,2013,2045,2038,2074
2053,2047,2030,2010,2012,2069,2037,2067
2045,2041,2036,2008,2014,2098,2064,2066
2040,2042,2034,1999,2011,2118,2073,2077
2035,2029,2019,1986,2008,2125,2044,2068
2024,2029,2010,1981,1999,2124,2050,2074
2036,2033,2014,1992,2030,2109,2049,2075
2033,2032,2011,1997,2062,2060,2028,2073
2028,2028,2024,2009,2095,2036,2034,2075
2047,2053,2043,2036,2165,2010,2057,2082
2059,2068,2070,2050,2187,2009,2036,2069
2056,2066,2064,2039,2126,2027,2044,2061
2057,2056,2060,2039,2095,2043,2057,2056
2059,2062,2058,2041,2099,2039,2030,2057
2055,2062,2057,2042,2105,2040,2033,2056
2054,2059,2060,2039,2085,2040,2049,2052
2058,2056,2072,2032,2054,2033,2051,2043
2057,2062,2082,2032,2021,2007,2041,2036
2053,2059,2089,2017,1965,1997,2046,2036
2057,2053,2083,2024,1962,2001,2027,2032
2047,2038,2073,2028,1975,1998,2016,2016
2035,2030,2061,2031,2008,1997,2025,2020
2037,2029,2063,2046,2049,2019,2034,2046
2052,2037,2063,2056,2078,2032,2056,2049
2053,2043,2062,2063,2080,2033,2054,2051
2057,2041,2058,2060,2068,2034,2060,2051
2055,2042,2058,2063,2061,2036,2054,2053
2057,2038,2050,2060,2048,2036,2051,2053
2055,2032,2039,2063,2077,2036,2036,2060
2044,2025,2037,2052,2056,2035,2033,2048
2036,2021,2030,2043,2005,2032,2050,2056
2039,2021,2026,2025,1984,2024,2045,2071
2041,2017,2020,2016,2005,2030,2048,2077
2037,2024,2028,2015,2021,2044,2025,2078
2040,2024,2031,2009,1996,2040,2021,2075
2040,2018,2031,2005,2010,2045,2018,2074
2033,2013,2021,2009,2022,2049,2012,2072
2023,2008,2015,2009,2006,2052,2040,2072
2031,2018,2024,2018,2017,2072,2068,2076
2046,2031,2039,2033,2064,2085,2083,2080
2060,2039,2043,2039,2104,2084,2080,2084
2059,2032,2048,2037,2109,2067,2066,2072
2053,2037,2047,2030,2094,2049,2057,2064
2053,2037,2050,2035,2111,2052,2086,2062
2059,2038,2049,2040,2143,2074,2092,2057
2061,2043,2058,2042,2165,2094,2089,2059
2057,2045,2071,2043,2141,2105,2072,2054
2062,2048,2065,2036,2022,2103,2081,2049
2051,2051,2062,2037,2006,2121,2092,2049
2058,2054,2060,2039,2007,2141,2109,2053
2064,2050,2056,2042,1993,2127,2078,2044
2060,2049,2052,2027,1924,2088,2047,2034
2052,2043,2038,1991,1756,2021,2029,2025
2039,2042,2036,1992,1760,1989,2022,2025
2046,2050,2040,2010,1796,1978,2021,2029
2051,2058,2047,2037,1872,1980,2051,2049
2065,2076,2062,2082,2033,2030,2065,2058
2078,2084,2067,2092,2119,2059,2092,2058
2068,2075,2060,2075,2157,2076,2092,2058
2062,2057,2051,2065,2145,2085,2080,2060
2062,2052,2053,2052,2049,2049,2075,2060
2052,2054,2050,2029,1956,2011,2051,2057
2052,2046,2045,2012,1964,1982,2042,2059
2049,2044,2053,2028,2061,1983,2041,2060
2046,2042,2050,2041,2098,1992,2033,2053
2042,2039,2054,2054,2083,2017,2054,2058
2043,2045,2057,2046,2032,2048,2060,2071
2042,2038,2053,2038,2007,2073,2068,2072
2039,2043,2060,2050,2011,2102,2039,2074
2042,2046,2067,2061,2001,2090,2056,2084
2050,2047,2075,2055,1981,2075,2059,2078
2051,2051,2070,2054,1996,2068,2050,2078
2058,2045,2060,2053,2010,2063,2045,2080
2059,2036,2050,2052,2050,2072,2043,2068
2053,2040,2042,2070,2075,2092,2073,2070
2059,2048,2066,2101,2118,2094,2078,2069
2061,2054,2078,2094,2086,2052,2049,2060
2056,2051,2076,2065,2064,2021,2060,2056
2053,2045,2067,2047,2051,1954,2055,2045
2051,2042,2054,2043,2057,1960,2046,2040
2050,2042,2042,2037,2036,1992,2050,2034
2049,2042,2027,2023,2009,2015,2049,2032
2048,2037,2036,2024,2032,2025,2054,2036
2054,2039,2052,2043,2046,2042,2051,2038
2053,2039,2049,2052,2004,2043,2023,2022
2041,2031,2040,2046,1960,2036,2029,2023
2042,2023,2035,2040,1962,2026,2029,2034
2046,2031,2026,2047,2019,2002,2047,2048
2052,2043,2035,2073,2075,2004,2071,2057
2052,2038,2050,2079,2076,2028,2080,2047
2053,2031,2052,2081,2110,2084,2082,2050
2050,2024,2052,2095,2091,2111,2091,2049
2046,2030,2052,2096,2075,2093,2058,2054
2042,2032,2054,2096,2068,2080,2064,2059
2043,2030,2054,2088,2048,2068,2058,2056
2043,2027,2047,2075,2074,2069,2039,2056
2039,2032,2056,2073,2078,2070,2055,2069
2041,2035,2057,2058,2063,2063,2059,2080
2038,2027,2042,2046,2074,2052,2064,2082
2045,2028,2043,2034,2076,2048,2048,2078
2046,2042,2050,2019,2055,2021,2034,2078
2042,2036,2044,2004,2025,1998,2025,2083
2047,2035,2038,1999,2002,2013,2037,2088
2058,2046,2046,2020,2053,2047,2048,2085
2065,2047,2058,2035,2081,2062,2068,2087
2069,2054,2055,2038,2068,2064,2062,2084
2071,2050,2049,2023,2068,2062,2057,2078
2075,2049,2050,2023,2090,2069,2054,2073
2069,2041,2046,2022,2121,2061,2052,2066
2057,2039,2048,2014,2098,2042,2049,2064
2064,2041,2061,2014,2092,2017,2038,2058
2067,2042,2057,2005,2089,2014,2020,2051
2059,2028,2040,2000,2106,2012,2019,2041
2048,2025,2044,2015,2164,2050,2027,2043
2060,2038,2056,2035,2160,2083,2062,2038
2044,2054,2070,2039,2085,2119,2064,2034
2041,2064,2089,2014,1916,2109,2058,2031
2050,2058,2082,2006,1844,2083,2044,2034
2048,2050,2082,2020,1824,2063,2040,2041
2055,2056,2080,2026,1783,1998,2038,2047
2056,2053,2083,2065,1883,1976,2050,2058
2052,2052,2079,2088,1993,2007,2059,2064
2046,2050,2064,2083,2055,2043,2075,2063
2050,2049,2056,2075,2073,2075,2076,2062
2058,2049,2037,2057,2068,2100,2080,2063
2064,2048,2035,2056,2017,2108,2088,2071
2069,2054,2047,2056,2003,2105,2074,2080
2065,2055,2058,2061,2059,2079,2072,2070
2059,2051,2062,2048,2066,2032,2044,2075
2060,2056,2061,2049,2089,2015,2039,2069
2053,2056,2053,2044,2142,2026,2047,2070
2059,2045,2040,2035,2134,2012,2046,2072
2058,2045,2052,2054,2140,2034,2031,2076
2052,2044,2057,2059,2124,2053,2043,2074
2049,2036,2050,2034,2000,2046,2064,2088
2047,2043,2054,2040,2006,2049,2055,2085
2056,2047,2061,2060,2063,2055,2064,2084
2060,2050,2065,2065,2080,2049,2059,2071
2047,2042,2053,2049,1994,2019,2034,2062
2047,2035,2039,2039,1973,2021,2037,2056
2051,2033,2026,2049,2000,2042,2037,2041
2041,2028,2022,2036,2004,2038,2041,2037
2035,2041,2031,2044,2044,2004,2019,2036
2044,2049,2039,2049,2076,2003,2029,2037
2052,2059,2054,2064,2118,2031,2026,2046
2054,2064,2052,2062,2101,2049,2035,2045
2055,2057,2040,2049,2080,2045,2034,2049
2054,2051,2042,2052,2098,2054,2056,2042
2054,2054,2050,2047,2140,2068,2036,2033
2047,2045,2044,2051,2156,2078,2045,2031
2036,2037,2038,2053,2126,2103,2040,2033
2049,2040,2049,2049,2057,2109,2045,2036
2049,2042,2059,2057,2084,2095,2056,2040
2055,2048,2051,2059,2084,2066,2063,2043
2053,2046,2042,2058,2062,2044,2057,2045
2040,2029,2025,2018,1913,2015,2022,2042
2035,2024,2024,1997,1801,2004,2050,2062
2040,2042,2038,2033,1849,2048,2075,2080
2059,2060,2063,2074,1972,2105,2107,2098
2075,2068,2076,2103,2033,2137,2108,2090
2072,2071,2074,2096,2029,2104,2084,2092
2061,2062,2070,2082,1985,2068,2081,2088
2058,2062,2066,2073,2004,2062,2054,2099
2063,2056,2056,2066,2013,2026,2026,2093
2056,2037,2045,2030,1984,1949,2005,2069
2028,2014,2010,1967,1940,1900,1991,2060
2030,2015,2022,2012,1988,1957,2023,2072
2054,2051,2050,2052,2020,2045,2058,2073
2076,2056,2063,2095,2154,2123,2042,2075
2075,2045,2060,2091,2216,2158,2058,2062
2058,2039,2054,2080,2189,2154,2055,2054
2051,2035,2045,2049,2116,2121,2044,2064
2051,2044,2042,2049,2094,2066,2048,2075
2057,2049,2048,2057,2098,2020,2038,2059
2045,2032,2029,2031,2029,1971,2013,2044
2035,2026,2032,2027,2002,1932,2015,2037
2034,2036,2051,2049,2043,1946,2022,2032
2047,2034,2047,2050,2018,1973,2034,2033
2041,2022,2037,2055,2049,2016,2050,2022
2037,2029,2045,2075,2120,2043,2057,2031
2042,2038,2048,2078,2113,2029,2039,2038
2041,2032,2042,2056,2053,2024,2045,2043
2048,2026,2038,2046,2028,2034,2048,2052
2047,2037,2032,2023,1949,2018,2064,2047
2050,2036,2036,1990,1838,2024,2052,2048
2050,2045,2041,2000,1945,2052,2048,2049
2056,2047,2058,2032,2075,2087,2049,2041
2046,2045,2058,2046,2144,2102,2063,2045
2042,2037,2045,2047,2137,2100,2061,2046
2039,2030,2037,2039,2133,2081,2059,2054
2038,2033,2040,2049,2163,2081,2043,2060
2036,2035,2041,2057,2152,2096,2032,2064
2043,2034,2046,2068,2101,2084,2041,2068
2043,2025,2039,2053,2021,2060,2046,2081
2036,2027,2036,2051,1988,2041,2062,2087
2034,2032,2041,2047,1965,1988,2062,2087
2036,2026,2037,2030,1963,1968,2054,2080
2029,2022,2043,2042,1996,1979,2060,2085
2036,2039,2058,2061,2043,1997,2085,2088
2053,2043,2056,2052,2015,2002,2074,2074
2060,2030,2049,2040,1983,1999,2067,2078
2057,2030,2051,2053,2027,2028,2072,2091
2064,2040,2046,2061,2075,2051,2084,2094
2065,2048,2046,2052,2083,2054,2055,2064
2042,2046,2050,2043,2058,2057,2078,2060
2048,2049,2049,2038,2081,2083,2089,2056
2059,2041,2037,2041,2130,2106,2080,2048
2053,2038,2029,2031,2057,2125,2054,2041
2052,2043,2021,2024,1961,2124,2032,2034
2052,2038,2021,2014,1877,2055,2028,2026
2039,2027,2002,1979,1731,1947,1990,2002
2031,2011,2001,1979,1763,1956,1990,2010
2035,2018,2016,2017,1924,1970,2008,2021
2028,2009,2011,2027,1975,2006,2028,2018
2040,2015,2014,2033,1992,2036,2052,2027
2053,2032,2024,2034,1993,2040,2034,2021
2052,2032,2029,2028,1986,2066,2055,2023
2041,2026,2028,2032,2004,2087,2059,2027
2040,2027,2031,2042,2023,2105,2064,2028
2032,2019,2028,2034,1950,2097,2086,2034
2046,2025,2028,2001,1893,2037,2069,2057
2050,2020,2019,1998,2013,1997,2081,2068
2043,2022,2024,2033,2167,2000,2076,2071
2045,2033,2045,2050,2217,2044,2087,2067
2048,2055,2077,2082,2224,2084,2092,2069
2057,2061,2090,2081,2122,2078,2079,2062
2049,2048,2076,2066,2096,2057,2068,2068
2047,2045,2068,2075,2157,2020,2066,2092
2040,2040,2061,2068,2066,1929,2025,2083
2014,2020,2054,2057,1964,1920,2019,2076
2026,2052,2089,2089,1954,1961,2055,2086
2051,2072,2100,2103,2000,2043,2068,2083
2050,2065,2087,2096,2084,2095,2071,2071
2051,2054,2069,2087,2046,2094,2066,2058
2046,2046,2059,2050,1973,2054,2054,2048
2037,2045,2044,2007,1871,2006,2044,2032
2033,2047,2042,1999,1838,1975,2055,2054
2049,2064,2056,2042,1959,2000,2072,2055
2068,2080,2079,2068,2105,2034,2085,2052
2079,2084,2075,2084,2191,2068,2091,2052
2077,2084,2068,2049,2149,2061,2075,2044
2073,2076,2063,2032,2102,2082,2072,2046
2070,2067,2054,2023,2106,2094,2095,2039
2068,2057,2047,2015,2068,2082,2081,2037
2066,2050,2038,2010,2042,2064,2056,2028
2064,2037,2025,2009,2064,2063,2049,2025
2055,2035,2023,2014,2077,2080,2050,2019
2046,2034,2017,1976,1890,2044,2034,2011
2033,2020,2016,2013,1936,2055,2059,2014
2029,2021,2028,2075,2045,2070,2052,2021
2025,2025,2037,2095,2135,2044,2046,2038
2027,2025,2034,2093,2178,2028,2061,2047
2026,2028,2028,2059,2102,2031,2061,2066
2033,2037,2037,2058,2088,2036,2080,2068
2042,2040,2052,2076,2079,2069,2079,2077
2043,2035,2048,2067,1978,2093,2093,2073
2033,2036,2051,2058,1982,2090,2076,2073
2033,2028,2050,2043,1974,2072,2070,2075
2026,2032,2049,2047,2046,2068,2045,2074
2023,2031,2047,2052,2099,2041,2034,2076
2036,2029,2038,2051,2138,2010,2001,2073
2028,2015,2028,2056,2180,2039,2027,2066
2026,2022,2037,2064,2267,2099,2048,2065
2039,2028,2043,2080,2234,2114,2063,2074
2052,2039,2045,2036,2008,2062,2058,2071
2058,2040,2046,2015,2023,2084,2051,2066
2068,2049,2059,2047,2066,2072,2038,2053
2060,2052,2051,2038,2007,2010,2019,2035
2057,2048,2040,2015,1939,1976,1996,2035
2065,2057,2045,2008,1925,1979,2020,2033
2062,2059,2041,2004,1946,1974,2006,2040
2051,2052,2053,2033,2060,1995,2041,2052
2059,2066,2064,2066,2152,2047,2069,2047
2059,2063,2060,2077,2194,2109,2058,2036
2047,2045,2052,2080,2185,2147,2061,2025
2031,2029,2038,2077,2141,2137,2058,2024
2027,2027,2030,2058,2109,2130,2055,2024
2029,2020,2027,2051,2143,2148,2081,2033
2029,2036,2037,2066,2168,2157,2095,2053
2044,2046,2047,2066,2161,2142,2073,2055
2043,2044,2044,2057,2127,2099,2075,2056
2046,2049,2044,2040,2090,2069,2064,2052
2047,2043,2045,2056,2060,2043,2063,2058
2053,2035,2043,2065,2101,2005,2045,2053
2047,2028,2048,2073,2090,1999,2039,2048
2045,2039,2051,2073,2023,2002,2038,2053
2039,2055,2059,2075,1930,2009,2029,2057
2039,2049,2054,2035,1844,2049,2036,2056
2037,2051,2049,2032,1843,2083,2041,2067
2043,2062,2062,2054,1880,2114,2068,2079
2047,2062,2058,2012,1731,2052,2047,2071
2035,2059,2052,1994,1743,2012,2032,2061
2031,2052,2046,2007,1869,1999,2011,2069
2034,2034,2034,2024,2048,2034,2054,2082
2049,2035,2038,2044,2224,2070,2067,2073
2041,2042,2032,2055,2341,2051,2040,2069
2047,2054,2041,2057,2292,2016,2055,2062
2056,2056,2047,2046,2142,2019,2045,2048
2048,2059,2055,2048,2111,2015,2043,2042
2033,2051,2046,2055,2122,2016,2041,2041
2038,2047,2043,2066,2106,2031,2039,2037
2044,2038,2046,2037,1945,2038,2034,2033
2036,2033,2033,2019,1908,2074,2038,2027
2040,2036,2039,2040,2011,2102,2041,2016
2052,2051,2053,2057,2072,2078,2039,2024
2053,2056,2060,2076,2137,2039,2039,2029
2048,2054,2056,2083,2184,2049,2041,2020
2048,2050,2056,2065,2103,2022,2039,2034
2051,2045,2049,2065,2040,1979,2016,2033
2050,2051,2050,2060,2059,1957,2011,2024
2056,2049,2053,2060,2060,1963,2020,2028
2045,2049,2051,2059,2112,2003,2024,2032
2042,2049,2042,2053,2162,2030,2030,2028
2038,2045,2038,2057,2177,2047,2058,2031
2043,2048,2032,2052,2131,2037,2043,2040
2048,2045,2035,2042,1994,2025,2045,2042
2052,2047,2032,2023,1823,1999,2034,2045
2053,2047,2034,2035,1894,2022,2041,2048
2056,2045,2032,2050,1957,2042,2050,2049
2050,2030,2026,2049,1964,2057,2052,2050
2040,2023,2040,2050,1974,2064,2058,2060
2037,2029,2044,2059,1983,2073,2067,2068
2043,2035,2049,2076,2007,2080,2060,2064
2040,2037,2048,2065,1993,2070,2051,2059
2032,2029,2037,2050,1942,2043,2009,2042
2019,2016,2025,2022,1915,2036,2035,2041
2027,2032,2034,2032,1970,2044,2037,2059
2044,2041,2044,2049,2003,2008,2034,2066
2052,2047,2046,2070,2059,1999,2032,2058
2052,2054,2055,2077,2063,2013,2040,2053
2057,2058,2062,2080,2086,2049,2051,2050
2050,2066,2064,2090,2092,2069,2060,2040
2045,2057,2060,2077,2095,2071,2049,2033
2034,2040,2049,2058,2084,2083,2050,2029
2045,2039,2045,2056,2081,2095,2047,2034
2052,2038,2040,2041,2060,2110,2061,2037
2048,2034,2035,2029,2045,2102,2065,2031
2047,2035,2029,2014,1975,2074,2058,2023
2047,2027,2019,1994,1923,2076,2047,2027
2044,2027,2024,2006,1960,2085,2032,2024
2037,2027,2037,2027,2052,2082,2047,2024
2048,2051,2065,2056,2090,2057,2067,2031
2056,2068,2078,2053,2071,2031,2057,2042
2065,2066,2077,2046,2036,2018,2047,2029
2064,2067,2067,2044,2076,2032,2051,2031
2067,2064,2058,2063,2102,2040,2065,2032
2065,2055,2054,2051,2051,2029,2068,2021
2050,2041,2046,2035,2060,2027,2068,2029
2050,2040,2046,2028,2106,2034,2066,2044
2056,2037,2050,2044,2162,2051,2069,2048
2057,2048,2057,2060,2134,2057,2064,2057
2051,2052,2059,2060,2103,2054,2059,2059
2050,2050,2055,2050,2063,2044,2047,2050
2033,2041,2055,2047,2038,2051,2052,2044
2026,2040,2055,2044,2009,2043,2051,2053
2035,2048,2049,2045,1991,2033,2033,2057
2037,2043,2044,2035,2020,2017,2031,2061
2042,2040,2049,2036,2049,2024,2039,2068
2053,2049,2050,2053,2087,2051,2057,2070
2049,2041,2057,2059,2123,2059,2045,2066
2044,2049,2050,2073,2156,2060,2055,2058
2039,2049,2057,2074,2165,2061,2036,2054
2036,2043,2052,2072,2160,2053,2040,2042
2038,2040,2044,2054,2075,2034,2033,2040
2042,2042,2047,2055,2070,2040,2032,2039
2045,2041,2047,2064,2077,2054,2026,2033
2041,2049,2049,2073,2069,2068,2033,2027
2040,2048,2050,2067,2042,2083,2060,2028
2042,2050,2055,2079,2090,2071,2058,2034
2045,2047,2050,2071,2046,2035,2054,2021
2047,2041,2048,2028,1952,1995,2049,2019
2037,2031,2027,1989,1862,1984,2034,2003
2020,2014,2010,1980,1876,1998,2029,2006
2024,2021,2020,2011,1970,2036,2052,2024
2041,2036,2033,2028,2006,2076,2071,2033
2052,2037,2036,2036,2049,2101,2081,2031
2056,2046,2044,2041,2088,2081,2077,2040
2062,2064,2052,2083,2215,2098,2084,2039
2060,2064,2060,2100,2263,2101,2078,2046
2057,2065,2058,2079,2186,2067,2082,2045
2054,2061,2055,2065,2104,2060,2079,2048
2055,2058,2057,2051,2046,2070,2082,2052
2051,2050,2055,2050,2081,2072,2082,2056
2049,2053,2054,2070,2136,2108,2087,2058
2052,2054,2052,2074,2145,2138,2080,2070
2058,2064,2058,2086,2196,2176,2056,2063
2048,2061,2059,2096,2201,2160,2065,2084
2057,2074,2066,2103,2213,2083,2054,2081
2053,2066,2062,2088,2200,1981,2026,2080
2048,2060,2048,2062,2123,1996,2038,2084
2051,2064,2051,2001,1807,2012,2029,2069
2050,2063,2052,2002,1866,2012,2025,2059
2048,2056,2044,2016,1936,2001,2028,2047
2044,2061,2046,2034,1943,2026,2027,2041
2044,2057,2046,2048,1988,2039,2001,2042
2036,2057,2046,2044,1961,2019,2010,2040
2044,2051,2048,2032,1943,2010,2033,2029
2046,2049,2044,2043,1988,2008,2033,2021
2041,2051,2047,2064,2054,2011,2012,2031
2046,2057,2056,2074,2071,2016,2025,2036
2046,2061,2060,2067,2077,2024,2041,2030
2046,2052,2050,2052,2056,2042,2035,2021
2046,2044,2042,2040,2031,2042,2047,2020
2047,2049,2036,2038,2024,2046,2040,2015
2040,2037,2033,2046,2056,2049,2044,2017
2032,2038,2033,2051,2070,2058,2055,2023
2046,2049,2044,2055,2061,2061,2062,2022
2039,2042,2040,2053,2056,2059,2047,2014
2039,2043,2037,2060,2059,2061,2044,2016
2039,2046,2038,2054,2054,2042,2030,2016
2037,2041,2038,2054,2055,2037,2024,2019
2037,2040,2049,2052,2053,2023,2020,2026
2042,2045,2045,2053,2059,2041,2038,2039
2054,2049,2047,2052,2065,2049,2049,2056
2049,2049,2044,2053,2055,2054,2060,2052
2044,2036,2036,2058,2064,2067,2074,2055
2042,2031,2033,2054,2105,2085,2047,2058
2039,2025,2032,2052,2114,2079,2062,2066
2031,2022,2033,2041,2107,2075,2062,2076
2029,2025,2029,2043,2138,2062,2058,2070
2028,2023,2025,2041,2139,2012,2042,2069
2039,2032,2039,2040,2122,1968,2051,2069
2046,2057,2057,2049,2106,1974,2055,2072
2051,2056,2059,2035,2010,1991,2061,2070
2042,2044,2043,2011,1937,2021,2057,2059
2040,2038,2042,2025,1894,2051,2066,2052
2035,2039,2046,2023,1823,2039,2057,2047
2040,2035,2042,2025,1898,2040,2058,2046
2045,2038,2046,2033,1919,2025,2045,2060
2060,2047,2049,2066,2037,2019,2054,2061
2072,2064,2068,2093,2110,2043,2069,2056
2075,2067,2065,2077,2033,2026,2055,2036
2074,2052,2046,2033,1943,2013,2021,2016
2053,2039,2032,2031,1963,2034,2022,2011
2044,2039,2030,2039,2068,2069,2028,2018
2038,2039,2043,2048,2085,2061,2024,2011
2039,2045,2048,2029,1957,2010,2011,2005
2037,2044,2044,2005,1871,1973,1999,2010
2048,2047,2045,2017,1923,1974,2003,2008
2050,2053,2047,2044,1971,1990,2013,2021
2060,2058,2057,2053,1965,2024,2030,2024
2054,2052,2051,2030,1934,2064,2028,2014
2049,2044,2042,2021,1942,2052,2039,2022
2048,2055,2066,2056,2060,2060,2043,2022
2044,2059,2072,2065,2103,2080,2054,2026
2028,2048,2066,2058,2141,2068,2050,2030
2038,2051,2075,2074,2197,2076,2059,2036
2039,2050,2066,2061,2123,2089,2049,2051
2029,2046,2063,2051,2084,2101,2042,2061
2028,2040,2057,2048,2079,2109,2055,2067
2034,2039,2046,2039,2072,2090,2054,2073
2032,2037,2046,2046,2094,2037,2034,2070
2032,2036,2049,2061,2171,2004,2043,2092
2038,2040,2051,2060,2211,2012,2052,2094
2044,2044,2050,2053,2155,2046,2054,2068
2038,2041,2046,2026,2038,2060,2058,2054
2027,2029,2040,2010,1968,2076,2054,2029
2010,2030,2034,2009,1954,2067,2044,2024
2017,2037,2036,2006,1957,2025,2020,2032
2038,2041,2047,2038,2036,1960,2035,2048
2046,2047,2057,2078,2134,1971,2039,2049
2051,2045,2062,2099,2177,2009,2068,2042
2050,2051,2060,2082,2165,2052,2046,2035
2041,2042,2055,2073,2146,2079,2065,2033
2035,2042,2053,2068,2125,2085,2078,2025
2043,2046,2055,2062,2116,2084,2052,2027
2044,2048,2058,2058,2105,2094,2071,2033
2054,2058,2060,2065,2111,2078,2064,2036
2052,2047,2057,2068,2111,2073,2048,2037
2047,2051,2052,2065,2107,2069,2038,2040
2054,2058,2061,2065,2076,2071,2053,2035
2049,2050,2056,2052,2018,2066,2053,2035
2050,2050,2063,2046,1974,2055,2068,2053
2052,2045,2063,2043,1967,2028,2076,2056
2050,2047,2061,2051,2005,2021,2070,2060
2053,2050,2056,2052,2034,2042,2088,2054
2054,2046,2055,2052,2052,2053,2079,2047
2049,2045,2060,2053,2094,2068,2073,2049
2035,2038,2054,2051,2140,2098,2078,2051
2040,2043,2053,2052,2124,2119,2083,2062
2039,2036,2051,2049,2095,2131,2088,2060
2037,2038,2051,2054,2072,2107,2079,2063
2044,2041,2062,2064,2081,2051,2066,2069
2050,2055,2070,2077,2118,2034,2056,2056
2043,2044,2060,2070,2110,2052,2035,2058
2038,2035,2056,2070,2085,2058,2034,2059
2043,2042,2057,2063,2062,2035,2034,2057
2046,2041,2054,2063,2064,2027,2045,2062
2049,2049,2058,2063,2070,2042,2058,2064
2048,2049,2058,2061,2069,2049,2063,2060
2043,2043,2055,2061,2065,2039,2054,2055
2047,2044,2057,2059,2064,2029,2059,2048
2057,2046,2053,2059,2051,2014,2050,2048
2051,2040,2053,2058,2051,2011,2045,2036
2049,2036,2046,2052,2044,2015,2047,2028
2049,2040,2044,2051,2042,2026,2040,2023
2047,2044,2049,2053,2047,2032,2052,2029
2050,2041,2049,2056,2061,2032,2059,2025
2050,2036,2053,2060,2064,2043,2064,2025
2044,2047,2055,2056,2067,2058,2064,2026
2036,2036,2044,2048,2068,2065,2051,2024
2036,2036,2036,2042,2063,2069,2049,2028
2043,2049,2046,2050,2072,2066,2025,2027
2042,2051,2055,2052,2079,2069,2036,2025
2047,2054,2055,2052,2066,2076,2028,2028
2046,2053,2055,2042,2049,2057,2035,2033
2049,2050,2059,2043,2032,2047,2034,2041
2047,2050,2055,2057,2053,2052,2049,2040
2047,2051,2053,2057,2039,2052,2044,2046
2049,2052,2057,2054,2052,2065,2056,2048
2052,2046,2052,2049,2070,2071,2055,2052
2051,2045,2049,2047,2064,2077,2049,2057
2044,2051,2044,2047,2065,2068,2040,2063
2047,2045,2034,2045,2056,2041,2047,2066
2047,2044,2035,2042,2057,2037,2053,2060
2046,2041,2043,2046,2058,2045,2062,2061
2043,2033,2038,2042,2061,2053,2061,2061
2037,2031,2031,2044,2062,2051,2078,2062
2040,2039,2035,2044,2064,2062,2075,2064
2040,2041,2040,2047,2062,2066,2063,2065
2042,2047,2045,2050,2060,2044,2060,2064
2047,2049,2049,2045,2056,2021,2060,2061
2048,2054,2051,2049,2057,2021,2049,2056
2045,2054,2049,2044,2052,2043,2054,2053
2048,2055,2043,2047,2067,2067,2066,2046
2044,2049,2041,2046,2057,2073,2075,2042
2041,2045,2034,2042,2061,2070,2061,2037
2044,2044,2039,2050,2056,2066,2064,2044
2049,2045,2041,2043,2051,2067,2055,2038
2042,2049,2043,2044,2057,2058,2056,2040
2046,2044,2036,2041,2059,2059,2062,2035
2044,2046,2035,2040,2063,2046,2057,2031
2042,2035,2023,2040,2070,2062,2065,2021
2039,2030,2032,2044,2077,2090,2073,2029
2044,2042,2055,2046,2079,2096,2074,2033
2051,2047,2054,2052,2083,2086,2079,2036
2047,2047,2051,2046,2072,2075,2067,2038
2054,2052,2051,2042,2068,2066,2055,2035
2047,2049,2048,2044,2061,2054,2039,2031
2044,2044,2040,2041,2059,2045,2052,2034
2043,2048,2041,2038,2047,2038,2041,2040
2043,2047,2044,2034,2049,2045,2058,2047
2043,2045,2044,2036,2045,2049,2049,2048
2044,2049,2041,2037,2062,2060,2056,2055
2044,2048,2034,2041,2062,2045,2050,2054
2040,2044,2030,2038,2050,2020,2044,2063
2039,2044,2027,2038,2046,2020,2039,2068
2038,2042,2028,2038,2050,2024,2029,2066
2044,2030,2022,2030,2044,2033,2056,2074
2049,2033,2020,2028,2049,2047,2051,2074
2050,2043,2023,2034,2054,2052,2047,2072
2042,2042,2026,2036,2051,2039,2052,2065
2039,2044,2027,2034,2047,2031,2045,2058
2045,2045,2035,2038,2055,2040,2048,2058
2038,2040,2038,2042,2057,2039,2051,2049
2045,2037,2041,2047,2051,2045,2043,2039
2044,2041,2043,2044,2056,2052,2036,2035
2042,2043,2040,2040,2057,2052,2038,2033
2047,2050,2051,2045,2054,2054,2040,2036
2050,2054,2058,2050,2064,2047,2039,2031
2055,2053,2061,2051,2064,2046,2042,2032
2053,2056,2061,2056,2064,2036,2031,2026
2052,2051,2058,2052,2061,2038,2049,2028
2046,2048,2053,2051,2060,2037,2040,2027
2046,2038,2047,2050,2060,2041,2043,2022
2046,2040,2035,2045,2064,2054,2046,2027
2049,2050,2042,2052,2069,2055,2044,2034
2048,2044,2039,2052,2071,2053,2051,2034
2047,2044,2041,2056,2068,2060,2054,2041
2040,2040,2038,2056,2066,2056,2052,2032
2041,2041,2043,2056,2069,2049,2045,2038
2038,2042,2055,2059,2065,2046,2048,2044
2043,2041,2053,2059,2057,2049,2057,2050
2048,2044,2052,2056,2052,2045,2055,2057
2040,2044,2049,2050,2038,2036,2047,2064
2041,2040,2046,2040,2011,2034,2039,2067
2038,2041,2045,2035,1993,2013,2033,2065
2040,2040,2051,2037,1980,2015,2032,2064
2034,2044,2056,2039,1999,2049,2048,2071
2038,2051,2062,2055,2047,2117,2067,2076
2036,2046,2061,2069,2094,2182,2074,2077
2039,2045,2054,2071,2120,2214,2083,2079
2048,2062,2060,2073,2116,2166,2078,2067
2044,2063,2061,2060,2088,2015,2048,2062
2040,2064,2062,2054,2073,1972,2033,2057
2039,2062,2051,2048,2079,2020,2046,2058
2042,2066,2044,2048,2071,2044,2036,2050
2053,2063,2032,2040,2071,2047,2048,2051
2055,2067,2032,2044,2077,2058,2052,2062
2053,2058,2030,2042,2081,2084,2079,2060
2060,2051,2013,2034,2072,2095,2072,2050
2055,2050,2010,2031,2075,2080,2053,2042
2047,2042,2007,2025,2048,2044,2041,2032
2050,2050,2008,2023,2034,1982,2023,2030
2053,2050,2015,2035,2045,1970,2015,2028
2047,2048,2021,2032,2051,1986,2014,2019
2044,2040,2021,2035,2055,2007,2034,2021
2043,2040,2022,2036,2056,2012,2038,2023
2051,2054,2029,2046,2051,2009,2040,2026
2046,2056,2040,2046,2052,2006,2049,2032
2048,2048,2045,2046,2058,2002,2060,2040
2053,2051,2050,2046,2056,2000,2054,2039
2048,2047,2051,2038,2052,1995,2047,2041
2045,2048,2054,2039,2047,1998,2042,2034
2039,2046,2060,2035,2047,2001,2033,2044
2030,2050,2074,2046,2049,2022,2043,2055
2049,2068,2093,2049,2044,2027,2060,2071
2059,2073,2106,2052,2032,2036,2046,2078
2062,2069,2098,2054,2036,2025,2051,2078
2054,2064,2084,2045,2047,2022,2043,2076
2046,2050,2060,2026,2036,2053,2052,2068
2040,2042,2055,2037,2068,2096,2040,2075
2032,2033,2048,2032,2050,2089,2036,2072
2029,2035,2046,2023,2011,2056,2039,2079
2043,2048,2046,2028,2000,2036,2043,2078
2048,2054,2039,2029,1983,2030,2039,2072
2050,2048,2034,2023,1977,2040,2031,2055
2059,2055,2039,2022,1989,2059,2027,2048
2055,2061,2048,2037,2005,2052,2032,2049
2059,2061,2054,2044,2004,2045,2038,2036
2048,2060,2052,2036,2026,2047,2057,2039
2041,2061,2047,2027,2049,2039,2054,2042
2056,2059,2054,2038,2081,2038,2056,2042
2053,2066,2061,2058,2097,2059,2078,2043
2052,2053,2065,2062,2106,2078,2065,2042
2052,2050,2064,2062,2096,2080,2047,2039
2048,2046,2059,2060,2038,2079,2023,2026
2043,2047,2060,2059,2030,2084,2036,2020
2045,2042,2057,2045,2000,2084,2044,2017
2042,2040,2057,2054,2031,2078,2051,2029
2051,2047,2070,2077,2096,2095,2081,2033
2068,2066,2082,2101,2149,2141,2070,2031
2069,2070,2088,2107,2161,2165,2076,2027
2064,2064,2093,2094,2132,2123,2072,2020
2057,2054,2094,2097,2141,2008,2031,2029
2057,2063,2092,2091,2121,1922,2010,2032
2046,2052,2081,2085,2087,1948,1998,2024
2040,2050,2069,2072,2022,1993,2010,2035
2047,2048,2066,2064,1986,2018,2047,2044
2053,2056,2064,2057,2017,2042,2060,2052
2054,2051,2060,2060,2065,2048,2046,2054
2058,2056,2053,2066,2139,2054,2055,2059
2062,2061,2055,2066,2170,2055,2053,2059
2061,2061,2051,2061,2163,2058,2044,2066
2062,2070,2056,2065,2165,2076,2033,2067
2060,2063,2048,2059,2141,2094,2039,2074
2053,2054,2039,2039,2082,2101,2052,2075
2054,2050,2040,2017,2037,2087,2047,2068
2058,2056,2034,2009,1951,2066,2058,2066
2059,2052,2037,2005,1888,2046,2058,2059
2059,2056,2041,2013,1930,2046,2056,2055
2063,2058,2042,2023,1988,2042,2054,2056
2071,2065,2035,2022,2006,2030,2051,2053
2066,2066,2035,2016,2024,2010,2041,2042
2061,2059,2032,2018,2045,1995,2024,2037
2059,2058,2034,2023,2072,1986,2032,2023
2052,2044,2028,2014,2029,2010,2033,2018
2034,2036,2016,1987,1967,2047,2008,2003
2039,2039,2021,1981,1944,2106,2042,2009
2043,2044,2031,1975,1909,2125,2037,2010
2048,2048,2039,1991,1911,2086,2033,2022
2056,2061,2059,2030,1950,2027,2025,2049
2060,2065,2066,2051,1994,1993,2031,2058
2062,2062,2056,2048,2012,2025,2036,2047
2060,2059,2053,2033,2035,2071,2047,2046
2051,2052,2049,2026,2065,2096,2052,2032
2045,2040,2042,2032,2077,2099,2047,2029
2047,2037,2037,2046,2139,2092,2054,2029
2049,2042,2035,2074,2149,2064,2062,2043
2054,2046,2033,2060,2101,2053,2060,2048
2045,2043,2029,2053,2075,2050,2062,2045
2043,2044,2034,2059,2098,2057,2050,2051
2044,2046,2035,2084,2187,2061,2055,2054
2048,2044,2037,2086,2213,2052,2058,2057
2047,2048,2041,2071,2173,2040,2050,2057
2046,2045,2036,2038,2060,2010,2020,2058
2041,2047,2032,2036,1998,2013,2015,2064
2047,2047,2036,2043,2017,2039,2022,2062
2047,2042,2033,2040,2043,2049,2023,2065
2050,2036,2027,2033,2051,2043,2019,2055
2040,2037,2024,2034,2057,2051,2024,2057
2039,2042,2024,2027,2059,2064,2033,2053
2045,2042,2026,2034,2088,2081,2052,2053
2046,2044,2032,2049,2108,2088,2061,2054
2054,2045,2025,2053,2118,2089,2057,2050
2056,2046,2024,2057,2115,2089,2046,2049
2054,2050,2023,2065,2118,2090,2048,2049
2059,2055,2031,2067,2118,2086,2056,2042
2067,2052,2035,2063,2108,2072,2056,2036
2060,2054,2039,2056,2101,2065,2043,2030
2053,2046,2042,2032,2015,2045,2040,2029
2053,2047,2047,2016,1949,2022,2034,2032
2051,2050,2046,2012,2015,2029,2046,2033
2051,2052,2041,2015,2036,2036,2048,2024
2058,2052,2041,2018,2010,2048,2042,2035
2058,2052,2049,2028,2030,2038,2037,2035
2049,2037,2040,2019,1973,2024,2007,2030
2042,2037,2031,2015,1910,2026,2024,2035
2056,2048,2038,2034,1970,2040,2032,2042
2051,2043,2035,2036,2021,2041,2055,2038
2050,2044,2033,2030,2024,2043,2056,2041
2053,2046,2037,2046,2088,2081,2058,2043
2052,2049,2051,2062,2123,2111,2068,2046
2056,2046,2057,2068,2130,2127,2086,2047
2056,2043,2051,2067,2134,2123,2081,2056
2058,2037,2044,2066,2131,2120,2054,2054
2052,2034,2032,2048,2090,2084,2044,2059
2053,2023,2021,2031,2047,2052,2036,2067
2045,2021,2016,2018,1991,2004,2016,2068
2046,2025,2017,2013,1960,1969,2032,2070
2043,2036,2023,2020,1975,1981,2018,2060
2048,2056,2042,2030,1988,1998,2024,2058
2051,2057,2052,2036,1983,2019,2031,2057
2043,2050,2058,2044,2010,2037,2039,2070
2047,2046,2069,2057,2018,2049,2031,2080
2056,2061,2068,2054,2028,2046,2044,2075
2057,2063,2074,2046,2004,2033,2033,2069
2049,2056,2071,2046,1995,2021,2039,2068
2048,2058,2072,2050,1999,2016,2040,2066
2047,2058,2061,2040,1997,1980,2024,2048
2045,2048,2056,2032,2022,1960,2034,2037
2049,2048,2054,2030,2005,1970,2041,2026
2042,2055,2052,2027,2009,2002,2032,2027
2042,2058,2061,2039,2016,2028,2035,2033
2045,2066,2075,2058,2042,2042,2055,2038
2056,2067,2071,2065,2061,2060,2060,2038
2056,2066,2070,2062,2069,2068,2052,2034
2053,2060,2067,2056,2063,2064,2059,2033
2044,2062,2065,2053,2058,2060,2050,2034
2044,2057,2059,2051,2057,2051,2045,2028
2037,2051,2060,2066,2094,2048,2037,2028
2042,2061,2066,2075,2100,2066,2046,2036
2053,2062,2059,2066,2136,2092,2073,2046
2056,2062,2059,2062,2164,2111,2060,2052
2057,2063,2050,2066,2171,2114,2082,2054
2060,2064,2052,2072,2168,2115,2077,2056
2065,2066,2053,2067,2090,2100,2072,2057
2057,2064,2054,2060,2035,2069,2061,2060
2056,2067,2051,2038,1955,2035,2061,2062
2055,2063,2049,2025,1821,1998,2045,2060
2045,2056,2052,2023,1813,1985,2036,2065
2047,2056,2057,2043,1903,2005,2032,2070
2045,2052,2062,2075,1992,2036,2031,2067
2048,2053,2062,2094,2107,2051,2056,2067
2038,2050,2063,2099,2174,2044,2048,2069
2038,2051,2061,2090,2127,2049,2044,2071
2034,2042,2060,2073,2059,2040,2049,2077
2043,2041,2053,2068,2041,2053,2054,2083
2045,2059,2067,2071,2032,2060,2066,2083
2050,2054,2076,2073,2032,2070,2072,2080
2047,2058,2065,2070,2040,2075,2042,2069
2048,2055,2064,2065,2030,2078,2034,2057
2037,2053,2058,2056,2023,2073,2051,2054
2041,2050,2051,2045,2017,2066,2039,2050
2044,2042,2049,2029,2008,2056,2040,2049
2039,2041,2043,2022,2018,2073,2067,2041
2038,2041,2046,2028,2027,2092,2053,2036
2039,2040,2052,2029,2009,2105,2060,2033
2048,2045,2055,2033,1981,2104,2064,2034
2046,2045,2050,2028,1954,2085,2043,2016
2038,2043,2053,2020,1957,2028,2046,2020
2039,2040,2048,2040,1999,2001,2040,2033
2044,2046,2060,2066,2047,2020,2042,2032
2045,2039,2044,2062,2066,2029,2036,2032
2047,2036,2037,2064,2094,2040,2052,2039
2045,2034,2032,2066,2089,2022,2052,2042
2048,2035,2027,2054,2081,2010,2034,2040
2054,2042,2030,2040,2067,2016,2027,2037
2052,2048,2029,2048,2069,2028,2009,2046
2059,2050,2028,2053,2061,2047,2025,2061
2060,2057,2028,2055,2039,2060,2051,2062
2060,2050,2034,2048,2008,2052,2065,2059
2056,2048,2031,2048,1987,2036,2047,2048
2044,2042,2032,2028,1973,2032,2029,2054
2044,2037,2032,2032,1969,2042,2045,2069
2046,2039,2054,2044,1985,2054,2061,2078
2049,2041,2064,2057,2018,2054,2052,2078
2046,2053,2071,2071,2060,2057,2039,2081
2044,2044,2072,2069,2077,2051,2042,2082
2038,2041,2063,2067,2092,2036,2043,2072
2035,2034,2059,2055,2070,2037,2021,2077
2038,2035,2057,2046,2043,2036,2022,2078
2052,2043,2060,2037,2000,2032,2035,2068
2044,2042,2054,2033,1994,2051,2055,2056
2040,2047,2055,2041,2006,2077,2039,2050
2035,2042,2042,2036,2009,2089,2051,2048
2043,2047,2032,2037,2023,2083,2044,2048
2051,2042,2036,2040,2014,2079,2044,2049
2050,2046,2042,2048,1999,2040,2033,2042
2062,2049,2035,2045,1987,2049,2028,2039
2047,2041,2020,2020,1964,2056,2035,2029
2040,2030,2010,1995,1882,1993,2038,2038
2049,2036,2011,1993,1893,1961,2043,2051
2058,2046,2018,2017,2036,2005,2042,2060
2061,2054,2017,2022,2115,2060,2070,2065
2058,2047,2012,2027,2108,2108,2073,2057
2058,2038,2001,2019,2081,2104,2059,2052
2052,2037,1998,2031,2104,2120,2063,2050
2060,2041,2005,2050,2114,2145,2066,2054
2061,2040,2009,2041,2062,2108,2036,2046
2060,2045,2004,2029,2040,2029,2025,2046
2057,2040,2004,2020,2028,1926,2015,2050
2060,2036,1996,2012,2015,1940,2014,2042
2046,2031,2001,2014,2019,1997,2034,2050
2045,2030,2015,2009,2020,2029,2043,2060
2049,2038,2030,2021,2026,2029,2046,2065
2055,2052,2073,2032,2037,2022,2040,2070
2054,2072,2128,2051,2052,2001,2042,2074
2058,2077,2153,2064,2051,2004,2039,2076
2046,2072,2145,2068,2059,2017,2049,2081
2051,2065,2141,2071,2057,2004,2032,2092
2051,2060,2125,2068,2058,2003,2009,2092
2045,2057,2115,2068,2075,2013,2018,2090
2046,2047,2094,2055,2079,2020,2021,2091
2042,2042,2082,2048,2087,2016,2037,2101
2053,2052,2086,2032,2032,1979,2010,2090
2048,2054,2064,2020,1935,1945,1996,2096
2053,2057,2071,2030,1909,1934,1992,2096
2059,2059,2071,2032,1931,1979,2014,2078
2051,2051,2064,2036,1987,2065,2036,2077
2060,2057,2072,2056,2042,2137,2056,2066
2055,2056,2068,2056,2060,2156,2078,2061
2064,2045,2061,2049,2059,2161,2089,2058
2067,2054,2058,2037,2049,2141,2087,2050
2060,2058,2053,2033,2040,2111,2083,2048
2062,2054,2046,2025,2031,2069,2069,2047
2059,2050,2034,2027,2050,2048,2060,2040
2062,2050,2033,2039,2080,2053,2042,2041
2059,2046,2030,2038,2064,2065,2054,2042
2061,2037,2019,2034,2046,2073,2054,2035
2049,2028,2016,2034,2055,2096,2047,2048
2059,2034,2021,2047,2061,2076,2054,2044
2064,2040,2024,2042,2075,2037,2059,2045
2064,2047,2026,2052,2083,2030,2020,2041
2054,2047,2021,2039,2053,2027,2014,2035
2055,2040,2011,2022,2006,2029,2014,2044
2055,2038,2010,2026,2030,2024,2019,2047
2055,2044,2015,2029,2017,2028,2028,2056
2060,2044,2022,2024,2013,2047,2036,2055
2052,2041,2019,2025,2044,2061,2053,2049
2048,2041,2019,2031,2056,2059,2050,2058
2049,2040,2016,2035,2072,2060,2059,2067
2036,2039,2026,2039,2072,2048,2026,2065
2037,2037,2033,2036,2059,2036,2046,2079
2043,2039,2045,2040,2012,2027,2052,2083
2041,2047,2063,2057,2050,2030,2055,2096
2055,2044,2068,2057,2082,2032,2041,2086
2046,2043,2072,2052,2066,2031,2058,2089
2049,2056,2086,2058,2053,2040,2048,2086
2055,2064,2085,2039,1962,2032,2036,2088
2064,2066,2076,2026,1930,2029,2042,2090
2060,2062,2068,2030,1949,2030,2046,2084
2061,2063,2058,2030,1976,2023,2038,2071
2060,2057,2044,2032,2026,2023,2039,2063
2056,2054,2039,2037,2027,2038,2027,2061
2058,2048,2036,2038,1997,2059,2056,2054
2052,2048,2029,2025,1955,2070,2038,2040
2049,2041,2016,2023,1919,2062,2036,2036
2053,2042,2024,2021,1923,2050,2029,2036
2060,2044,2030,2028,1957,2004,2020,2047
2059,2048,2037,2045,2025,1962,2038,2052
2061,2051,2034,2061,2091,1998,2032,2043
2052,2044,2033,2066,2093,2024,2031,2037
2050,2029,2023,2058,2092,2036,2016,2034
2039,2026,2022,2052,2067,2045,2027,2030
2043,2032,2036,2044,2038,2066,2047,2035
2043,2041,2038,2045,2037,2074,2035,2032
2047,2042,2044,2044,2036,2065,2028,2038
2047,2043,2040,2050,2028,2046,2035,2039
2043,2050,2049,2053,2053,1998,2033,2061
2052,2060,2052,2070,2069,1994,2054,2066
2053,2056,2042,2061,2048,2022,2054,2069
2049,2050,2036,2052,2030,2057,2061,2059
2042,2046,2035,2048,2030,2076,2060,2063
2037,2044,2034,2047,2026,2075,2068,2074
2044,2049,2027,2035,2001,2059,2046,2078
2040,2051,2025,2020,1972,2055,2051,2091
2056,2050,2033,2012,1972,2060,2057,2098
2059,2058,2049,2020,1984,2057,2059,2097
2056,2057,2057,2024,2006,2057,2043,2096
2044,2050,2055,2024,2047,2056,2042,2095
2051,2054,2056,2030,2068,2062,2045,2095
2056,2068,2065,2036,2046,2064,2059,2096
2063,2069,2067,2035,2026,2054,2061,2097
2066,2070,2066,2033,2013,2049,2047,2090
2063,2070,2056,2027,2009,2044,2019,2077
2058,2069,2055,2032,2008,2042,2038,2072
2056,2058,2055,2030,2032,2057,2051,2075
2062,2069,2058,2045,2056,2077,2064,2072
2069,2072,2069,2052,2068,2073,2057,2069
2069,2064,2068,2046,2060,2074,2070,2058
2057,2058,2060,2042,2054,2071,2073,2058
2050,2054,2055,2046,2046,2063,2066,2048
2046,2054,2055,2040,2029,2059,2068,2048
2049,2055,2056,2042,2022,2058,2065,2047
2051,2053,2049,2045,2029,2057,2064,2054
2046,2048,2046,2033,2021,2045,2059,2052
2042,2044,2042,2036,2020,2034,2049,2048
2049,2050,2049,2043,2019,2013,2046,2059
2058,2055,2045,2037,2011,2001,2050,2056
2060,2052,2044,2030,1990,2002,2048,2058
2061,2053,2044,2030,1985,2009,2046,2060
2060,2049,2042,2022,1970,2013,2046,2045
2048,2043,2029,2026,1985,2032,2041,2049
2055,2048,2040,2044,2033,2045,2046,2058
2055,2051,2044,2060,2081,2053,2046,2069
2060,2054,2044,2068,2111,2078,2048,2083
2066,2056,2050,2068,2115,2091,2077,2083
2064,2056,2042,2057,2082,2079,2078,2078
2051,2049,2036,2052,2058,2062,2071,2082
2048,2044,2033,2046,2069,2049,2080,2090
2048,2041,2030,2036,2099,2050,2077,2088
2048,2039,2028,2041,2122,2048,2045,2084
2040,2028,2020,2038,2153,2060,2044,2089
2034,2028,2020,2043,2153,2079,2049,2087
2034,2038,2028,2051,2145,2087,2050,2084
2037,2037,2024,2048,2114,2083,2065,2083
2041,2038,2021,2043,2048,2056,2059,2080
2039,2038,2022,2034,1945,2037,2061,2071
2042,2040,2020,2040,1952,2041,2050,2068
2036,2037,2017,2038,1954,2048,2030,2058
2039,2030,2020,2038,1954,2033,2040,2052
2045,2035,2040,2046,2005,2029,2051,2053
2049,2041,2047,2064,2031,2024,2058,2051
2048,2040,2045,2066,2028,2027,2052,2053
2057,2048,2049,2069,2027,2021,2056,2051
2059,2049,2049,2073,2023,2025,2053,2050
2059,2056,2048,2076,2039,2057,2068,2050
2065,2056,2061,2089,2094,2092,2072,2047
2061,2059,2060,2096,2114,2098,2061,2043
2053,2056,2052,2086,2098,2084,2066,2041
2051,2052,2054,2083,2111,2072,2058,2041
2057,2056,2058,2088,2128,2073,2063,2038
2063,2066,2057,2095,2123,2067,2066,2045
2068,2064,2062,2100,2091,2060,2054,2040
2060,2054,2056,2076,2006,2030,2057,2040
2053,2044,2047,2021,1812,1982,2034,2043
2048,2037,2035,2005,1815,1995,2037,2048
2052,2038,2039,2007,1888,2001,2019,2041
2048,2042,2040,2002,1935,1995,2028,2050
2042,2046,2035,1994,1962,2009,2033,2059
2051,2053,2047,2011,1982,2034,2040,2068
2059,2054,2039,2007,1981,2036,2055,2083
2055,2053,2039,1997,1973,2039,2049,2079
2052,2053,2046,1998,1980,2042,2059,2088
2050,2057,2049,2017,1987,2056,2051,2090
2058,2063,2064,2028,1994,2055,2051,2084
2052,2053,2060,2027,1988,2041,2040,2088
2058,2051,2058,2019,1962,2050,2049,2088
2062,2058,2053,2028,1977,2045,2058,2077
2062,2065,2054,2036,2036,2044,2060,2069
2054,2054,2054,2046,2105,2061,2051,2068
2049,2061,2049,2050,2104,2057,2053,2062
2049,2058,2050,2055,2080,2057,2060,2063
2052,2058,2058,2057,2075,2060,2054,2064
2058,2065,2054,2051,2080,2070,2048,2056
2053,2058,2056,2044,2055,2083,2050,2048
2044,2053,2053,2031,2036,2089,2049,2048
2045,2051,2047,2013,2016,2082,2045,2044
2046,2054,2048,2015,2009,2058,2043,2048
2052,2058,2066,2036,2040,2033,2047,2053
2051,2058,2081,2065,2086,2058,2077,2053
2059,2064,2090,2074,2098,2089,2062,2048
2057,2056,2078,2071,2090,2095,2058,2043
2051,2050,2078,2071,2057,2072,2029,2045
2054,2053,2078,2072,2059,2020,2031,2049
2056,2058,2074,2075,2070,2011,2039,2050
2052,2058,2072,2073,2061,2036,2045,2045
2052,2060,2061,2077,2068,2057,2039,2045
2058,2060,2059,2073,2065,2074,2042,2053
2056,2058,2057,2078,2078,2082,2042,2054
2057,2054,2048,2064,2055,2058,2029,2054
2052,2050,2034,2040,2024,2029,2033,2058
2046,2048,2037,2049,2059,2034,2041,2063
2047,2045,2037,2050,2048,2028,2032,2072
2043,2053,2032,2051,2051,2002,2032,2079
2051,2056,2031,2040,2023,1996,2031,2086
2055,2056,2033,2037,2018,2019,2048,2091
2057,2056,2028,2037,2020,2019,2039,2096
2053,2051,2024,2027,2031,2027,2046,2084
2044,2039,2009,2019,2023,2016,2024,2078
2044,2031,2008,2018,2017,2014,2029,2081
2048,2038,2028,2027,2016,2017,2037,2076
2044,2046,2032,2042,2012,2014,2032,2064
2031,2040,2036,2040,2009,2015,2044,2062
2038,2043,2043,2041,2010,2023,2033,2060
2045,2047,2046,2042,2017,2030,2019,2052
2042,2052,2045,2045,2016,2030,2033,2051
2049,2055,2054,2049,2013,2030,2047,2059
2037,2050,2057,2046,2023,2035,2038,2046
2032,2052,2050,2051,2035,2041,2058,2043
2030,2049,2053,2057,2054,2053,2072,2049
2047,2054,2058,2070,2057,2068,2068,2045
2041,2050,2049,2067,2038,2062,2057,2040
2036,2046,2043,2063,2028,2057,2055,2031
