CH1,CH2,CH3,CH4,CH5,CH6,CH7,CH8
2023,2031,2054,2043,1993,2022,2025,2026
2039,2057,2090,2033,1998,2025,2028,2037
2060,2063,2100,2029,1990,2025,2055,2036
2063,2078,2117,2045,1993,2039,2044,2046
2070,2080,2117,2045,2010,2037,2064,2044
2056,2067,2102,2026,2037,2034,2051,2043
2050,2056,2094,2019,2054,2037,2044,2038
2042,2058,2104,2023,2059,2043,2054,2045
2054,2062,2108,2036,2081,2047,2062,2055
2052,2064,2099,2046,2109,2064,2055,2057
2055,2067,2086,2058,2122,2072,2066,2064
2052,2068,2078,2062,2120,2061,2073,2064
2048,2068,2080,2065,2118,2060,2057,2073
2057,2059,2070,2064,2104,2037,2042,2078
2057,2056,2065,2056,2095,2026,2044,2075
2050,2053,2067,2056,2087,2017,2039,2069
2050,2053,2068,2054,2067,2010,2049,2074
2050,2063,2062,2042,2037,2011,2031,2060
2043,2053,2054,2029,2014,2016,2043,2058
2056,2058,2064,2046,2032,2031,2041,2050
2061,2064,2070,2052,2043,2036,2042,2054
2054,2062,2069,2046,2065,2053,2044,2055
2037,2060,2063,2059,2110,2080,2070,2058
2042,2053,2054,2060,2098,2082,2045,2040
2035,2044,2045,2050,2057,2078,2037,2030
2036,2045,2051,2047,2047,2085,2051,2025
2037,2041,2047,2055,2040,2086,2041,2025
2034,2036,2038,2037,2012,2052,2021,2022
2031,2033,2038,2033,1994,2007,2021,2027
2034,2037,2036,2042,2022,2011,2025,2033
2034,2036,2035,2056,2073,2033,2022,2029
2028,2020,2030,2059,2089,2047,2038,2028
2032,2025,2038,2066,2109,2060,2049,2034
2042,2043,2050,2065,2100,2067,2037,2043
2055,2051,2053,2063,2080,2064,2031,2049
2065,2049,2050,2057,2072,2061,2040,2048
2066,2050,2053,2048,2063,2060,2039,2044
2061,2044,2053,2046,2050,2052,2056,2039
2049,2045,2053,2040,2041,2049,2040,2043
2045,2047,2042,2037,2053,2052,2042,2049
2051,2043,2039,2036,2076,2058,2037,2050
2047,2046,2042,2043,2078,2060,2045,2043
2046,2045,2048,2042,2064,2062,2055,2051
2044,2040,2049,2042,2050,2054,2055,2051
2043,2044,2057,2056,2045,2056,2047,2059
2047,2041,2069,2058,2042,2056,2045,2063
2041,2048,2069,2061,2020,2068,2048,2063
2038,2041,2059,2055,2004,2064,2027,2044
2034,2034,2049,2059,1999,2058,2025,2052
2041,2040,2049,2060,2010,2050,2013,2058
2040,2041,2042,2073,2027,2021,2038,2065
2046,2042,2046,2090,2067,2011,2038,2056
2054,2046,2054,2098,2108,2037,2046,2055
2051,2046,2053,2098,2122,2067,2053,2056
2051,2052,2056,2089,2127,2088,2076,2054
2062,2057,2055,2083,2118,2091,2064,2049
2068,2066,2053,2075,2097,2082,2055,2050
2056,2056,2046,2059,2090,2072,2054,2044
2057,2046,2036,2050,2064,2064,2038,2047
2044,2035,2022,2035,2047,2077,2034,2034
2043,2030,2017,2019,2036,2088,2037,2028
2037,2025,2006,2014,2022,2086,2039,2024
2039,2028,2016,2028,2026,2082,2051,2020
2038,2032,2022,2044,2036,2064,2035,2017
2039,2038,2037,2068,2062,2010,2050,2039
2061,2050,2050,2085,2083,2019,2052,2045
2070,2051,2048,2082,2075,2032,2065,2051
2069,2046,2042,2078,2061,2041,2056,2049
2063,2039,2051,2083,2037,2054,2040,2039
2047,2023,2046,2084,2123,2069,2041,2029
2039,2028,2052,2092,2192,2089,2055,2027
2033,2040,2067,2098,2200,2095,2043,2029
2038,2045,2058,2092,2185,2074,2047,2035
2040,2050,2055,2095,2188,2049,2052,2058
2049,2059,2050,2111,2211,2066,2063,2071
2061,2067,2048,2108,2204,2073,2050,2077
2056,2060,2038,2084,2100,2040,2043,2069
2034,2043,2017,2040,2002,2008,2039,2063
2033,2031,2008,2028,1907,1988,2034,2067
2048,2039,1995,2002,1855,1969,2051,2068
2036,2022,1975,1982,1896,1998,2053,2068
2036,2015,1972,2010,1976,2035,2070,2076
2039,2027,1991,2031,1999,2040,2067,2071
2038,2034,2020,2028,1956,2036,2068,2071
2051,2044,2025,2024,1956,2046,2072,2065
2054,2041,2021,2033,1999,2046,2069,2067
2054,2051,2027,2039,2027,2038,2063,2055
2055,2051,2041,2051,2051,2042,2053,2041
2051,2055,2061,2057,2064,2050,2056,2039
2047,2058,2074,2063,2066,2052,2054,2043
2050,2060,2080,2063,2058,2054,2065,2045
2044,2053,2075,2060,2048,2042,2065,2035
2044,2050,2072,2062,2046,2027,2054,2040
2040,2051,2069,2064,2047,2020,2052,2041
2048,2045,2060,2058,2041,2013,2042,2048
2054,2043,2046,2035,2036,2008,2039,2038
2042,2029,2021,2008,2019,2003,2030,2033
2034,2023,2009,2000,2024,2013,2031,2040
2041,2029,2027,2007,2037,2026,2040,2046
2048,2036,2035,2016,2047,2042,2056,2058
2050,2052,2063,2029,2057,2043,2076,2060
2060,2065,2091,2043,2069,2052,2059,2064
2065,2066,2093,2052,2074,2053,2056,2059
2059,2069,2088,2053,2072,2052,2053,2058
2054,2061,2078,2046,2058,2052,2047,2056
2052,2054,2064,2042,2056,2049,2053,2056
2052,2050,2063,2046,2050,2061,2057,2056
2036,2045,2063,2046,2043,2075,2069,2053
2028,2044,2069,2047,2035,2080,2071,2064
2036,2048,2068,2047,2019,2041,2069,2075
2044,2052,2073,2052,2009,2016,2040,2080
2050,2058,2071,2052,2005,2020,2045,2076
2051,2050,2065,2056,2013,2022,2045,2064
2046,2048,2058,2050,2023,2018,2010,2060
2041,2047,2051,2047,2034,2026,2007,2058
2033,2038,2045,2040,2068,2043,2026,2064
2040,2043,2048,2057,2117,2062,2041,2066
2048,2044,2051,2062,2116,2064,2051,2064
2047,2048,2046,2057,2082,2060,2029,2049
2043,2045,2041,2051,2053,2061,2013,2035
2034,2042,2036,2038,2023,2065,2027,2036
2039,2048,2043,2030,1987,2058,2027,2034
2042,2046,2042,2018,1912,2038,2047,2040
2046,2050,2046,2009,1862,2006,2041,2043
2050,2043,2045,2007,1868,1961,2031,2033
2041,2040,2035,2006,1916,1967,2006,2034
2040,2046,2042,2036,1999,2024,2029,2046
2052,2059,2059,2067,2065,2071,2032,2052
2054,2056,2056,2075,2115,2105,2048,2043
2046,2036,2042,2056,2115,2119,2078,2044
2042,2036,2043,2051,2102,2123,2081,2047
2054,2041,2051,2049,2087,2111,2069,2053
2050,2042,2046,2045,2061,2073,2047,2048
2043,2031,2037,2040,2063,2030,2030,2044
2040,2032,2038,2039,2074,2007,2024,2052
2036,2032,2034,2046,2085,2023,2026,2064
2047,2037,2045,2060,2090,2050,2054,2063
2054,2048,2048,2062,2069,2060,2055,2059
2052,2052,2052,2052,2059,2061,2051,2069
2049,2051,2053,2049,2054,2068,2043,2065
2052,2042,2041,2048,2072,2073,2040,2068
2047,2036,2041,2052,2066,2078,2048,2069
2043,2030,2033,2031,2043,2070,2039,2063
2035,2031,2039,2026,2032,2047,2037,2060
2033,2037,2039,2022,2029,2034,2049,2061
2030,2032,2036,2018,2021,2020,2031,2060
2035,2034,2037,2024,2026,1998,2046,2068
2048,2043,2049,2040,2067,2007,2061,2080
2050,2048,2051,2060,2094,2031,2074,2077
2046,2050,2054,2061,2099,2049,2061,2067
2049,2046,2047,2063,2096,2068,2065,2053
2039,2039,2043,2053,2085,2057,2050,2049
2033,2044,2042,2053,2074,2043,2051,2044
2031,2047,2048,2046,2062,2028,2056,2045
2029,2054,2049,2045,2039,2027,2060,2057
2034,2050,2050,2046,2023,2035,2063,2045
2037,2057,2049,2041,2023,2038,2069,2048
2039,2048,2051,2042,2038,2040,2064,2050
2041,2048,2050,2049,2057,2045,2066,2048
2046,2044,2046,2054,2073,2050,2057,2040
2046,2033,2044,2052,2080,2052,2051,2043
2042,2032,2030,2044,2081,2042,2038,2022
2030,2025,2037,2050,2080,2039,2055,2022
2030,2030,2041,2046,2075,2036,2053,2040
2041,2042,2047,2055,2080,2037,2039,2039
2039,2050,2053,2050,2059,2037,2036,2043
2039,2043,2051,2046,2031,2047,2058,2034
2037,2048,2042,2033,1975,2055,2036,2031
2036,2044,2034,2011,1931,2036,2027,2032
2037,2038,2031,1997,1897,2024,2026,2033
2038,2038,2028,2002,1899,2003,2034,2038
2029,2029,2030,2022,1946,1968,2039,2060
2037,2046,2055,2056,2046,1983,2065,2068
2048,2057,2064,2069,2097,2023,2063,2068
2042,2048,2060,2065,2107,2054,2080,2066
2036,2041,2048,2056,2096,2070,2069,2064
2035,2047,2055,2056,2085,2072,2076,2064
2034,2045,2052,2058,2100,2083,2078,2062
2039,2034,2040,2047,2093,2072,2070,2067
2037,2036,2038,2029,2038,2075,2058,2070
2036,2035,2043,2025,1995,2060,2073,2064
2038,2039,2039,2023,1973,2047,2061,2055
2037,2043,2043,2022,1964,2046,2037,2048
2040,2045,2045,2025,1963,2013,2029,2051
2040,2045,2052,2037,2005,2006,2044,2052
2035,2046,2049,2040,2054,2056,2060,2048
2031,2039,2039,2038,2081,2089,2056,2049
2030,2037,2037,2051,2115,2073,2077,2048
2045,2043,2041,2063,2137,2082,2091,2045
2049,2050,2041,2068,2114,2083,2068,2049
2052,2050,2046,2068,2094,2041,2065,2056
2055,2048,2045,2059,2095,2035,2073,2051
2053,2051,2043,2054,2082,2044,2062,2041
2048,2041,2044,2049,2072,2047,2063,2042
2051,2047,2050,2048,2069,2047,2046,2045
2043,2044,2046,2047,2067,2059,2045,2056
2045,2044,2042,2044,2076,2064,2074,2059
2059,2052,2046,2059,2074,2048,2073,2058
2049,2052,2054,2054,2084,2035,2060,2051
2041,2054,2057,2062,2084,2034,2050,2048
2052,2061,2059,2060,2056,2046,2052,2045
2048,2055,2058,2056,2063,2052,2065,2046
2047,2050,2046,2040,2065,2054,2060,2048
2045,2045,2038,2040,2058,2041,2057,2049
2040,2044,2043,2047,2067,2051,2058,2050
2036,2040,2041,2023,1996,2064,2054,2042
2036,2034,2030,2001,1877,2033,2012,2042
2027,2027,2023,1980,1828,2012,2019,2037
2020,2029,2021,1964,1787,1977,2007,2041
2010,2016,2007,1932,1732,1902,1994,2044
2017,2027,2022,1976,1896,1888,2038,2078
2043,2046,2048,2060,2095,1976,2068,2085
2050,2047,2060,2079,2130,2030,2078,2085
2056,2050,2062,2082,2173,2093,2076,2089
2060,2060,2068,2090,2196,2117,2080,2089
2060,2059,2066,2092,2199,2125,2090,2081
2062,2064,2061,2086,2195,2128,2078,2077
2062,2059,2058,2078,2163,2109,2079,2069
2057,2059,2056,2064,2104,2073,2063,2057
2048,2053,2058,2056,2069,2055,2056,2058
2042,2052,2053,2053,2031,2046,2049,2054
2051,2048,2048,2054,2039,2047,2039,2050
2052,2051,2047,2050,2044,2045,2040,2049
2050,2050,2051,2058,2049,2044,2041,2050
2044,2049,2050,2055,2062,2047,2065,2050
2052,2050,2050,2056,2066,2048,2052,2047
2050,2050,2049,2063,2067,2045,2038,2049
2055,2049,2052,2062,2072,2043,2021,2044
2049,2040,2049,2057,2079,2042,2016,2047
2050,2040,2047,2058,2097,2052,2013,2052
2056,2047,2054,2066,2103,2058,2018,2059
2055,2043,2052,2076,2101,2055,2028,2056
2056,2044,2051,2067,2091,2056,2020,2051
2061,2049,2050,2063,2081,2048,2032,2055
2057,2050,2050,2057,2073,2048,2019,2058
2062,2046,2052,2060,2069,2041,2031,2064
2058,2045,2045,2054,2065,2039,2028,2062
2063,2048,2041,2054,2065,2043,2035,2058
2064,2046,2045,2056,2067,2038,2058,2058
2064,2053,2047,2058,2060,2029,2059,2061
2055,2046,2048,2049,2059,2029,2043,2062
2052,2038,2049,2043,2049,2029,2045,2067
2046,2034,2042,2049,2047,2023,2034,2069
2045,2044,2042,2045,2072,2026,2041,2069
2050,2044,2042,2049,2105,2033,2059,2070
2046,2036,2036,2040,2116,2040,2046,2070
2046,2037,2041,2048,2113,2056,2040,2075
2055,2053,2049,2051,2120,2046,2052,2071
2047,2055,2054,2051,2106,2024,2039,2064
2042,2045,2047,2049,2096,2002,2048,2065
2038,2049,2050,2051,2083,1988,2063,2064
2042,2040,2053,2053,2074,2038,2078,2058
2040,2043,2049,2053,2011,2081,2088,2052
2045,2044,2043,2039,1900,2073,2080,2048
2042,2042,2042,2040,1916,2078,2076,2043
2046,2046,2052,2046,1969,2085,2070,2057
2042,2048,2053,2054,1996,2083,2074,2056
2042,2047,2049,2054,2014,2079,2069,2054
2037,2040,2049,2054,2026,2063,2056,2037
2033,2037,2040,2055,2025,2040,2044,2036
2046,2050,2055,2051,2027,2017,2047,2036
2042,2047,2048,2052,2023,2006,2030,2044
2045,2035,2037,2048,2036,2011,2051,2049
2039,2022,2033,2047,2064,2025,2082,2066
2050,2030,2032,2050,2101,2014,2109,2064
2040,2033,2038,2051,2124,1986,2112,2052
2040,2035,2044,2045,2114,1943,2099,2047
2038,2029,2045,2052,2099,1956,2119,2051
2035,2035,2047,2057,2090,2021,2177,2087
2036,2046,2054,2062,2092,2075,2261,2127
2054,2047,2055,2062,2070,2093,2268,2142
2084,2056,2059,2062,2051,2069,2256,2134
2085,2057,2059,2056,2039,2068,2244,2144
2071,2050,2052,2056,2037,2082,2215,2145
2056,2040,2037,2048,2026,2077,2156,2128
2047,2027,2036,2037,2029,2081,2080,2109
2052,2034,2043,2048,2046,2086,2020,2102
2056,2044,2047,2047,2060,2086,1987,2101
2052,2035,2035,2038,2055,2105,1887,2080
2046,2021,2028,2040,2108,2149,1917,2075
2040,2031,2035,2046,2126,2221,1938,2052
2039,2029,2039,2041,2093,2206,1918,2037
2038,2034,2046,2033,2053,2135,1860,2025
2042,2046,2042,2026,2007,2102,1834,2041
2046,2051,2045,2008,1869,2039,1891,2089
2058,2047,2041,1982,1790,2020,1988,2124
2071,2055,2050,1996,1861,2051,2052,2118
2070,2060,2055,2023,1960,2089,2090,2123
2070,2046,2054,2046,2041,2119,2107,2140
2068,2055,2060,2056,2078,2094,2108,2140
2070,2063,2069,2064,2078,2052,2111,2151
2077,2070,2067,2070,2098,2023,2115,2149
2081,2068,2067,2061,2100,2017,2140,2138
2062,2055,2056,2044,2074,1970,2197,2127
2044,2041,2040,2022,2043,1927,2249,2115
2015,2025,2025,2017,2059,1920,2248,2118
2008,2029,2037,2035,2084,1978,2290,2116
2016,2040,2052,2047,2088,2026,2242,2073
2004,2033,2041,2038,2072,2029,2142,2013
1982,2028,2042,2032,2068,2018,2075,1976
1986,2030,2034,2034,2065,2041,1935,1967
2016,2032,2044,2044,2070,2118,2038,1988
2049,2039,2046,2042,2078,2230,2150,2014
2058,2034,2043,2047,2090,2245,2150,2020
2052,2039,2040,2056,2084,2166,2106,2024
2053,2043,2042,2054,2080,2111,2115,2008
2041,2034,2033,2050,2080,2086,2135,1994
2035,2028,2031,2048,2086,2069,2120,1986
2026,2024,2031,2045,2093,2050,2037,1976
2017,2026,2029,2052,2094,2044,1924,1970
2010,2023,2025,2046,2090,2068,1837,2004
2020,2020,2027,2045,2066,2020,1837,2037
2022,2012,2013,2031,2048,1932,1813,2040
2017,2015,2022,2036,2033,1871,1768,2050
2031,2036,2038,2045,2030,1928,1853,2059
2034,2042,2038,2041,2032,2021,1985,2069
2040,2041,2042,2030,2016,2062,2035,2079
2054,2046,2033,2026,2005,2053,2031,2079
2057,2043,2037,2034,1986,2049,2018,2085
2062,2041,2036,2039,2017,2059,2008,2081
2065,2045,2035,2041,2055,2064,2011,2091
2056,2047,2042,2042,2058,2065,1994,2092
2060,2051,2044,2049,2062,2068,2011,2083
2061,2052,2049,2046,2039,2059,2031,2095
2071,2056,2054,2047,2018,2058,2033,2103
2072,2063,2054,2042,2004,2075,2059,2087
2067,2061,2058,2046,1999,2092,2057,2060
2065,2058,2049,2037,1954,2049,1998,2031
2054,2044,2034,2034,1992,2021,1963,1997
2048,2043,2036,2042,2036,2017,1982,1985
2048,2046,2041,2049,2031,1996,1989,1997
2064,2042,2042,2030,2015,1982,1987,2000
2062,2046,2045,2032,2015,1977,1997,2013
2063,2052,2045,2028,2013,1985,2003,2028
2072,2053,2050,2032,2021,1986,1963,2045
2070,2062,2061,2036,2040,1987,1952,2069
2058,2064,2059,2043,2051,1995,1963,2095
2058,2062,2057,2046,2077,2034,1960,2091
2057,2064,2061,2048,2089,2072,1960,2059
2057,2054,2059,2051,2081,2099,1967,2019
2057,2062,2055,2049,2066,2130,2019,2005
2051,2067,2058,2049,2048,2144,2085,2018
2048,2061,2052,2035,2030,2114,2115,2018
2049,2062,2056,2049,2067,2076,2145,2042
2055,2060,2065,2068,2103,2082,2136,2056
2045,2047,2044,2052,2078,2080,2111,2064
2037,2048,2054,2064,2088,2087,2129,2073
2042,2060,2069,2069,2095,2087,2121,2075
2050,2061,2063,2064,2080,2091,2136,2089
2063,2066,2058,2062,2074,2074,2127,2076
2070,2068,2062,2057,2069,2030,2070,2036
2054,2056,2050,2045,2058,1971,2019,2010
2033,2047,2042,2043,2048,1954,1950,1994
2024,2042,2041,2051,2043,1947,1941,1975
2019,2038,2041,2047,2050,1921,1900,1965
2016,2035,2038,2047,2048,1919,1885,1960
2021,2032,2037,2045,2041,1983,1991,1989
2040,2034,2034,2042,2039,2056,2061,1996
2031,2036,2029,2043,2040,2097,2090,1992
2021,2032,2030,2038,2041,2139,2128,1994
2019,2037,2032,2034,2043,2146,2115,2003
2032,2038,2033,2036,2050,2128,2093,2009
2039,2035,2030,2042,2068,2127,2087,2020
2042,2047,2035,2040,2095,2128,2107,2033
2051,2060,2041,2043,2119,2149,2103,2050
2053,2051,2043,2048,2130,2150,2121,2055
2050,2047,2039,2047,2135,2157,2117,2063
2055,2046,2039,2047,2145,2191,2119,2084
2064,2040,2036,2051,2155,2199,2076,2096
2066,2042,2037,2057,2157,2145,2004,2082
2068,2045,2042,2051,2105,2011,1944,2072
2064,2050,2040,2039,1999,1902,1932,2070
2064,2046,2038,2027,1915,1864,1903,2062
2064,2043,2032,2025,1951,1863,1895,2055
2052,2034,2030,2031,1991,1930,1926,2051
2047,2036,2033,2036,2017,2002,1968,2042
2043,2037,2037,2037,2027,2031,1979,2029
2044,2040,2036,2039,2021,2050,1993,2024
2046,2036,2038,2030,2008,2047,2007,2015
2039,2032,2033,2027,2013,2067,2027,2020
2047,2041,2037,2032,2028,2093,2050,2034
2051,2046,2045,2043,2055,2132,2084,2045
2063,2052,2040,2053,2068,2119,2079,2046
2053,2039,2039,2048,2068,2093,2073,2029
2049,2036,2041,2044,2061,2087,2089,2027
2044,2031,2037,2047,2058,2084,2068,2018
2050,2039,2038,2049,2056,2072,2063,2006
2042,2040,2040,2053,2038,2059,2007,1999
2046,2046,2044,2054,2029,2065,1989,1994
2045,2039,2040,2049,2009,2095,2004,1991
2038,2044,2032,2031,1964,2088,2020,1988
2035,2033,2028,2011,1903,2051,2006,1986
2029,2026,2026,1987,1855,2021,2014,1984
2032,2028,2024,1990,1862,1986,2001,1991
2039,2030,2032,2004,1921,1914,2000,1995
2030,2024,2039,2020,2006,1932,2004,2014
2053,2044,2057,2064,2121,2020,2049,2034
2075,2059,2077,2080,2189,2084,2065,2040
2077,2060,2068,2075,2167,2111,2064,2050
2075,2048,2053,2052,2102,2115,2053,2036
2061,2042,2037,2038,2054,2101,2044,2037
2057,2035,2030,2023,2039,2099,2006,2022
2042,2041,2042,2032,2063,2121,2016,2024
2043,2055,2060,2072,2105,2120,2040,2030
2052,2064,2063,2084,2119,2120,2070,2043
2051,2060,2059,2077,2114,2114,2059,2048
2045,2057,2051,2068,2089,2091,2066,2046
2046,2053,2053,2060,2070,2065,2044,2047
2049,2054,2054,2058,2077,2040,2049,2046
2042,2060,2053,2050,2094,2010,2046,2045
2049,2056,2048,2042,2076,1990,2018,2034
2037,2043,2040,2026,2023,2013,2012,2030
2036,2035,2039,2027,2024,2073,2027,2033
2048,2056,2057,2042,2050,2102,2027,2043
2047,2048,2046,2047,2090,2112,2045,2038
2043,2041,2044,2056,2118,2130,2044,2031
2038,2044,2042,2057,2100,2128,2052,2033
2038,2043,2045,2050,2088,2107,2050,2032
2039,2048,2041,2040,2051,2062,2044,2020
2039,2040,2042,2042,2024,2048,2036,2015
2042,2043,2042,2046,2021,2045,2017,2008
2032,2038,2040,2045,2002,2023,2012,2006
2028,2033,2033,2037,2004,2030,2011,2011
2030,2033,2034,2044,2046,2039,2037,2010
2045,2038,2042,2046,2070,2052,2045,2018
2037,2039,2034,2054,2103,2060,2051,2019
2042,2035,2033,2050,2100,2063,2048,2021
2040,2027,2028,2035,2068,2064,2054,2012
2035,2019,2028,2021,2043,2076,2063,2008
2036,2021,2032,2029,2028,2091,2056,2020
2043,2030,2033,2023,1998,2104,2069,2020
2053,2033,2041,2024,2013,2128,2060,2025
2056,2035,2041,2038,2041,2111,2054,2027
2050,2035,2043,2040,2043,2054,2030,2026
2043,2034,2040,2054,2078,1903,1978,2024
2041,2040,2043,2071,2109,1842,1990,2027
2051,2052,2049,2088,2156,1929,2011,2029
2059,2050,2054,2085,2164,1997,2010,2027
2043,2051,2050,2069,2106,2021,2020,2024
2046,2051,2044,2058,2066,2032,2029,2039
2044,2048,2047,2057,2074,2055,2029,2049
2046,2048,2047,2029,2051,2081,2047,2044
2047,2048,2044,2015,1986,2070,2034,2052
2049,2047,2045,2014,1981,2065,2019,2049
2042,2041,2045,2023,2049,2055,2024,2050
2042,2039,2046,2040,2113,2042,2045,2044
2046,2056,2065,2038,2088,2017,2040,2048
2052,2056,2061,2033,2030,1997,2030,2045
2057,2054,2050,2028,2022,1998,2024,2037
2048,2053,2048,2029,2024,1993,2023,2038
2043,2045,2046,2025,2018,1993,2029,2027
2043,2036,2041,2018,2017,2003,2037,2014
2039,2034,2039,2024,2022,2046,2050,2012
2047,2043,2043,2032,2007,2114,2036,2010
2051,2046,2040,2010,1937,2119,2008,2016
2049,2047,2034,1994,1865,2113,2027,2006
2049,2048,2041,1979,1820,2106,1989,2004
2040,2043,2039,1982,1831,2042,2011,2009
2042,2045,2044,2009,1943,1986,2033,2033
2052,2058,2059,2050,2081,2026,2078,2041
2047,2049,2052,2064,2151,2067,2089,2032
2049,2049,2054,2076,2188,2096,2068,2040
2058,2061,2070,2090,2176,2080,2074,2034
2052,2056,2070,2077,2148,2075,2059,2014
2048,2058,2070,2062,2123,2084,2068,2020
2051,2052,2062,2053,2100,2088,2058,2025
2045,2038,2057,2044,2100,2079,2044,2027
2052,2038,2061,2052,2102,2065,2044,2039
2054,2045,2059,2050,2102,2075,2027,2038
2059,2056,2061,2053,2101,2085,2037,2040
2057,2069,2073,2056,2095,2096,2054,2038
2057,2065,2077,2055,2079,2071,2038,2045
2061,2062,2065,2046,2055,2036,2011,2047
2052,2058,2060,2034,2022,2018,2004,2059
2048,2057,2056,2024,1988,1998,2017,2054
2040,2051,2054,2018,1972,1997,2023,2061
2045,2049,2047,2014,1992,2011,2036,2063
2040,2039,2036,2010,2017,2032,2042,2060
2041,2033,2036,2011,2022,2030,2052,2056
2047,2044,2042,2019,2007,2009,2051,2056
2044,2046,2041,2008,2018,1985,2054,2059
2054,2053,2045,2016,2046,2024,2079,2059
2050,2048,2046,2028,2098,2098,2106,2062
2060,2060,2066,2061,2129,2105,2094,2051
2059,2066,2071,2066,2133,2089,2070,2039
2049,2056,2063,2071,2136,2079,2034,2031
2053,2048,2063,2069,2111,2020,2020,2024
2044,2047,2051,2052,2080,1998,1996,2015
2041,2044,2044,2048,2069,2017,2011,2012
2040,2039,2042,2040,2061,2030,2021,2007
2040,2037,2037,2036,2062,2055,2028,2011
2040,2042,2044,2040,2072,2079,2039,2013
2045,2040,2051,2037,2071,2074,2016,1994
2032,2031,2035,2028,2042,2048,2009,1983
2038,2025,2036,2020,2021,2037,2018,1991
2031,2034,2035,2013,2016,2033,2018,2001
2041,2034,2031,2019,2044,2060,2024,2007
2053,2046,2052,2041,2082,2097,2056,2017
2054,2042,2054,2047,2112,2119,2057,2017
2052,2041,2047,2044,2120,2125,2065,2020
2046,2030,2044,2044,2120,2126,2060,2026
2042,2026,2042,2038,2100,2108,2051,2021
2037,2025,2043,2030,2084,2085,2024,2017
2038,2040,2047,2034,2079,2069,2017,2020
2043,2043,2050,2038,2080,2068,2013,2032
2043,2045,2043,2040,2076,2060,2011,2035
2048,2045,2049,2037,2081,2045,2021,2039
2042,2040,2047,2040,2078,2042,2014,2040
2043,2040,2041,2037,2077,2038,2038,2044
2040,2031,2041,2030,2073,2029,2032,2042
2049,2034,2040,2030,2068,2051,2051,2058
2052,2050,2054,2041,2087,2080,2047,2051
2054,2050,2047,2038,2083,2076,2023,2044
2055,2052,2055,2039,2086,2065,2030,2048
2062,2060,2063,2043,2068,2052,2035,2043
2054,2068,2070,2043,2063,2048,2043,2033
2053,2066,2061,2046,2062,2044,2018,2019
2053,2065,2062,2044,2048,2036,2014,2005
2054,2059,2060,2045,2070,2040,2036,1996
2050,2062,2064,2042,2072,2047,2022,1996
2056,2059,2061,2042,2060,2052,2028,1996
2056,2055,2060,2046,2074,2068,2036,2000
2056,2053,2050,2038,2068,2084,2024,1999
2055,2044,2050,2037,2086,2106,2015,1996
2059,2048,2045,2039,2096,2131,2037,1988
2050,2041,2046,2037,2069,2133,2041,1978
2047,2042,2048,2036,2005,2080,2032,1984
2045,2041,2062,2027,1905,1984,2032,1989
2036,2040,2062,2031,1944,2012,2025,2000
2038,2042,2062,2047,2007,2091,2046,1999
2030,2042,2063,2050,2060,2146,2061,2012
2031,2039,2056,2042,2092,2172,2080,2036
2048,2045,2058,2044,2095,2195,2083,2058
2048,2042,2056,2043,2098,2138,2071,2045
2036,2041,2055,2043,2092,2069,2052,2046
2029,2037,2056,2044,2080,2042,2038,2063
2030,2031,2048,2038,2070,2040,2049,2073
2036,2028,2042,2040,2065,2039,2064,2077
2040,2027,2034,2032,2043,2042,2053,2064
2034,2031,2029,2035,2052,2063,2051,2044
2030,2030,2031,2033,2046,2132,2054,2023
2017,2016,2024,2020,2020,2141,2039,2007
2023,2017,2012,2020,1984,2084,2010,2008
2035,2025,2017,2020,1962,1954,2005,2004
2036,2021,2015,2021,1967,1862,1984,2016
2042,2023,2026,2045,2026,1872,1988,2015
2034,2018,2026,2062,2054,1963,2021,2010
2032,2026,2020,2062,2099,2022,2033,2025
2038,2019,2014,2065,2121,2054,2026,2027
2033,2009,2004,2050,2088,2050,2024,2030
2029,2000,1997,2040,2082,2041,2038,2032
2037,2008,2000,2042,2070,2048,2034,2035
2042,2016,1994,2036,2057,2064,2032,2027
2035,2011,1986,2012,2039,2076,2034,2006
2042,2004,1985,2012,2022,2090,2052,1994
2042,2006,1989,2031,2083,2113,2043,1993
2043,2007,1996,2028,2046,2080,2061,1991
2037,2012,1994,2007,1963,2018,2006,1989
2037,2012,2003,2007,1952,1989,2008,1992
2032,2029,2019,2035,2021,2015,2015,2012
2047,2053,2038,2043,2057,2047,2032,2019
2056,2068,2058,2053,2073,2076,2070,2029
2062,2073,2067,2053,2078,2094,2066,2030
2066,2075,2070,2047,2084,2105,2059,2037
2059,2072,2070,2043,2088,2074,2074,2059
2067,2074,2074,2044,2079,2064,2066,2063
2066,2067,2083,2036,2055,2078,2073,2056
2061,2065,2088,2035,2055,2089,2082,2049
2059,2070,2090,2044,2054,2096,2076,2050
2059,2065,2090,2051,2061,2092,2054,2045
2045,2056,2087,2047,2059,2098,2054,2044
2055,2055,2093,2043,2055,2082,2048,2055
2059,2062,2095,2045,2041,2026,2043,2053
2058,2064,2095,2039,2020,1962,2041,2051
2061,2055,2084,2038,2007,1957,2041,2057
2057,2061,2087,2043,2000,1985,2046,2058
2064,2066,2086,2043,1997,2003,2053,2058
2054,2067,2071,2039,2017,2014,2042,2044
2050,2070,2068,2043,2038,2022,2032,2040
2045,2065,2075,2054,2050,2030,2040,2044
2054,2073,2082,2049,2038,2017,2026,2045
2056,2073,2081,2050,2018,2000,2025,2033
2052,2061,2071,2039,2014,2018,2021,2029
2042,2055,2069,2048,2071,2076,2047,2024
2043,2057,2074,2051,2083,2080,2044,2033
2050,2057,2072,2060,2117,2078,2040,2032
2059,2067,2084,2064,2118,2071,2045,2033
2062,2075,2096,2061,2096,2067,2052,2025
2065,2071,2090,2055,2079,2072,2058,2017
2054,2065,2074,2045,2050,2059,2031,2002
2045,2046,2061,2030,2021,2042,2032,1998
2038,2039,2054,2024,2010,2042,2049,2007
2048,2050,2051,2024,2005,2042,2035,2019
2055,2051,2052,2026,2029,2025,2053,2015
2057,2048,2046,2035,2066,2039,2056,2030
2062,2055,2054,2058,2120,2070,2074,2049
2075,2064,2064,2075,2142,2089,2107,2057
2076,2063,2073,2074,2115,2079,2101,2058
2065,2066,2066,2068,2096,2081,2082,2054
2056,2064,2060,2064,2098,2086,2074,2054
2061,2060,2062,2053,2102,2102,2087,2058
2059,2053,2060,2058,2112,2111,2090,2069
2058,2048,2056,2060,2124,2089,2088,2068
2053,2054,2054,2064,2112,2053,2083,2068
2060,2066,2060,2067,2109,2037,2081,2078
2059,2062,2059,2059,2092,2017,2045,2076
2051,2047,2046,2046,2043,2028,2036,2064
2045,2045,2040,2028,1979,2005,1992,2055
2047,2049,2044,2026,1960,1990,2003,2042
2045,2040,2039,2033,1986,1994,2019,2031
2040,2044,2037,2051,2047,2023,2025,2032
2045,2048,2050,2068,2094,2042,2050,2027
2049,2053,2053,2067,2094,2064,2031,2012
2041,2045,2052,2066,2068,2058,2038,2008
2039,2044,2043,2058,2047,2076,2050,2009
2038,2042,2034,2043,2023,2076,2044,2007
2037,2039,2035,2027,1986,2069,2033,2009
2045,2038,2029,2008,1953,2053,2037,2008
2048,2040,2034,2027,1989,2053,2026,2023
2057,2055,2057,2055,2028,2031,2060,2036
2063,2062,2068,2075,2095,2076,2083,2044
2058,2065,2061,2090,2168,2112,2106,2024
2052,2047,2050,2068,2152,2072,2080,2014
2038,2030,2030,2049,2072,2019,2065,2008
2037,2037,2034,2044,2047,2011,2081,2018
2044,2038,2038,2054,2052,2035,2075,2021
2050,2046,2044,2057,2071,2055,2052,2022
2053,2047,2044,2056,2057,2083,2035,2013
2042,2046,2046,2049,2048,2092,2035,2008
2038,2053,2048,2045,2030,2064,2018,2012
2040,2048,2047,2040,2024,2058,2034,2018
2045,2051,2047,2049,2046,2012,2052,2037
2057,2049,2050,2072,2123,2009,2098,2065
2068,2054,2052,2077,2148,2037,2097,2077
2059,2052,2050,2058,2067,2058,2123,2074
2056,2054,2055,2056,2042,2084,2120,2069
2050,2058,2057,2054,2016,2088,2108,2058
2042,2050,2048,2035,1973,2065,2096,2048
2038,2037,2039,2027,1962,2062,2114,2054
2038,2042,2040,2031,1967,2048,2123,2061
2046,2045,2047,2038,2004,2010,2102,2064
2057,2057,2056,2052,2045,1999,2072,2063
2058,2056,2059,2059,2069,1999,2010,2045
2056,2052,2056,2060,2075,2020,1988,2039
2051,2047,2058,2061,2068,2037,1911,2018
2044,2051,2051,2058,2054,2020,1916,2006
2030,2050,2054,2056,2040,2009,1987,2012
2033,2054,2058,2050,2016,2023,2017,2017
2041,2047,2048,2047,2016,2051,2043,2020
2033,2032,2037,2031,1999,2082,2072,2023
2042,2033,2034,2029,2023,2094,2068,2025
2033,2045,2047,2042,2048,2069,2037,2024
2037,2061,2054,2054,2055,2051,2042,2009
2032,2050,2052,2050,2060,2034,2031,1999
2017,2043,2045,2052,2062,2022,2032,2001
2015,2045,2054,2055,2077,2026,2058,2021
2024,2060,2057,2066,2085,2021,2037,2024
2032,2060,2058,2073,2098,2022,2036,2024
2066,2065,2057,2068,2091,1989,2035,2032
2064,2071,2060,2056,2068,1988,2071,2052
2051,2065,2056,2044,2048,2030,2075,2061
2043,2057,2054,2046,2048,2079,2071,2069
2051,2062,2060,2052,2058,2103,2062,2079
2057,2060,2056,2056,2076,2104,2060,2075
2047,2057,2059,2060,2074,2094,2046,2079
2049,2061,2059,2054,2068,2077,2056,2082
2044,2057,2052,2047,2059,2065,2061,2082
2049,2056,2054,2047,2057,2079,2054,2081
2051,2056,2058,2046,2051,2108,2026,2074
2046,2052,2056,2042,2049,2139,2008,2066
2050,2042,2048,2038,2045,2118,2022,2046
2052,2043,2047,2044,2058,2104,2023,2030
2048,2047,2046,2041,2048,2078,1994,2012
2049,2045,2043,2050,2040,2076,1998,2003
2047,2042,2042,2059,2076,2087,2017,1986
2029,2037,2038,2055,2094,2092,2033,1992
2026,2038,2037,2053,2081,2080,2038,2006
2031,2041,2040,2051,2074,2068,2050,2001
2043,2051,2044,2049,2074,2051,2051,2008
2049,2053,2041,2050,2066,2051,2057,2021
2051,2058,2042,2053,2071,2058,2056,2027
2057,2058,2046,2044,2062,2054,2059,2032
2061,2063,2039,2051,2047,2046,2046,2022
2058,2053,2039,2049,2041,2042,2037,2016
2055,2047,2042,2049,2030,2034,2056,2016
2053,2049,2041,2035,2025,2034,2050,2009
2042,2041,2033,2039,2038,2047,2047,2006
2039,2042,2038,2040,2044,2021,2046,2006
2042,2049,2037,2040,2037,1994,2038,2015
2038,2045,2040,2039,2035,2003,2048,2012
2041,2044,2040,2042,2045,2022,2044,2021
2044,2046,2045,2045,2098,2033,2046,2028
2040,2053,2047,2058,2126,2059,2053,2041
2046,2058,2053,2066,2104,2058,2026,2044
2052,2055,2055,2070,2142,2066,2044,2050
2046,2056,2051,2067,2148,2078,2041,2056
2047,2052,2046,2072,2141,2095,2056,2057
2040,2048,2051,2062,2115,2107,2063,2050
2039,2047,2047,2058,2068,2123,2040,2051
2042,2049,2047,2046,1953,2131,2049,2053
2035,2045,2039,2033,1920,2117,2018,2046
2036,2036,2032,2017,1927,2022,2012,2036
2025,2024,2027,2023,1995,1917,2012,2040
2027,2029,2037,2041,2020,1946,2056,2045
2042,2039,2042,2037,2023,2001,2059,2036
2036,2034,2039,2035,2030,2045,2046,2044
2041,2045,2041,2046,2035,2063,2055,2063
2045,2053,2056,2047,2039,2068,2067,2060
2061,2060,2061,2044,2036,2047,2055,2049
2053,2064,2052,2032,2044,2050,2066,2044
2045,2053,2041,2033,2039,2050,2050,2039
2043,2052,2042,2032,2011,2046,2041,2035
2035,2049,2044,2032,2008,2080,2050,2037
2046,2057,2050,2047,2034,2118,2073,2036
2049,2056,2045,2044,2045,2124,2065,2034
2038,2050,2041,2046,2037,2095,2075,2035
2039,2050,2052,2053,2032,2015,2046,2032
2047,2053,2058,2052,2019,1941,2027,2027
2039,2041,2044,2052,2042,1970,2036,2024
2041,2034,2032,2052,2088,2016,2047,2020
2048,2043,2044,2054,2108,2030,2058,2031
2046,2047,2048,2055,2124,2030,2071,2039
2053,2055,2056,2061,2114,2034,2055,2049
2057,2058,2055,2067,2100,2053,2041,2050
2063,2059,2059,2062,2090,2056,2059,2050
2062,2052,2049,2060,2087,2057,2046,2042
2048,2048,2047,2049,2075,2091,2038,2032
2044,2045,2045,2038,2039,2107,2034,2040
2043,2047,2046,2027,1995,2100,2062,2044
2044,2043,2036,2015,1991,2062,2036,2050
2040,2035,2036,2024,1986,2015,2045,2061
2052,2048,2052,2054,2044,1958,2036,2080
2054,2052,2057,2062,2061,1959,2039,2085
2053,2053,2056,2048,2020,1970,2027,2065
2036,2040,2040,2037,1969,1974,2015,2051
2030,2029,2037,2035,1963,1999,2007,2050
2042,2036,2035,2027,1959,2019,2022,2050
2042,2038,2040,2032,1974,2048,2046,2053
2046,2041,2043,2035,2043,2036,2051,2063
2046,2046,2045,2043,2105,2047,2050,2052
2042,2044,2042,2046,2124,2060,2041,2042
2043,2037,2038,2042,2118,2072,2054,2045
2043,2039,2038,2048,2103,2087,2054,2049
2043,2036,2036,2046,2081,2073,2069,2041
2047,2035,2040,2044,2072,2072,2071,2047
2050,2049,2044,2046,2070,2077,2099,2059
2053,2053,2048,2043,2070,2071,2074,2062
2060,2059,2053,2040,2066,2056,2070,2054
2054,2052,2047,2047,2061,2048,2054,2048
2052,2051,2042,2045,2064,2054,2049,2035
2047,2039,2037,2031,2054,2074,2047,2037
2039,2030,2031,2032,2050,2100,2038,2035
2043,2040,2040,2037,2050,2126,2061,2038
2054,2040,2042,2033,2032,2132,2051,2036
2050,2039,2038,2026,1993,2007,2039,2038
2047,2044,2043,2034,1963,1868,2010,2045
2052,2050,2045,2038,1967,1904,2015,2040
2047,2048,2041,2023,1987,1975,2017,2028
2048,2045,2043,2041,2058,2012,2017,2040
2051,2046,2047,2063,2102,2035,2019,2048
2052,2055,2044,2066,2087,2065,2060,2067
2057,2047,2039,2059,2077,2075,2050,2074
2057,2044,2032,2038,2033,2085,2045,2068
2045,2037,2021,2009,1995,2086,2043,2060
2038,2030,2024,2014,1991,2087,2036,2047
2030,2026,2020,2010,1991,2075,2011,2031
2012,2012,2012,2004,2003,2025,2016,2036
2009,2010,2018,2018,2066,2001,2045,2055
2034,2038,2040,2060,2124,2032,2064,2054
2045,2039,2050,2066,2128,2047,2058,2050
2046,2043,2053,2062,2123,2077,2071,2052
2046,2047,2050,2055,2115,2083,2073,2056
2050,2045,2048,2051,2095,2070,2050,2049
2046,2040,2042,2050,2076,2059,2054,2042
2044,2043,2046,2043,2053,2050,2069,2037
2051,2046,2049,2040,2029,2049,2066,2025
2051,2050,2046,2045,2031,2048,2064,2016
2047,2048,2042,2044,2018,2049,2063,2015
2040,2047,2046,2040,2034,2053,2051,2012
2040,2047,2039,2050,2065,2065,2037,2007
2045,2042,2034,2045,2049,2028,2034,2031
2045,2044,2035,2033,2005,1981,2017,2038
2045,2029,2022,2024,1973,1977,2015,2045
2047,2027,2019,2012,1970,1975,2034,2046
2049,2029,2030,2018,1986,1999,2024,2059
2066,2047,2040,2045,2037,2032,2045,2065
2072,2058,2052,2064,2098,2059,2067,2065
2078,2062,2052,2074,2125,2077,2071,2064
2083,2069,2061,2073,2126,2074,2076,2066
2074,2066,2065,2059,2091,2062,2054,2064
2060,2061,2067,2058,2074,2048,2068,2054
2062,2056,2063,2050,2065,2036,2060,2052
2054,2056,2066,2051,2063,2037,2051,2055
2054,2058,2067,2050,2060,2035,2045,2057
2051,2058,2060,2045,2056,2050,2013,2064
2047,2065,2069,2048,2056,2062,2037,2069
2046,2073,2069,2049,2058,2060,2032,2081
2051,2073,2069,2049,2052,2058,2024,2075
2054,2061,2072,2049,2048,2028,2036,2084
2050,2069,2068,2055,2075,2029,2039,2089
2055,2066,2060,2058,2089,2057,2067,2084
2060,2061,2057,2049,2078,2075,2053,2072
2062,2052,2052,2048,2076,2075,2073,2069
2049,2051,2053,2050,2077,2074,2057,2066
2050,2048,2047,2054,2070,2086,2072,2062
2054,2050,2049,2046,2066,2095,2078,2052
2057,2055,2050,2045,2054,2107,2078,2051
2060,2054,2054,2046,2055,2107,2046,2046
2058,2060,2053,2050,2063,2109,2059,2042
2058,2059,2052,2047,2057,2068,2034,2040
2047,2055,2050,2044,2044,2011,2037,2036
2057,2057,2052,2047,2039,1991,2018,2029
2053,2042,2050,2036,2032,2002,2037,2033
2054,2049,2044,2038,2020,2012,2028,2032
2053,2035,2039,2032,2022,2025,2044,2034
2046,2041,2036,2040,2033,2031,2020,2039
2057,2044,2039,2046,2046,2038,2027,2038
2057,2044,2046,2050,2050,2031,2036,2043
2050,2043,2047,2050,2052,2016,2049,2045
2056,2039,2044,2045,2053,2019,2038,2038
2055,2038,2044,2046,2057,2025,2050,2046
2052,2046,2047,2045,2051,2024,2035,2053
2063,2038,2045,2046,2046,2016,2031,2062
2061,2043,2047,2040,2055,2014,2030,2065
2055,2045,2053,2045,2044,2021,2044,2069
2060,2045,2053,2043,2049,2031,2044,2072
2058,2049,2051,2049,2054,2041,2045,2075
2062,2052,2055,2046,2048,2037,2003,2074
2057,2048,2053,2049,2047,1993,2008,2073
2057,2044,2052,2042,2041,2047,2044,2064
2044,2032,2036,2031,2032,2059,2059,2061
2041,2026,2042,2040,2029,2043,2053,2069
2051,2032,2049,2043,2030,2029,2051,2058
2047,2029,2051,2039,2028,2026,2036,2063
2046,2034,2048,2040,2038,2027,2050,2058
2048,2036,2051,2041,2034,2015,2054,2053
2051,2038,2044,2042,2000,1995,2041,2054
2055,2035,2041,2031,1988,1974,2018,2050
2055,2032,2041,2038,2014,1974,2049,2052
2057,2036,2043,2042,2009,2005,2068,2051
2063,2046,2050,2052,2027,2031,2050,2043
2062,2048,2049,2049,2023,2040,2069,2038
2060,2042,2048,2052,2034,2057,2047,2035
2057,2036,2040,2046,2030,2042,2058,2040
2053,2028,2033,2020,1988,2044,2053,2042
2057,2024,2029,2025,2056,2084,2070,2042
2055,2018,2028,2028,2069,2122,2062,2056
2069,2037,2041,2022,2026,2118,2077,2064
2077,2053,2044,2024,1980,2092,2073,2055
2079,2046,2043,2021,1976,2094,2066,2058
2068,2052,2046,2025,1969,2058,2081,2048
2059,2051,2046,2032,2001,2005,2080,2052
2064,2060,2053,2059,2126,2059,2097,2059
2072,2062,2058,2086,2199,2109,2097,2066
2080,2053,2062,2092,2237,2123,2088,2061
2076,2041,2053,2082,2185,2044,2062,2057
2065,2027,2044,2060,2124,1996,2041,2055
2063,2026,2044,2072,2148,2026,2041,2047
2055,2025,2052,2074,2130,2049,2027,2043
2046,2028,2051,2057,1999,2044,2014,2052
2044,2031,2050,2032,1922,2041,2037,2056
2052,2038,2053,2024,1957,2056,2070,2059
2047,2031,2044,2041,1993,2021,2051,2066
2041,2034,2047,2057,2021,2043,2057,2066
2041,2047,2052,2058,2041,2100,2055,2059
2035,2044,2054,2061,2029,2149,2066,2064
2045,2053,2052,2049,2017,2201,2058,2061
2047,2043,2046,2040,2008,2125,2042,2049
2049,2039,2037,2038,2004,1963,2034,2035
2042,2043,2038,2032,2002,1894,2016,2029
2044,2048,2045,2029,2018,1964,2043,2039
2068,2053,2060,2033,2028,2013,2039,2043
2068,2048,2059,2035,2036,2024,2058,2046
2066,2046,2058,2036,2036,2029,2069,2049
2066,2038,2053,2030,2035,2035,2057,2052
2065,2039,2048,2029,2043,2046,2055,2034
2064,2040,2049,2027,2034,2045,2047,2036
2061,2036,2052,2031,2040,2043,2064,2030
2053,2031,2051,2030,2038,2044,2058,2036
2054,2033,2048,2031,2042,2051,2071,2040
2051,2047,2051,2038,2037,2051,2065,2047
2058,2050,2053,2037,2041,2044,2077,2042
2058,2057,2057,2043,2059,2046,2061,2036
2057,2047,2045,2041,2056,2043,2066,2043
2063,2044,2049,2039,2052,2035,2055,2055
2060,2033,2037,2031,2036,2019,2045,2065
2055,2032,2033,2031,2028,2021,2037,2055
2065,2055,2041,2042,2039,2042,2055,2063
2071,2064,2047,2048,2042,2052,2035,2070
2071,2065,2047,2051,2040,2049,2058,2065
2069,2057,2036,2045,2035,2039,2060,2078
2064,2054,2036,2045,2029,2048,2055,2076
2066,2042,2028,2040,2030,2049,2051,2072
2068,2044,2022,2032,2033,2039,2041,2068
2053,2033,2022,2029,2018,2033,2042,2072
2056,2032,2024,2035,2022,2036,2041,2078
2066,2040,2036,2042,2023,2040,2037,2070
2072,2042,2040,2051,2027,2040,2048,2065
2072,2050,2050,2052,2026,2029,2048,2055
2067,2051,2059,2048,2018,2024,2060,2051
2069,2045,2062,2047,2020,2024,2046,2049
2064,2044,2075,2053,2024,2029,2045,2041
2064,2049,2081,2050,2032,2024,2055,2048
2063,2050,2087,2057,2033,2030,2054,2049
2063,2053,2090,2058,2035,2034,2048,2048
2065,2054,2089,2053,2030,2041,2059,2036
2060,2052,2079,2057,2042,2054,2059,2036
2056,2050,2085,2060,2061,2052,2047,2043
2059,2049,2083,2064,2068,2045,2043,2039
2052,2051,2080,2061,2066,2041,2024,2032
2056,2040,2074,2059,2060,2035,2033,2029
2057,2045,2066,2066,2062,2040,2026,2035
2067,2047,2070,2070,2070,2052,2067,2047
2064,2036,2063,2060,2062,2042,2066,2049
2067,2034,2058,2058,2070,2040,2080,2048
2064,2035,2060,2056,2048,2041,2081,2053
2061,2026,2052,2045,1996,2031,2076,2052
2056,2024,2042,2033,1962,2022,2044,2059
2051,2020,2042,2034,1986,2013,2031,2059
2053,2025,2041,2036,2000,2005,2036,2050
2042,2020,2032,2035,2004,2010,2035,2046
2030,2021,2028,2033,2007,2011,2038,2052
2038,2018,2036,2038,1989,2017,2032,2052
2044,2018,2034,2034,1978,2019,2010,2049
2043,2011,2027,2024,1970,2026,2003,2051
2039,2004,2026,2026,1970,2026,1990,2045
2032,2004,2017,2037,1989,2035,1985,2048
2035,2014,2029,2049,2024,2062,2020,2065
2052,2030,2036,2052,2038,2062,2053,2064
2062,2033,2035,2059,2050,2050,2034,2069
2060,2033,2035,2063,2053,2036,2047,2070
2066,2042,2030,2056,2046,2026,2051,2074
2066,2034,2031,2058,2051,2025,2061,2072
2071,2039,2036,2066,2064,2032,2057,2058
2060,2039,2040,2073,2063,2032,2051,2051
2058,2043,2050,2084,2072,2042,2056,2047
2061,2048,2064,2089,2070,2055,2063,2046
2065,2049,2058,2090,2079,2064,2061,2036
2064,2043,2052,2082,2064,2063,2046,2035
2063,2046,2050,2069,2060,2068,2046,2032
2062,2045,2042,2056,2045,2079,2032,2029
2059,2040,2045,2045,2036,2044,2019,2020
2043,2029,2049,2033,2022,2028,2021,2005
2045,2031,2051,2033,2030,2030,2032,2020
2044,2036,2052,2024,2028,2032,2026,2038
2040,2031,2050,2016,2021,2028,2050,2036
2053,2046,2068,2023,2017,2039,2039,2051
2064,2068,2095,2031,2025,2050,2063,2061
2082,2081,2108,2040,2026,2044,2076,2053
2079,2077,2088,2034,2049,2059,2062,2060
2073,2075,2089,2046,2075,2078,2045,2063
2082,2076,2086,2058,2091,2079,2054,2069
2069,2066,2085,2054,2082,2077,2058,2065
2059,2060,2079,2051,2078,2090,2075,2068
2056,2060,2087,2047,2058,2089,2054,2075
2049,2065,2081,2047,2043,2084,2034,2075
2043,2060,2076,2042,2016,2070,2026,2076
2048,2057,2065,2032,1993,2019,2024,2075
2046,2040,2051,2032,2014,1999,2034,2082
2050,2048,2051,2044,2054,2025,2058,2085
2067,2050,2052,2048,2070,2037,2047,2077
2053,2049,2047,2050,2077,2069,2059,2073
2055,2049,2045,2054,2079,2081,2043,2068
2065,2054,2039,2042,2055,2071,2045,2054
2060,2051,2043,2036,2051,2077,2051,2050
2062,2051,2042,2045,2051,2077,2078,2052
2057,2049,2040,2056,2057,2080,2080,2050
2059,2052,2042,2056,2056,2065,2074,2041
2052,2047,2037,2048,2047,2048,2069,2035
2048,2043,2029,2047,2043,2037,2068,2031
2044,2037,2032,2040,2038,2058,2038,2028
2044,2040,2035,2045,2033,2074,2060,2042
2045,2042,2044,2042,2031,2054,2051,2041
2051,2043,2052,2042,2030,2027,2056,2040
2051,2042,2057,2045,2038,2049,2059,2047
2054,2041,2066,2053,2044,2078,2082,2056
2056,2047,2069,2056,2057,2093,2056,2059
2059,2050,2072,2059,2051,2061,2051,2056
2059,2054,2073,2059,2044,2032,2064,2048
2061,2059,2078,2052,2041,2018,2056,2058
2060,2059,2081,2047,2037,2021,2066,2056
2064,2062,2077,2051,2042,2009,2068,2060
2066,2058,2070,2054,2045,2021,2051,2067
2064,2064,2066,2056,2056,2036,2064,2070
2065,2066,2066,2056,2058,2042,2065,2076
2062,2063,2062,2056,2062,2044,2056,2074
2056,2062,2065,2057,2060,2050,2051,2078
2060,2059,2067,2055,2054,2041,2055,2081
2065,2051,2061,2046,2042,2024,2041,2080
2065,2057,2062,2046,2030,2011,2021,2082
2055,2050,2064,2039,2032,2018,2038,2074
2058,2060,2072,2050,2038,2034,2044,2071
2057,2057,2072,2053,2045,2044,2062,2065
2057,2058,2070,2053,2036,2041,2067,2062
2056,2052,2069,2056,2044,2049,2045,2059
2049,2061,2072,2051,2046,2044,2065,2062
2053,2066,2065,2051,2038,2025,2060,2067
2059,2068,2058,2048,2028,2019,2045,2066
2065,2057,2057,2046,2021,2029,2045,2062
2068,2056,2055,2051,2040,2032,2040,2063
2064,2052,2053,2055,2036,2031,2050,2044
2065,2054,2049,2050,2042,2029,2061,2045
2057,2053,2051,2047,2040,2024,2050,2047
2054,2051,2051,2050,2030,2031,2053,2044
2055,2053,2054,2051,2002,2031,2057,2044
2053,2049,2046,2048,2028,2028,2054,2046
2043,2040,2044,2042,2031,2035,2052,2046
2053,2049,2052,2047,2040,2050,2070,2050
2056,2047,2053,2047,2026,2052,2058,2053
2053,2045,2058,2046,2035,2059,2062,2047
2047,2044,2055,2051,2040,2056,2038,2048
2047,2046,2066,2047,2016,2048,2046,2052
2050,2047,2054,2022,1978,2036,2045,2056
2047,2048,2049,2028,2012,2061,2053,2046
2043,2034,2040,2018,1999,2082,2052,2040
2035,2032,2030,2023,2002,2052,2026,2055
2046,2036,2039,2036,2035,2026,2031,2061
2050,2036,2043,2044,2067,2015,2040,2072
2051,2043,2052,2072,2100,1992,2076,2091
2056,2042,2055,2071,2101,1993,2081,2081
2056,2038,2051,2064,2092,2003,2077,2079
2055,2036,2049,2050,2072,1997,2038,2077
2046,2036,2045,2048,2063,1994,2027,2075
2045,2036,2042,2040,2047,1998,2024,2074
2047,2033,2037,2037,2034,2011,2019,2061
2044,2031,2035,2027,2014,2025,2044,2053
2041,2031,2033,2027,2005,2032,2046,2055
2046,2036,2036,2030,2008,2060,2038,2045
2049,2038,2037,2035,2004,2082,2058,2042
2047,2035,2033,2040,2032,2068,2053,2041
2049,2041,2041,2051,2076,2090,2046,2045
2054,2045,2046,2055,2104,2161,2096,2049
2056,2042,2049,2053,2102,2172,2086,2060
2058,2043,2055,2046,2091,2137,2078,2052
2058,2042,2052,2042,2066,2044,2068,2044
2049,2043,2058,2048,2048,1991,2072,2041
2045,2047,2052,2043,2023,2021,2053,2035
2043,2034,2044,2033,2003,2007,2036,2022
2034,2029,2037,2030,2002,1976,2021,2033
2041,2042,2051,2029,2013,2020,2045,2037
2044,2051,2058,2038,2005,2038,2060,2047
2052,2061,2063,2050,2011,2060,2056,2054
2056,2059,2060,2047,2024,2054,2044,2060
2059,2058,2061,2055,2043,2019,2058,2067
2052,2061,2072,2058,2037,2013,2042,2070
2061,2060,2073,2054,2032,2016,2046,2077
2059,2056,2060,2048,2039,2024,2041,2075
2057,2046,2055,2042,2055,2021,2058,2068
2049,2040,2046,2048,2066,2037,2055,2064
2043,2037,2047,2048,2064,2041,2059,2069
2040,2043,2048,2056,2060,2057,2067,2080
2045,2041,2050,2050,2064,2052,2054,2078
2046,2041,2046,2044,2047,2041,2040,2075
2045,2037,2044,2034,2029,2024,2051,2064
2038,2034,2039,2033,2019,2021,2065,2061
2040,2032,2048,2031,2018,2032,2045,2065
2045,2037,2030,2030,2022,2025,2038,2064
2041,2032,2037,2029,2023,2016,2051,2068
2049,2028,2039,2037,2040,2019,2061,2063
2052,2038,2043,2042,2063,2027,2032,2055
2053,2049,2049,2053,2062,2028,2036,2055
2048,2052,2049,2050,2041,2024,2041,2047
2045,2053,2053,2040,2014,2011,2049,2050
2050,2045,2046,2036,1983,2001,2054,2048
2044,2042,2041,2030,1979,1997,2042,2047
2051,2034,2046,2021,1977,2004,2044,2040
2048,2041,2033,2014,1995,2029,2048,2037
2051,2041,2040,2041,2035,2063,2044,2039
2049,2045,2050,2052,2060,2077,2020,2041
2047,2048,2045,2050,2053,2068,2030,2036
2047,2040,2039,2042,2058,2053,2036,2038
2044,2034,2036,2038,2065,2048,2041,2043
2047,2044,2047,2046,2061,2051,2051,2045
2054,2051,2050,2045,2047,2042,2054,2056
2058,2055,2052,2042,2045,2046,2057,2052
2053,2056,2051,2047,2038,2054,2041,2050
2050,2051,2049,2049,2042,2058,2058,2048
2043,2048,2046,2046,2050,2053,2037,2056
2045,2049,2046,2045,2054,2046,2027,2058
2050,2050,2046,2046,2054,2042,2058,2060
2045,2049,2047,2052,2069,2054,2070,2060
2047,2046,2046,2052,2074,2051,2064,2065
2047,2045,2039,2053,2068,2051,2080,2071
2041,2045,2040,2052,2060,2046,2073,2067
2043,2041,2047,2043,2049,2040,2060,2068
2043,2039,2044,2044,2049,2038,2052,2068
2040,2036,2045,2036,2039,2035,2048,2064
2037,2033,2036,2043,2037,2030,2060,2067
2040,2049,2052,2050,2052,2028,2057,2073
2043,2058,2053,2050,2036,2026,2057,2069
2047,2051,2053,2051,2035,2023,2055,2071
2043,2055,2054,2046,2040,2030,2061,2063
2043,2054,2050,2049,2042,2036,2049,2061
2047,2060,2050,2052,2046,2044,2024,2053
2046,2054,2051,2048,2054,2055,2062,2050
2044,2053,2052,2055,2046,2065,2084,2056
2050,2049,2048,2056,2045,2078,2083,2059
2051,2050,2050,2059,2050,2093,2075,2062
2051,2040,2046,2047,2051,2100,2065,2054
2042,2024,2044,2048,2050,2130,2066,2043
2032,2021,2035,2047,2045,2145,2057,2034
2033,2028,2041,2040,2032,2081,2060,2029
2034,2026,2039,2037,2033,1943,2032,2030
2034,2029,2035,2034,2067,1944,2024,2045
2052,2027,2034,2034,2085,2013,2045,2045
2059,2036,2041,2039,2100,2051,2054,2048
2060,2052,2043,2048,2126,2088,2061,2056
2064,2067,2060,2061,2132,2062,2053,2050
2054,2074,2069,2081,2129,2044,2029,2055
2045,2077,2079,2076,2104,2039,2031,2070
2050,2075,2063,2068,2050,2030,2047,2057
2041,2057,2049,2044,1928,2044,2047,2046
2025,2043,2036,2032,1940,2054,2070,2055
2033,2037,2033,2028,1974,2060,2071,2061
2036,2045,2040,2039,1975,2054,2087,2075
2041,2060,2055,2042,1969,2056,2077,2082
2052,2058,2050,2043,1968,2052,2084,2083
2050,2055,2051,2046,1959,2048,2050,2087
2040,2039,2044,2035,1942,2040,2049,2077
2033,2031,2037,2031,1922,2033,2067,2072
2037,2041,2042,2035,1948,2031,2017,2065
2043,2054,2043,2041,1958,2030,2013,2059
2036,2051,2043,2035,1968,2045,2009,2051
2036,2051,2047,2052,2033,2035,2013,2053
2037,2046,2042,2070,2050,2017,2018,2046
2039,2044,2048,2071,2038,2027,2033,2041
2037,2038,2050,2061,1999,2028,2035,2029
2035,2037,2042,2067,2026,2039,2045,2037
2037,2039,2042,2077,2118,2064,2059,2050
2043,2046,2046,2083,2160,2071,2059,2039
2046,2042,2047,2074,2130,2050,2055,2040
2040,2039,2039,2055,2018,2029,2041,2040
2041,2043,2039,2043,1979,2032,2054,2035
2048,2047,2041,2037,2012,2043,2045,2031
2053,2050,2033,2016,1972,2027,2030,2027
2043,2036,2022,1998,1954,2016,2025,2015
2039,2027,2026,2012,1970,2027,2039,2033
2039,2036,2033,2015,1979,2018,2035,2028
2032,2032,2036,2028,2019,2003,2040,2037
2037,2042,2050,2063,2092,2027,2066,2048
2040,2055,2057,2074,2101,2065,2070,2057
2047,2057,2059,2078,2118,2093,2080,2068
2044,2059,2058,2075,2103,2090,2082,2067
2044,2055,2056,2061,2073,2063,2079,2060
2050,2051,2058,2063,2071,2059,2073,2068
2054,2053,2055,2055,2062,2051,2065,2069
2057,2053,2058,2055,2058,2046,2072,2075
2054,2051,2059,2054,2058,2051,2055,2075
2058,2054,2064,2057,2051,2053,2061,2084
2059,2060,2063,2055,2053,2048,2061,2084
2056,2058,2068,2059,2049,2036,2050,2077
2052,2061,2062,2055,2043,2042,2057,2086
2047,2055,2060,2055,2048,2049,2042,2080
2054,2059,2059,2052,2049,2046,2039,2080
2054,2055,2057,2057,2045,2047,2062,2077
2047,2051,2056,2054,2048,2050,2059,2067
2042,2054,2051,2054,2043,2050,2065,2064
2043,2050,2047,2058,2041,2053,2049,2058
2045,2049,2044,2053,2044,2049,2051,2059
2047,2045,2045,2052,2047,2049,2075,2055
2045,2046,2052,2056,2047,2050,2042,2052
2040,2048,2049,2051,2050,2052,2061,2044
2045,2043,2040,2052,2046,2045,2046,2047
2045,2047,2042,2051,2040,2049,2053,2045
2044,2048,2044,2050,2039,2045,2035,2041
2044,2050,2046,2053,2044,2044,2062,2044
2046,2051,2045,2056,2048,2039,2051,2047
2041,2044,2042,2052,2044,2031,2042,2044
2035,2042,2041,2048,2049,2042,2052,2043
2040,2047,2042,2058,2050,2042,2042,2043
2043,2037,2043,2053,2038,2042,2041,2045
2044,2046,2042,2052,2044,2052,2038,2047
2042,2047,2045,2054,2052,2065,2054,2059
2042,2040,2048,2056,2058,2089,2062,2058
2045,2039,2044,2052,2065,2089,2063,2065
2041,2041,2041,2058,2071,2093,2073,2067
2041,2039,2047,2057,2068,2093,2054,2059
2032,2046,2048,2054,2059,2096,2032,2054
2034,2048,2042,2052,2060,2099,2042,2063
2035,2051,2048,2054,2060,2057,2058,2072
2050,2048,2044,2053,2056,2025,2047,2076
2044,2046,2040,2048,2048,2015,2064,2074
2042,2045,2032,2042,2040,1997,2038,2062
2038,2039,2017,2035,2028,1990,2036,2063
2031,2039,2024,2040,2034,2018,2042,2068
2041,2038,2026,2038,2038,2020,2033,2069
2037,2040,2019,2042,2041,2023,2046,2064
2041,2042,2025,2048,2042,2027,2030,2061
2040,2048,2026,2044,2042,2033,2038,2064
2046,2048,2026,2052,2046,2021,2025,2057
2042,2046,2023,2042,2038,2017,2045,2043
2039,2043,2021,2043,2024,2002,2017,2044
2036,2040,2018,2031,2013,1989,2046,2043
2045,2043,2022,2030,2008,1985,2064,2045
2055,2050,2025,2034,2008,1998,2040,2050
2055,2050,2024,2028,2015,2014,2057,2052
2067,2046,2022,2038,2014,2018,2067,2052
2056,2044,2035,2046,2013,2037,2044,2043
2049,2047,2042,2046,1979,2030,2036,2030
2037,2038,2041,2046,1955,2020,2028,2025
2034,2028,2038,2044,1960,2028,2039,2020
2026,2026,2041,2033,1980,2034,2032,2022
2020,2024,2037,2054,2058,2071,2051,2027
2027,2038,2054,2086,2132,2092,2057,2039
2030,2048,2055,2092,2147,2084,2045,2054
2032,2052,2058,2086,2146,2099,2078,2061
2043,2052,2056,2069,2116,2096,2060,2054
2037,2054,2053,2061,2076,2071,2043,2055
2038,2052,2057,2074,2101,2080,2062,2053
2038,2056,2056,2078,2114,2085,2071,2053
2035,2054,2052,2068,2099,2095,2080,2054
2030,2051,2055,2051,2051,2076,2064,2066
2031,2049,2055,2024,2003,2033,2057,2067
2037,2053,2058,2022,1986,2015,2029,2077
2042,2059,2061,2028,1993,2000,2021,2072
2032,2053,2060,2030,1997,2002,2032,2074
2045,2063,2069,2039,2019,2021,2034,2089
2061,2064,2074,2041,2037,2035,2054,2082
2059,2068,2068,2042,2043,2042,2057,2069
2053,2066,2064,2049,2042,2038,2050,2067
2052,2067,2062,2051,2056,2033,2059,2064
2058,2064,2058,2047,2050,2029,2043,2046
2050,2053,2046,2049,2042,2031,2026,2035
2052,2045,2046,2050,2043,2058,2045,2034
2040,2045,2047,2050,2054,2082,2064,2045
2048,2056,2047,2058,2063,2078,2061,2045
2046,2050,2045,2048,2057,2070,2060,2040
2042,2052,2051,2053,2052,2067,2063,2029
2047,2057,2051,2048,2051,2069,2052,2026
2042,2053,2056,2046,2050,2064,2041,2022
2037,2052,2046,2041,2041,2045,2032,2018
2035,2044,2047,2044,2040,2032,2037,2022
2035,2038,2052,2052,2054,2063,2054,2027
2044,2049,2055,2047,2044,2064,2062,2035
2046,2050,2059,2045,2038,2055,2042,2039
2051,2051,2052,2051,2033,2059,2040,2047
2054,2050,2051,2050,2049,2075,2062,2051
2051,2060,2051,2050,2048,2072,2056,2057
2045,2050,2043,2042,2042,2063,2065,2051
2038,2043,2044,2042,2044,2057,2076,2050
2044,2043,2039,2045,2042,2049,2046,2059
2041,2049,2042,2044,2037,2047,2044,2062
2055,2052,2044,2045,2040,2050,2062,2061
2046,2053,2044,2044,2041,2049,2039,2060
2039,2050,2049,2043,2049,2056,2064,2062
2041,2045,2046,2049,2044,2059,2064,2064
2040,2048,2041,2036,2038,2048,2068,2057
2038,2039,2036,2042,2034,2047,2071,2048
2041,2045,2042,2047,2043,2050,2059,2054
2042,2043,2039,2046,2037,2042,2056,2056
2040,2038,2041,2046,2033,2037,2049,2054
2042,2040,2038,2042,2030,2032,2057,2047
2038,2042,2036,2038,2035,2032,2057,2047
2037,2045,2037,2041,2034,2040,2046,2043
2037,2045,2035,2036,2037,2045,2033,2041
2042,2042,2037,2044,2047,2048,2033,2034
2034,2038,2034,2041,2044,2051,2050,2024
2024,2033,2028,2040,2045,2054,2041,2012
2019,2026,2021,2039,2048,2059,2052,2024
2016,2019,2009,2041,2054,2057,2067,2024
2019,2014,2005,2040,2050,2060,2059,2023
2028,2021,2003,2038,2050,2058,2041,2020
2033,2010,1999,2042,2040,2052,2038,2027
2024,2008,2002,2036,2035,2054,2029,2012
2028,2010,2010,2040,2044,2068,2044,2014
2021,2017,2011,2041,2043,2063,2037,2021
2026,2021,2012,2037,2044,2055,2063,2027
2042,2032,2009,2036,2043,2051,2033,2044
2042,2040,2020,2045,2044,2054,2033,2046
2041,2039,2024,2046,2050,2052,2027,2053
2047,2047,2031,2050,2048,2032,2052,2050
2050,2056,2039,2050,2046,2028,2035,2051
2058,2058,2046,2057,2034,2033,2056,2055
2045,2054,2048,2055,2027,2032,2078,2061
2049,2059,2053,2053,2029,2033,2056,2069
2040,2061,2066,2061,2020,2030,2044,2075
2048,2061,2065,2050,2015,2032,2047,2081
2050,2064,2073,2043,2011,2056,2056,2079
2051,2068,2084,2037,2003,2062,2040,2086
2051,2072,2087,2034,1998,2071,2069,2082
2050,2077,2111,2045,2013,2084,2077,2078
2049,2075,2107,2041,2019,2091,2074,2074
2054,2074,2102,2054,2032,2060,2077,2071
2055,2079,2102,2059,2038,2033,2069,2066
2054,2081,2098,2066,2038,2014,2051,2060
2051,2081,2091,2072,2044,1976,2043,2057
2057,2077,2098,2082,2065,1979,2037,2057
2053,2073,2090,2081,2110,2009,2042,2049
2049,2063,2084,2084,2134,2045,2061,2038
2051,2062,2078,2078,2151,2091,2055,2039
2047,2061,2067,2076,2165,2095,2057,2047
2049,2066,2063,2074,2162,2088,2046,2045
2051,2062,2061,2058,2138,2089,2017,2031
2037,2058,2064,2048,2095,2086,2025,2022
2039,2057,2047,2037,2060,2085,2033,2017
2023,2053,2043,2025,1962,2081,2028,2027
2035,2054,2043,2022,1914,2037,2027,2036
2036,2056,2051,2025,1956,1993,2037,2038
2040,2057,2054,2038,1999,2007,2026,2045
2040,2059,2052,2052,2029,2031,2032,2042
2044,2063,2057,2051,2039,2035,2046,2046
2042,2063,2056,2047,2047,2037,2050,2052
2044,2050,2048,2050,2039,2027,2023,2046
2042,2048,2041,2047,2038,2025,2028,2053
2035,2042,2037,2043,2048,2023,2032,2054
2036,2044,2042,2045,2037,2035,2034,2043
2030,2041,2035,2041,2031,2034,2039,2046
2032,2035,2032,2038,2026,2025,2035,2057
2034,2034,2029,2031,2028,2034,2045,2061
2027,2027,2033,2036,2035,2045,2045,2060
2024,2030,2028,2038,2035,2048,2046,2063
2033,2035,2036,2036,2038,2059,2036,2075
2039,2049,2050,2051,2044,2058,2055,2078
2047,2054,2052,2049,2045,2049,2034,2066
2047,2058,2057,2045,2039,2040,2031,2059
2046,2064,2048,2040,2036,2032,2023,2047
2049,2059,2054,2043,2028,2030,2036,2051
2052,2062,2050,2041,2029,2040,2050,2046
2053,2057,2050,2043,2036,2054,2043,2049
2051,2058,2046,2046,2040,2064,2049,2043
2050,2053,2044,2046,2045,2070,2072,2049
2053,2054,2043,2036,2046,2073,2051,2053
2051,2049,2041,2042,2037,2067,2045,2044
2047,2052,2043,2040,2038,2056,2044,2039
2050,2060,2044,2049,2037,2051,2031,2040
2051,2057,2053,2045,2044,2048,2055,2043
2047,2057,2048,2049,2039,2047,2032,2031
2046,2054,2052,2049,2049,2047,2023,2039
2054,2054,2057,2048,2051,2052,2043,2045
2047,2059,2053,2050,2048,2055,2029,2048
2050,2063,2048,2045,2049,2060,2029,2044
2051,2058,2047,2052,2040,2057,2043,2047
2048,2055,2052,2053,2040,2049,2050,2048
2047,2060,2048,2042,2034,2050,2049,2043
2047,2059,2049,2044,2035,2048,2040,2051
2036,2052,2049,2045,2029,2049,2044,2057
2043,2051,2049,2045,2029,2046,2037,2058
2046,2051,2047,2047,2035,2046,2055,2055
2038,2052,2046,2051,2035,2046,2073,2064
2039,2050,2049,2046,2041,2049,2066,2068
2051,2050,2048,2044,2037,2046,2062,2074
2044,2057,2047,2044,2040,2045,2049,2070
2036,2050,2040,2034,2040,2040,2027,2068
2035,2046,2040,2036,2042,2040,2060,2061
2032,2058,2042,2045,2055,2050,2061,2062
2041,2051,2044,2049,2059,2045,2069,2061
2034,2049,2046,2046,2066,2046,2076,2056
2043,2051,2045,2046,2055,2048,2068,2063
2044,2049,2047,2040,2046,2041,2061,2051
2039,2047,2045,2038,2049,2040,2068,2053
2038,2045,2037,2039,2051,2044,2041,2049
2037,2050,2042,2047,2046,2045,2058,2041
2044,2050,2043,2047,2050,2042,2066,2042
2049,2053,2041,2049,2043,2046,2063,2033
2049,2050,2037,2050,2046,2049,2062,2040
2035,2044,2040,2045,2047,2046,2050,2036
2040,2046,2033,2043,2046,2041,2056,2037
2040,2046,2035,2043,2051,2047,2051,2035
2049,2040,2028,2038,2047,2033,2047,2030
2040,2029,2027,2040,2042,2037,2064,2029
2039,2034,2030,2045,2050,2046,2060,2031
2036,2033,2035,2054,2047,2055,2058,2034
2037,2039,2038,2050,2051,2047,2066,2046
2041,2042,2040,2056,2048,2046,2070,2057
2040,2043,2043,2058,2044,2029,2057,2056
2045,2037,2041,2059,2032,2012,2051,2048
2050,2042,2041,2060,2032,2005,2041,2057
2059,2052,2050,2071,2060,2012,2054,2068
2056,2059,2050,2077,2055,2020,2058,2075
2060,2053,2045,2065,2049,2019,2064,2077
2049,2053,2041,2060,2030,2022,2075,2071
2039,2049,2037,2049,2021,2017,2062,2074
2046,2045,2036,2045,2005,2020,2038,2068
2048,2042,2035,2033,1976,2027,2039,2055
2040,2041,2032,2007,1926,2028,2028,2052
2025,2027,2029,2002,1951,2068,2021,2039
2023,2031,2026,1998,1958,2090,2043,2042
2029,2031,2029,2022,2022,2083,2033,2053
2042,2046,2046,2055,2106,2095,2042,2059
2049,2062,2067,2075,2135,2082,2065,2077
2071,2082,2085,2092,2139,2058,2073,2089
2070,2075,2078,2081,2101,2042,2063,2079
2066,2072,2067,2073,2025,1988,2060,2068
2064,2071,2060,2064,1988,1941,2048,2059
2064,2064,2051,2037,1932,1946,2050,2051
2055,2048,2042,2008,1874,1989,2040,2037
2042,2037,2032,1998,1932,2020,2031,2033
2034,2032,2025,2019,2052,2052,2061,2035
2026,2035,2038,2047,2134,2088,2084,2041
2043,2044,2049,2065,2165,2097,2098,2042
2047,2047,2049,2057,2129,2064,2076,2035
2035,2040,2042,2052,2116,2053,2075,2029
2036,2035,2042,2056,2117,2061,2085,2026
2045,2045,2048,2056,2098,2063,2082,2042
2051,2050,2056,2058,2091,2062,2068,2042
2053,2057,2062,2066,2095,2084,2063,2053
2047,2056,2063,2070,2100,2150,2059,2055
2043,2050,2057,2068,2084,2178,2080,2051
2041,2033,2047,2055,2080,2192,2066,2049
2044,2026,2038,2051,2065,2120,2041,2055
2042,2034,2045,2048,2044,1981,2018,2052
2047,2041,2049,2046,2048,1954,2006,2065
2038,2041,2049,2046,2047,2012,2016,2069
2043,2048,2046,2038,2050,2040,2030,2063
2040,2050,2048,2036,2050,2052,2056,2072
2032,2052,2054,2040,2051,2064,2065,2070
2040,2050,2041,2036,2043,2057,2052,2070
2036,2046,2040,2037,2049,2057,2060,2080
2044,2059,2047,2037,2053,2041,2073,2075
2055,2061,2050,2046,2035,2010,2050,2072
2046,2057,2048,2047,2042,2020,2060,2065
2040,2053,2047,2044,2066,2020,2029,2056
2038,2052,2041,2058,2062,2035,2054,2051
2030,2047,2040,2057,2057,2041,2052,2044
2041,2052,2043,2054,2044,2045,2046,2042
2045,2053,2043,2055,2041,2045,2064,2036
2041,2051,2042,2052,2050,2044,2052,2040
2043,2046,2044,2052,2048,2043,2056,2043
2043,2049,2041,2048,2048,2043,2059,2037
2046,2050,2040,2047,2046,2037,2043,2036
2046,2051,2043,2048,2050,2043,2052,2042
2048,2046,2037,2053,2055,2049,2042,2042
2040,2042,2034,2045,2046,2030,2020,2028
2031,2039,2032,2044,2042,2024,2022,2030
2033,2045,2038,2053,2050,2048,2039,2039
2040,2046,2040,2046,2054,2059,2037,2041
2041,2045,2039,2048,2051,2046,2052,2032
2044,2045,2039,2052,2056,2048,2062,2043
2042,2044,2039,2049,2050,2044,2047,2046
2045,2049,2043,2048,2057,2044,2052,2045
2046,2045,2044,2048,2048,2041,2046,2053
2048,2050,2050,2055,2048,2035,2036,2057
2048,2050,2053,2049,2057,2044,2072,2058
2039,2053,2049,2052,2051,2044,2069,2059
2035,2047,2049,2048,2054,2044,2054,2065
2042,2042,2045,2052,2054,2042,2059,2062
2044,2044,2046,2051,2043,2041,2052,2062
2043,2046,2050,2052,2050,2037,2052,2065
2040,2047,2042,2052,2044,2028,2048,2067
2038,2038,2036,2050,2053,2045,2022,2071
2044,2046,2044,2057,2057,2061,2039,2072
2049,2054,2048,2053,2057,2059,2035,2080
2053,2057,2048,2052,2053,2051,2031,2066
2050,2063,2042,2052,2045,2045,2031,2068
2047,2054,2045,2049,2042,2039,2017,2062
2052,2047,2035,2051,2043,2036,2008,2049
2057,2045,2038,2052,2044,2040,2018,2054
2056,2053,2044,2056,2052,2052,2044,2051
2054,2055,2044,2057,2058,2062,2054,2049
2056,2052,2042,2051,2053,2067,2058,2043
2050,2048,2037,2048,2058,2058,2055,2040
2050,2041,2036,2041,2052,2067,2046,2044
2053,2045,2038,2050,2051,2072,2052,2038
2045,2040,2039,2045,2053,2067,2056,2031
2038,2040,2033,2044,2053,2064,2054,2035
2039,2031,2038,2046,2041,2069,2068,2042
2040,2037,2034,2046,2054,2081,2064,2049
2044,2049,2043,2049,2059,2103,2064,2055
2048,2044,2045,2054,2069,2102,2058,2050
2049,2044,2043,2054,2062,2090,2062,2049
2041,2038,2034,2052,2057,2070,2058,2036
2036,2036,2040,2052,2042,2025,2027,2028
2030,2040,2041,2056,2043,2000,2023,2028
2035,2039,2046,2060,2054,2020,2034,2037
2047,2046,2052,2064,2057,2049,2036,2050
2053,2052,2053,2060,2055,2039,2030,2055
2046,2048,2043,2051,2042,2028,2024,2065
2045,2047,2035,2049,2047,2023,2032,2056
2043,2038,2036,2050,2046,2026,2036,2068
2046,2033,2031,2045,2044,2030,2033,2066
2043,2036,2032,2042,2045,2032,2046,2067
2039,2032,2023,2044,2040,2035,2041,2066
2039,2030,2026,2046,2047,2041,2035,2058
2042,2033,2020,2045,2046,2042,2030,2060
2044,2039,2021,2042,2051,2046,2032,2057
2037,2043,2023,2046,2043,2046,2006,2046
2037,2044,2028,2040,2039,2044,2017,2056
2046,2033,2029,2042,2036,2031,2016,2057
2054,2032,2029,2043,2033,2032,2037,2051
2048,2031,2032,2044,2031,2038,2062,2055
2056,2041,2039,2044,2028,2029,2058,2057
2050,2048,2049,2041,2028,2007,2042,2054
2052,2049,2047,2043,2008,2000,2033,2053
2059,2051,2047,2044,2021,1991,2037,2047
2052,2049,2053,2045,2027,2001,2037,2042
2051,2058,2060,2049,2023,2002,2029,2043
2050,2059,2061,2050,2029,2003,2027,2035
2057,2070,2064,2057,2036,2016,2022,2030
2052,2066,2053,2053,2027,2033,2016,2026
2040,2049,2047,2046,2034,2057,2003,2036
2045,2063,2059,2056,2033,2042,2019,2046
2053,2061,2059,2059,2021,2035,2019,2043
2049,2057,2058,2053,2006,2041,2008,2048
2047,2058,2057,2052,2008,2043,1995,2050
2047,2063,2068,2058,2011,2054,1996,2043
2044,2061,2068,2057,2016,2066,2014,2046
2052,2065,2071,2055,2023,2076,2039,2040
2053,2062,2066,2054,2032,2083,2044,2042
2057,2054,2058,2046,2045,2083,2051,2044
2047,2051,2047,2044,2050,2087,2035,2045
2043,2052,2047,2048,2069,2103,2053,2062
2052,2053,2049,2047,2072,2092,2059,2070
2052,2055,2046,2047,2080,2080,2073,2075
2052,2050,2047,2051,2077,2073,2062,2066
2047,2053,2042,2049,2063,2058,2061,2057
2045,2041,2040,2041,2068,2051,2063,2061
2050,2047,2041,2046,2077,2057,2064,2071
2054,2056,2051,2050,2063,2047,2071,2063
2051,2058,2052,2051,2051,2038,2053,2064
2049,2054,2056,2047,2053,2030,2025,2061
2056,2052,2056,2051,2050,2029,2026,2058
2050,2054,2050,2049,2039,2025,2041,2056
2053,2054,2048,2041,2033,2028,2052,2043
2051,2055,2050,2049,2040,2036,2046,2043
2054,2048,2052,2052,2053,2050,2050,2047
2058,2051,2047,2049,2077,2060,2066,2054
2053,2050,2050,2054,2112,2070,2069,2043
2057,2055,2052,2054,2124,2059,2071,2040
2056,2048,2045,2054,2115,2059,2067,2032
2052,2046,2044,2047,2116,2062,2061,2026
2048,2043,2041,2050,2108,2060,2054,2024
2038,2031,2036,2049,2096,2058,2027,2019
2031,2031,2032,2045,2072,2063,2040,2021
2050,2033,2032,2046,2051,2074,2056,2034
2045,2034,2032,2040,1930,2060,2051,2037
2056,2041,2028,2033,1939,2056,2044,2039
2054,2048,2030,2044,1986,2033,2053,2041
2050,2049,2031,2048,2006,2021,2056,2040
2046,2054,2022,2042,2025,2037,2030,2043
2047,2046,2019,2034,2046,2039,2040,2039
2044,2043,2020,2041,2052,2047,2025,2049
2050,2042,2015,2036,2049,2048,2033,2050
2046,2038,2014,2032,2048,2058,2040,2050
2041,2037,2010,2036,2048,2063,2039,2050
2039,2029,2015,2041,2056,2069,2042,2053
2034,2029,2012,2041,2060,2075,2047,2053
2044,2032,2016,2038,2049,2085,2047,2055
2045,2035,2019,2032,2035,2075,2026,2048
2034,2021,2018,2032,2035,2073,2027,2044
2034,2029,2030,2032,2051,2064,2034,2051
2046,2039,2043,2042,2061,2028,2047,2063
2044,2046,2048,2047,2057,2027,2040,2060
2043,2040,2064,2045,2028,2029,2049,2052
2030,2035,2058,2035,2002,2028,2040,2038
2022,2031,2059,2027,1983,2020,2033,2042
2035,2036,2059,2021,1984,2020,2032,2042
2037,2035,2061,2036,2018,2011,2040,2042
2050,2050,2071,2063,2048,2021,2050,2057
2050,2051,2066,2062,2059,2032,2055,2049
2057,2048,2068,2058,2056,2040,2051,2052
2056,2066,2070,2061,2015,2041,2045,2051
2059,2071,2064,2057,2025,2045,2041,2046
2059,2059,2066,2057,2042,2055,2060,2043
2056,2058,2056,2060,2036,2060,2041,2034
2051,2045,2039,2053,2026,2050,2025,2034
2045,2038,2032,2044,2006,2050,2034,2038
2055,2051,2046,2051,2015,2047,2019,2034
2053,2050,2044,2059,2036,2048,2054,2036
2046,2047,2046,2044,2018,2035,2050,2042
2044,2042,2037,2041,2045,2037,2061,2045
2037,2039,2042,2058,2079,2050,2044,2048
2042,2046,2045,2064,2087,2059,2036,2048
2045,2045,2047,2059,2078,2064,2040,2050
2048,2047,2046,2052,2070,2059,2051,2056
2049,2052,2050,2053,2070,2059,2062,2054
2051,2048,2046,2050,2061,2063,2053,2066
2051,2050,2044,2054,2062,2058,2034,2066
2049,2049,2044,2054,2056,2055,2036,2073
2052,2043,2036,2054,2052,2051,2049,2071
2051,2036,2036,2046,2058,2047,2045,2075
2050,2041,2032,2044,2048,2036,2041,2071
2044,2037,2033,2043,2044,2023,2052,2068
2042,2041,2049,2048,2039,2013,2035,2065
2055,2045,2052,2045,2045,2019,2042,2062
2058,2055,2054,2049,2049,2034,2019,2066
2051,2054,2058,2054,2051,2058,2037,2061
2056,2054,2057,2060,2060,2081,2054,2054
2056,2053,2064,2065,2075,2094,2060,2052
2058,2056,2069,2066,2066,2104,2039,2042
2062,2060,2065,2060,2040,2098,2062,2049
2057,2056,2060,2054,2025,2083,2060,2045
2058,2048,2052,2049,2022,2062,2065,2041
2054,2043,2052,2048,2030,2047,2074,2038
2051,2044,2053,2053,2040,2027,2058,2038
2052,2048,2052,2060,2045,2006,2060,2041
2058,2051,2049,2052,2049,2000,2065,2036
2058,2044,2053,2056,2040,1996,2066,2033
2048,2034,2049,2046,2030,1998,2049,2026
2044,2034,2051,2054,2035,2008,2070,2026
2045,2048,2061,2053,2042,2014,2064,2041
2043,2051,2062,2058,2049,2021,2040,2030
2046,2060,2062,2063,2051,2021,2042,2030
2042,2057,2056,2059,2052,2018,2020,2028
2046,2064,2071,2060,2061,2036,2008,2038
2045,2058,2064,2055,2060,2080,2012,2049
2049,2058,2057,2060,2070,2132,2038,2063
2049,2054,2059,2060,2063,2127,2038,2072
2060,2054,2058,2063,2060,2109,2020,2065
2060,2056,2057,2057,2055,2095,2022,2069
2054,2056,2055,2058,2056,2057,2029,2070
2057,2049,2048,2063,2060,2008,2024,2071
2053,2046,2054,2055,2054,2001,2019,2066
2045,2038,2047,2048,2046,2016,2002,2064
2041,2027,2037,2038,2033,2030,2010,2065
2040,2031,2039,2041,2034,2038,2041,2077
2058,2050,2052,2049,2029,2040,2043,2075
2066,2056,2054,2051,2028,2043,2054,2070
2058,2056,2055,2051,2039,2037,2042,2059
2047,2055,2054,2056,2044,2041,2029,2056
2050,2055,2056,2059,2057,2047,2054,2055
2055,2057,2053,2052,2059,2039,2048,2053
2049,2059,2054,2050,2046,2036,2044,2042
2044,2052,2047,2045,2044,2043,2049,2046
2045,2049,2041,2038,2061,2053,2042,2031
2038,2046,2046,2041,2051,2058,2056,2022
2042,2057,2043,2045,2046,2061,2037,2030
2048,2057,2046,2040,2042,2064,2034,2025
2056,2054,2042,2042,2036,2059,2052,2032
2050,2052,2044,2039,2029,2056,2033,2027
2042,2036,2028,2027,2011,2046,2023,2018
2028,2033,2024,2024,2002,2050,2022,2020
2034,2048,2034,2032,2007,2061,2014,2019
2043,2045,2035,2038,2000,2043,2010,2023
2046,2055,2045,2033,2014,2020,2010,2037
2056,2061,2053,2057,2058,2024,2045,2049
2060,2062,2059,2064,2080,2040,2034,2051
2054,2060,2054,2069,2088,2054,2049,2043
2049,2066,2050,2056,2085,2058,2033,2045
2041,2056,2042,2056,2074,2060,2038,2055
2049,2055,2043,2052,2065,2055,2043,2060
2052,2060,2046,2046,2062,2047,2040,2064
2052,2055,2044,2049,2057,2050,2047,2076
2055,2052,2048,2046,2058,2042,2042,2067
2053,2047,2045,2042,2049,2036,2020,2068
2054,2046,2041,2039,2044,2034,2041,2063
2043,2043,2032,2036,2033,2023,2024,2064
2038,2041,2040,2034,2037,2024,2026,2077
2052,2049,2043,2039,2049,2029,2046,2071
2052,2048,2045,2045,2043,2035,2047,2060
2049,2046,2052,2048,2041,2036,2029,2056
2048,2052,2053,2048,2044,2044,2038,2054
2046,2059,2052,2047,2033,2037,2047,2059
2046,2052,2046,2037,2032,2041,2027,2039
2050,2049,2043,2040,2032,2043,2029,2040
2052,2042,2043,2038,2034,2051,2061,2044
2053,2034,2034,2039,2040,2050,2059,2049
2053,2041,2030,2041,2036,2045,2045,2048
2058,2040,2034,2037,2032,2045,2044,2048
2054,2042,2033,2034,2032,2039,2052,2043
2052,2047,2037,2038,2029,2046,2039,2041
2048,2051,2045,2035,2037,2058,2052,2034
2051,2058,2049,2047,2070,2048,2063,2030
2045,2062,2062,2064,2082,2055,2052,2046
2062,2075,2070,2060,2074,2057,2081,2051
2061,2068,2056,2053,2062,2056,2075,2049
2054,2062,2053,2042,2059,2056,2071,2054
2049,2058,2050,2046,2061,2049,2076,2050
2053,2052,2054,2050,2056,2049,2060,2049
2045,2052,2052,2050,2055,2044,2055,2050
2036,2043,2055,2052,2051,2040,2067,2052
2037,2053,2057,2053,2050,2046,2049,2061
2049,2064,2063,2057,2060,2053,2087,2071
2052,2058,2055,2057,2054,2050,2079,2071
2049,2056,2057,2055,2052,2044,2055,2072
2044,2054,2057,2052,2053,2056,2049,2065
2045,2053,2054,2057,2057,2063,2040,2062
2050,2058,2060,2059,2060,2070,2058,2065
2039,2056,2054,2052,2051,2050,2020,2061
2039,2044,2046,2050,2047,2035,2015,2059
2047,2054,2051,2051,2048,2040,2032,2071
2057,2051,2053,2046,2052,2050,2029,2073
2055,2047,2049,2045,2047,2046,2056,2063
2053,2047,2048,2047,2035,2034,2052,2058
2045,2047,2047,2046,2046,2030,2039,2053
2042,2049,2050,2046,2040,2013,2053,2051
2047,2053,2046,2042,2040,2015,2047,2046
2046,2046,2048,2048,2035,2020,2032,2044
2042,2055,2044,2042,2028,2030,2023,2042
2045,2056,2035,2044,2026,2039,2040,2036
2044,2056,2039,2049,2022,2033,2044,2038
2043,2056,2034,2038,2008,2022,2032,2032
2043,2047,2035,2042,2008,2028,2043,2033
2042,2045,2042,2040,2010,2043,2020,2024
2037,2035,2038,2035,2013,2052,2021,2028
2031,2021,2031,2032,2014,2050,2037,2037
2031,2031,2041,2032,2039,2061,2053,2038
2038,2039,2046,2039,2066,2050,2039,2036
2040,2049,2050,2046,2090,2051,2048,2040
2046,2053,2053,2052,2098,2051,2062,2052
2059,2057,2066,2052,2082,2052,2073,2051
2058,2059,2063,2047,2067,2046,2062,2054
2053,2059,2058,2052,2062,2049,2053,2063
2052,2058,2064,2044,2057,2059,2042,2063
2053,2052,2059,2047,2060,2061,2054,2065
2050,2056,2059,2051,2064,2068,2054,2060
2050,2060,2059,2052,2062,2090,2065,2058
2050,2053,2054,2049,2064,2116,2057,2075
2045,2052,2052,2042,2062,2099,2053,2070
2044,2048,2052,2043,2063,2082,2036,2080
2045,2045,2050,2044,2053,2085,2049,2076
2045,2044,2047,2046,2047,2083,2067,2078
2045,2057,2056,2048,2050,2087,2053,2089
2052,2060,2068,2045,2056,2095,2062,2085
2058,2058,2067,2048,2061,2090,2055,2074
2060,2056,2067,2047,2056,2077,2039,2071
2056,2058,2060,2044,2040,2050,2041,2061
2057,2054,2061,2033,2011,2046,2034,2055
2054,2052,2052,2038,2002,2034,2043,2047
2050,2052,2049,2026,1981,2016,2034,2039
2052,2049,2046,2016,1977,2021,2025,2036
2051,2052,2054,2035,2012,2040,2040,2044
2059,2053,2064,2056,2046,2032,2041,2047
2058,2057,2060,2060,2062,2032,2025,2041
2056,2053,2057,2061,2054,2051,2060,2037
2051,2049,2056,2040,2025,2054,2068,2026
2039,2049,2049,2031,2006,2046,2064,2024
2029,2031,2038,2029,2013,2048,2059,2022
2029,2031,2033,2039,2048,2075,2082,2028
2040,2043,2039,2058,2081,2090,2071,2034
2047,2049,2043,2066,2112,2087,2069,2038
2044,2047,2044,2068,2144,2053,2043,2035
2047,2045,2045,2062,2140,2018,2042,2041
2041,2050,2047,2055,2118,2016,2038,2041
2043,2044,2039,2047,2122,2029,2047,2038
2042,2044,2039,2053,2130,2055,2067,2050
2044,2052,2046,2061,2146,2082,2050,2063
2052,2055,2040,2042,2104,2075,2042,2062
2055,2054,2042,2033,2012,2054,2056,2063
2053,2051,2040,2015,1891,2036,2035,2069
2046,2050,2040,2012,1948,2041,2039,2064
2042,2049,2044,2020,2008,2054,2027,2066
2048,2045,2043,2028,2040,2083,2043,2059
2041,2030,2038,2034,2075,2100,2053,2060
2037,2039,2036,2041,2080,2110,2070,2064
2046,2051,2050,2038,2040,2090,2056,2062
2045,2051,2055,2045,2017,2050,2046,2054
2043,2052,2056,2043,2019,1992,2046,2058
2045,2056,2055,2044,2019,1985,2048,2058
2049,2055,2053,2038,2018,2008,2049,2051
2048,2052,2049,2037,2018,2028,2056,2043
2043,2051,2045,2038,2026,2039,2058,2047
2045,2048,2046,2037,2028,2045,2061,2041
2047,2048,2049,2042,2031,2049,2061,2042
2047,2045,2043,2046,2035,2050,2040,2038
2048,2044,2046,2043,2035,2065,2063,2043
2053,2048,2044,2043,2032,2081,2056,2035
2060,2048,2044,2043,2034,2082,2041,2045
2060,2049,2044,2043,2042,2069,2044,2033
2054,2049,2040,2038,2055,2058,2042,2034
2050,2042,2038,2038,2056,2053,2063,2027
2052,2047,2044,2046,2067,2065,2071,2034
2059,2054,2044,2047,2072,2049,2074,2038
2059,2052,2041,2047,2069,2031,2052,2040
2059,2053,2037,2045,2060,2021,2046,2040
2051,2053,2040,2051,2058,2010,2038,2043
2053,2050,2034,2048,2054,2002,2045,2042
2040,2045,2030,2044,2034,2007,2063,2053
2039,2047,2029,2034,2034,2015,2068,2055
2037,2044,2026,2037,2031,2037,2057,2062
2051,2056,2034,2041,2025,2045,2057,2074
2052,2054,2030,2034,2024,2045,2059,2074
2054,2050,2031,2032,2020,2036,2068,2086
2055,2051,2033,2036,2025,2057,2079,2082
2050,2049,2030,2036,2030,2067,2068,2081
2048,2043,2026,2030,2025,2068,2065,2074
2043,2036,2015,2025,2028,2058,2058,2065
2037,2030,2027,2029,2048,2057,2051,2064
2042,2038,2038,2039,2056,2054,2060,2065
2039,2043,2033,2041,2054,2045,2055,2061
2039,2045,2038,2044,2054,2049,2044,2055
2048,2045,2041,2046,2056,2060,2063,2052
2053,2047,2044,2045,2065,2070,2070,2053
2053,2049,2047,2059,2077,2082,2061,2052
2050,2057,2055,2058,2077,2077,2043,2041
2045,2052,2060,2055,2074,2063,2063,2041
2038,2051,2056,2057,2070,2042,2052,2041
2040,2054,2055,2053,2063,2030,2042,2039
2043,2055,2055,2059,2061,2031,2062,2048
2048,2055,2044,2053,2058,2021,2034,2043
2052,2050,2043,2050,2039,2009,2045,2045
2050,2048,2037,2046,2022,1999,2045,2041
2040,2041,2030,2034,2013,1997,2044,2028
2035,2045,2033,2040,2017,2005,2053,2027
2038,2052,2048,2041,2030,2017,2032,2024
2031,2044,2047,2035,2037,2026,2046,2027
2033,2047,2052,2050,2062,2046,2056,2044
2046,2062,2066,2073,2089,2061,2057,2056
2057,2067,2073,2073,2085,2058,2072,2064
2061,2066,2069,2073,2091,2055,2070,2066
2059,2067,2071,2066,2087,2047,2074,2065
2062,2064,2065,2072,2078,2039,2070,2068
2053,2062,2058,2063,2069,2026,2060,2073
2059,2060,2053,2059,2064,2014,2055,2070
2051,2051,2054,2058,2064,2001,2032,2072
2046,2053,2052,2058,2060,2001,2030,2075
2045,2048,2047,2059,2057,2005,2041,2082
2048,2051,2050,2060,2052,1993,2034,2079
2042,2046,2051,2052,2033,1976,2001,2073
2045,2048,2043,2042,2025,1976,2003,2073
2050,2054,2058,2054,2025,1991,2035,2069
2050,2054,2056,2063,2035,2015,2057,2062
2052,2058,2055,2058,2041,2018,2045,2067
2051,2052,2053,2056,2033,2029,2055,2064
2043,2045,2047,2052,2044,2066,2072,2056
2039,2040,2041,2051,2051,2101,2072,2053
2041,2044,2044,2056,2059,2083,2055,2049
2045,2045,2049,2058,2050,2067,2051,2051
2048,2050,2052,2056,2054,2064,2052,2041
2050,2055,2046,2057,2060,2059,2066,2048
2057,2052,2047,2061,2066,2052,2071,2053
2053,2052,2050,2058,2062,2030,2053,2048
2048,2053,2054,2055,2063,2021,2037,2042
2053,2051,2050,2055,2047,2022,2031,2038
2042,2042,2041,2049,2038,2017,2030,2037
2038,2038,2036,2053,2046,2022,2046,2041
2049,2050,2046,2060,2060,2026,2065,2050
2056,2058,2050,2065,2074,2026,2047,2057
2057,2055,2053,2070,2082,2023,2043,2050
2054,2054,2046,2060,2069,2045,2055,2044
2048,2050,2047,2049,2046,2061,2064,2046
2050,2050,2046,2053,2036,2069,2060,2042
2045,2049,2052,2052,2026,2084,2059,2042
2051,2049,2043,2056,2026,2075,2064,2045
2050,2043,2048,2057,2052,2040,2061,2049
2051,2052,2049,2059,2052,2042,2048,2055
2056,2049,2054,2064,2023,2056,2031,2061
2050,2053,2053,2069,2037,2064,2041,2067
2052,2048,2051,2062,2061,2069,2024,2069
2047,2056,2053,2064,2055,2064,2046,2066
2053,2048,2048,2061,2034,2056,2029,2058
2041,2046,2043,2061,2034,2057,2057,2069
2042,2055,2049,2058,2046,2056,2054,2066
2049,2056,2049,2056,2043,2049,2053,2063
2043,2053,2045,2040,2000,2024,2036,2062
2036,2044,2040,2031,2036,2037,2052,2056
2042,2048,2039,2038,2060,2048,2047,2048
2039,2051,2043,2048,2043,2046,2065,2050
2038,2052,2048,2048,2041,2046,2064,2052
2049,2057,2049,2050,2053,2054,2073,2054
2059,2062,2049,2054,2046,2066,2076,2065
2070,2066,2050,2058,2045,2074,2079,2065
2066,2061,2050,2059,2045,2070,2056,2051
2063,2061,2047,2054,2035,2064,2045,2040
2050,2062,2051,2048,2032,2057,2031,2040
2052,2054,2047,2057,2040,2060,2020,2043
2054,2059,2049,2059,2041,2059,2044,2034
2051,2047,2048,2055,2047,2062,2039,2027
2049,2053,2046,2056,2053,2058,2030,2029
2056,2059,2051,2061,2046,2036,2017,2034
2056,2059,2051,2059,2040,2017,2011,2043
2050,2049,2047,2058,2043,2015,2010,2040
2054,2042,2045,2048,2049,2036,2024,2037
2045,2041,2041,2047,2046,2051,2032,2035
2045,2041,2046,2043,2025,2055,2002,2039
2050,2051,2043,2042,2020,2058,2016,2040
2052,2048,2042,2045,2037,2036,2034,2045
2054,2045,2053,2053,2068,2019,2039,2063
2056,2049,2058,2072,2102,2028,2058,2075
2060,2051,2055,2079,2106,2045,2052,2072
2056,2045,2043,2074,2110,2067,2051,2074
2050,2047,2044,2070,2102,2068,2058,2075
2046,2045,2048,2070,2084,2071,2041,2077
2039,2036,2038,2057,2060,2058,2037,2073
2041,2034,2034,2053,2045,2039,2040,2074
2047,2048,2035,2051,2023,2016,2047,2073
2043,2045,2036,2053,2016,2014,2042,2070
2050,2049,2046,2054,2020,2021,2040,2070
2054,2056,2044,2060,2032,2023,2046,2072
2053,2056,2046,2057,2032,2037,2049,2063
2062,2055,2049,2057,2038,2053,2057,2062
2056,2055,2046,2056,2042,2059,2073,2056
2049,2053,2046,2056,2030,2052,2052,2042
2041,2046,2039,2045,2012,2026,2053,2036
2038,2041,2037,2046,2023,2021,2053,2033
2045,2045,2041,2060,2037,2025,2068,2034
2053,2044,2045,2065,2060,2025,2063,2036
2052,2045,2043,2066,2069,2037,2037,2036
2056,2049,2042,2055,2051,2044,2052,2030
2054,2038,2033,2041,2038,2053,2015,2028
2043,2029,2030,2040,2044,2070,2032,2032
2041,2036,2037,2055,2055,2053,2065,2044
2048,2040,2047,2060,2058,2020,2053,2052
2049,2045,2044,2061,2051,2019,2024,2043
2053,2038,2040,2063,2059,2055,2038,2045
2054,2037,2041,2058,2058,2072,2064,2040
2049,2036,2041,2060,2068,2088,2065,2041
2046,2037,2037,2054,2073,2086,2057,2044
2034,2037,2040,2057,2072,2066,2055,2054
2038,2050,2049,2060,2066,2010,2060,2061
2051,2051,2046,2066,2068,2002,2057,2066
2051,2048,2047,2064,2073,2021,2062,2070
2055,2051,2043,2063,2071,2036,2071,2070
2054,2048,2038,2059,2064,2040,2056,2073
2046,2043,2044,2057,2060,2039,2066,2073
2044,2043,2042,2051,2056,2027,2028,2070
2047,2041,2040,2051,2044,2028,2021,2075
2044,2051,2044,2057,2052,2031,2016,2068
2043,2048,2042,2060,2045,2037,2020,2059
2044,2052,2048,2059,2038,2043,2036,2055
2040,2050,2042,2053,2038,2049,2038,2058
2043,2048,2039,2051,2035,2051,2034,2056
2050,2045,2040,2043,2032,2041,2041,2044
2052,2042,2037,2049,2032,2041,2033,2033
2047,2043,2034,2047,2043,2050,2028,2022
2042,2044,2039,2044,2029,2034,2045,2026
2044,2045,2036,2050,2040,2035,2033,2028
2050,2047,2042,2055,2056,2040,2033,2036
2047,2046,2041,2056,2050,2037,2066,2046
2048,2042,2038,2056,2047,2039,2042,2040
2046,2037,2032,2050,2046,2035,2046,2037
2034,2035,2037,2044,2038,2028,2020,2028
2027,2025,2033,2042,2032,2030,2042,2031
2027,2029,2038,2051,2040,2042,2059,2049
2052,2051,2043,2051,2052,2040,2062,2052
2054,2049,2052,2044,2044,2049,2051,2053
2054,2051,2048,2048,2041,2062,2053,2055
2053,2052,2047,2047,2041,2065,2056,2056
2055,2053,2045,2048,2049,2076,2059,2059
2056,2049,2041,2047,2043,2067,2062,2063
2053,2044,2040,2047,2042,2048,2053,2055
2056,2047,2045,2047,2043,2041,2010,2043
2043,2047,2048,2046,2037,2070,2023,2053
2048,2049,2042,2037,2039,2065,2042,2063
2048,2049,2038,2041,2052,2058,2052,2068
2049,2057,2034,2050,2054,2051,2027,2072
2045,2050,2038,2045,2050,2055,2013,2072
2035,2052,2037,2038,2037,2046,2032,2072
2036,2052,2039,2040,2040,2049,2023,2070
2034,2046,2047,2042,2048,2058,2050,2064
2046,2057,2056,2050,2047,2059,2037,2060
2048,2058,2053,2046,2044,2058,2031,2064
2050,2058,2053,2045,2046,2053,2059,2057
2049,2060,2057,2049,2054,2056,2038,2048
2042,2061,2058,2052,2047,2044,2038,2045
2048,2062,2067,2054,2046,2028,2040,2045
2050,2064,2068,2044,2044,2033,2031,2040
2044,2064,2065,2055,2050,2057,2040,2043
2046,2053,2062,2057,2045,2078,2048,2035
2052,2053,2062,2049,2046,2077,2043,2041
2056,2053,2056,2046,2039,2078,2039,2038
2055,2052,2050,2042,2038,2067,2044,2037
2061,2050,2048,2046,2041,2065,2059,2034
2056,2048,2044,2044,2042,2061,2029,2027
2037,2037,2040,2038,2045,2046,2037,2028
2040,2037,2041,2046,2049,2041,2054,2035
2047,2049,2043,2052,2039,2026,2060,2034
2050,2046,2046,2050,2037,2024,2063,2033
2042,2042,2045,2045,2037,2018,2066,2034
2040,2041,2043,2044,2042,2024,2058,2035
2044,2039,2044,2044,2046,2028,2046,2035
2038,2036,2042,2045,2034,2020,2047,2034
2039,2037,2038,2033,2028,2018,2024,2045
2042,2034,2027,2041,2043,2019,2027,2053
2038,2037,2025,2043,2050,2031,2027,2045
2042,2034,2023,2046,2054,2037,2033,2050
2034,2029,2027,2045,2058,2042,2044,2060
2040,2033,2023,2044,2050,2032,2045,2060
2038,2033,2023,2041,2037,2026,2032,2054
2037,2032,2026,2036,2030,2021,2035,2048
2031,2026,2021,2029,2023,2017,2016,2047
2032,2021,2022,2038,2030,2030,2027,2049
2032,2038,2036,2039,2037,2054,2063,2059
2037,2042,2034,2037,2042,2053,2044,2056
2043,2035,2036,2036,2042,2048,2045,2052
2045,2043,2037,2038,2040,2052,2055,2059
2045,2047,2050,2045,2042,2046,2062,2056
2053,2052,2062,2044,2031,2029,2051,2057
2054,2052,2071,2036,2007,2018,2062,2044
2052,2056,2069,2037,1988,2009,2041,2042
2047,2059,2072,2038,1984,2004,2040,2031
2048,2052,2066,2032,1982,2007,2046,2023
2045,2050,2064,2037,2015,2028,2056,2030
2056,2065,2076,2058,2048,2047,2066,2039
2064,2068,2074,2068,2079,2060,2062,2044
2060,2058,2074,2070,2106,2072,2072,2050
2066,2060,2075,2071,2097,2081,2065,2039
2054,2058,2065,2057,2073,2071,2055,2040
2047,2052,2062,2054,2048,2047,2037,2044
2046,2058,2068,2061,2046,2039,2047,2044
