CH1,CH2,CH3,CH4,CH5,CH6,CH7,CH8
2062,2058,2070,2040,2042,2022,2029,2027
2054,2054,2057,2036,1967,1992,2008,2027
2051,2047,2048,2032,1969,1991,2003,2035
2050,2047,2042,2048,2037,2024,2029,2037
2047,2050,2048,2055,2059,2045,2042,2038
2035,2051,2057,2058,2063,2053,2048,2043
2032,2057,2064,2062,2063,2041,2058,2052
2039,2056,2060,2056,2011,2037,2042,2065
2041,2045,2056,2066,2027,2041,2040,2070
2039,2046,2076,2079,2023,2044,2040,2068
2043,2038,2076,2075,2029,2053,2040,2070
2043,2040,2085,2080,2050,2062,2024,2068
2045,2024,2077,2081,2073,2068,2037,2064
2041,2021,2077,2072,2067,2062,2030,2066
2048,2032,2075,2062,2050,2067,2033,2063
2049,2030,2068,2059,2055,2065,2048,2052
2037,2025,2056,2069,2094,2074,2040,2046
2032,2019,2042,2086,2139,2083,2052,2049
2041,2032,2038,2090,2162,2094,2060,2047
2058,2045,2042,2092,2161,2089,2042,2055
2069,2056,2040,2097,2172,2077,2045,2039
2068,2062,2039,2069,2130,2032,2028,2017
2051,2056,2038,2049,2056,2008,2020,2005
2042,2060,2044,2050,2055,2021,2037,2013
2045,2068,2051,2056,2062,2040,2043,2032
2053,2071,2056,2037,2073,2056,2050,2028
2059,2078,2036,2007,1978,2053,2052,2024
2049,2062,2026,1990,2010,2048,2037,2016
2047,2048,2021,2001,2088,2039,2043,2021
2052,2045,2033,2020,2096,2046,2051,2037
2061,2056,2041,2033,2089,2056,2065,2036
2065,2060,2045,2032,2039,2061,2053,2035
2052,2048,2053,2027,1981,2055,2055,2028
2056,2052,2048,2020,1964,2054,2058,2037
2062,2050,2047,2037,2024,2063,2063,2049
2061,2049,2053,2045,2054,2064,2052,2051
2063,2050,2054,2044,2068,2055,2055,2050
2053,2053,2052,2042,2031,2044,2056,2046
2054,2047,2043,2047,2036,2047,2056,2063
2054,2046,2043,2034,2018,2042,2074,2065
2042,2042,2044,2036,2029,2033,2052,2064
2049,2046,2044,2022,2026,2028,2042,2061
2059,2050,2043,2034,2056,2051,2054,2068
2056,2051,2054,2041,2063,2052,2056,2069
2046,2042,2038,2035,2054,2048,2032,2063
2044,2032,2038,2032,2044,2045,2055,2064
2046,2045,2041,2036,2036,2046,2044,2060
2042,2040,2033,2041,2037,2048,2058,2056
2043,2039,2041,2040,2036,2048,2061,2045
2044,2044,2041,2042,2040,2040,2057,2043
2048,2041,2040,2047,2045,2043,2049,2042
2049,2051,2041,2054,2043,2043,2033,2036
2052,2045,2039,2047,2032,2043,2047,2032
2052,2037,2034,2045,2027,2042,2054,2034
2048,2038,2028,2037,2028,2045,2039,2032
2062,2048,2034,2047,2030,2049,2050,2036
2072,2056,2040,2057,2030,2049,2064,2031
2075,2067,2046,2062,2028,2042,2046,2036
2074,2058,2041,2054,2021,2041,2039,2030
2063,2048,2031,2050,2027,2048,2043,2021
2049,2032,2026,2028,1977,2030,2051,2021
2040,2020,2029,2018,1961,2030,2048,2014
2046,2042,2044,2034,1979,2043,2053,2011
2048,2038,2041,2038,2007,2055,2054,2013
2040,2029,2026,2026,1983,2061,2036,2013
2036,2029,2024,2026,1949,2093,2048,2025
2060,2052,2047,2040,1967,2110,2052,2036
2072,2065,2062,2055,1986,2100,2040,2035
2063,2046,2040,2049,2035,2054,2034,2036
2054,2041,2040,2075,2123,2027,2030,2053
2050,2051,2045,2100,2166,2009,2060,2058
2047,2051,2057,2096,2177,2027,2068,2054
2047,2057,2059,2088,2201,2053,2074,2065
2059,2050,2056,2077,2200,2056,2071,2074
2059,2041,2047,2050,2143,2046,2047,2075
2055,2034,2042,2028,2087,2044,2070,2071
2047,2037,2032,2029,2095,2047,2044,2058
2034,2036,2034,2027,2097,2045,2046,2061
2040,2043,2039,2027,2045,2046,2046,2059
2058,2036,2039,2020,1956,2036,2025,2052
2055,2035,2044,2028,1936,2031,2037,2052
2056,2057,2055,2029,1898,2022,2038,2044
2059,2076,2072,2049,1983,2038,2038,2039
2060,2073,2063,2054,1988,2046,2019,2038
2064,2065,2064,2069,2019,2059,2038,2036
2056,2058,2062,2069,2055,2053,2035,2031
2049,2051,2057,2069,2064,2049,2028,2028
2055,2055,2054,2062,2091,2054,2037,2017
2056,2049,2061,2063,2099,2060,2031,2021
2055,2051,2065,2066,2105,2063,2031,2013
2054,2056,2069,2060,2075,2049,2013,2015
2057,2050,2059,2051,2056,2034,2001,2016
2058,2045,2050,2052,2044,2000,2005,2017
2054,2037,2044,2052,2047,1985,2002,2025
2056,2047,2049,2058,2062,2005,2024,2024
2056,2056,2052,2073,2090,2040,2042,2033
2054,2053,2064,2087,2124,2057,2040,2031
2059,2054,2063,2097,2156,2078,2055,2042
2061,2053,2056,2092,2144,2089,2055,2043
2060,2042,2037,2049,2057,2070,2024,2047
2045,2031,2024,2021,1994,2044,2031,2049
2058,2039,2042,2029,2017,2037,2034,2050
2056,2051,2065,2031,2029,2036,2049,2051
2056,2040,2062,2042,2042,2027,2037,2058
2055,2035,2054,2044,2048,2036,2041,2054
2055,2041,2061,2059,2070,2056,2051,2061
2056,2049,2063,2065,2077,2059,2050,2056
2051,2034,2038,2058,2038,2036,2038,2057
2053,2021,2020,2053,2017,2012,2034,2051
2052,2004,2012,2047,2012,2011,2020,2039
2052,2010,2017,2055,1975,2023,2033,2046
2063,2031,2037,2074,1983,2048,2045,2048
2071,2054,2054,2090,2023,2067,2034,2050
2062,2054,2049,2081,2046,2074,2047,2041
2031,2043,2037,2066,2041,2064,2034,2034
2027,2039,2025,2052,2050,2061,2058,2036
2040,2052,2029,2067,2081,2090,2068,2040
2053,2060,2033,2070,2089,2094,2076,2029
2060,2058,2016,2069,2070,2078,2074,2027
2053,2058,2014,2072,2092,2065,2062,2027
2058,2056,2009,2092,2096,2043,2061,2033
2070,2043,2013,2100,2085,2046,2038,2034
2081,2041,2018,2073,2036,2084,2033,2022
2071,2028,2004,2032,1925,2082,2040,1996
2039,2001,1986,1999,1950,2047,2008,1980
2026,1984,1971,1987,2004,2015,1994,1983
2024,1986,1990,2000,2027,1992,2004,1994
2042,2023,2024,2021,2018,1986,2018,2016
2055,2052,2042,2029,2005,2014,2031,2014
2036,2055,2042,2059,2091,2045,2056,2023
2032,2057,2045,2078,2142,2065,2042,2032
2038,2051,2048,2085,2179,2064,2038,2040
2059,2058,2055,2078,2106,2044,2033,2042
2049,2043,2046,2058,2050,2029,2020,2032
2048,2031,2031,2034,2015,2022,2010,2026
2040,2026,2029,2022,2005,2017,2018,2033
2041,2036,2043,2016,2010,2024,2032,2042
2052,2062,2080,2030,2031,2041,2039,2056
2054,2082,2096,2042,2056,2054,2060,2057
2057,2085,2097,2043,2068,2058,2064,2066
2048,2085,2085,2035,2052,2052,2044,2070
2047,2082,2073,2026,2042,2043,2049,2074
2046,2070,2067,2033,2048,2049,2064,2075
2051,2068,2076,2038,2053,2054,2062,2079
2061,2068,2061,2028,2050,2044,2037,2070
2057,2058,2056,2024,2044,2044,2030,2072
2056,2059,2056,2027,2037,2042,2033,2066
2059,2060,2058,2035,2041,2041,2023,2054
2051,2054,2052,2036,2039,2045,2050,2033
2046,2047,2053,2048,2050,2054,2054,2024
2053,2049,2059,2060,2057,2057,2051,2032
2054,2060,2056,2086,2067,2057,2065,2039
2054,2053,2063,2082,2061,2054,2050,2034
2056,2041,2049,2075,2065,2061,2053,2023
2052,2035,2045,2081,2066,2062,2051,2015
2056,2035,2041,2071,2059,2058,2052,2017
2051,2033,2021,2068,2054,2049,2048,2013
2051,2039,2013,2059,2050,2042,2037,2021
2048,2027,1994,2047,2042,2032,2043,2017
2039,2026,1987,2040,2028,2020,2047,2016
2042,2052,2004,2045,2022,2021,2027,2023
2045,2060,2007,2035,2015,2024,2036,2022
2042,2050,2000,2016,2011,2022,2034,2018
2030,2030,1981,1994,2012,2027,2030,2021
2025,2015,1972,1986,2041,2044,2046,2031
2035,2023,1990,1997,2070,2053,2054,2042
2042,2035,2015,2006,2075,2061,2049,2053
2044,2050,2058,2023,2080,2069,2058,2066
2048,2072,2093,2030,2090,2074,2072,2073
2062,2087,2113,2030,2106,2074,2066,2077
2070,2086,2109,2041,2114,2081,2071,2079
2059,2079,2094,2042,2097,2069,2058,2076
2058,2066,2099,2045,2081,2061,2051,2079
2051,2063,2095,2044,2071,2056,2047,2080
2048,2050,2076,2037,2065,2051,2037,2081
2042,2043,2068,2036,2058,2055,2030,2077
2048,2052,2070,2043,2059,2063,2057,2072
2057,2055,2057,2036,2021,2050,2064,2070
2039,2047,2042,2025,2010,2052,2048,2060
2039,2041,2036,2028,2025,2058,2059,2054
2042,2035,2028,2028,2021,2054,2060,2049
2044,2029,2022,2034,2015,2046,2070,2048
2052,2034,2013,2035,2022,2033,2066,2050
2057,2039,2009,2032,2006,2020,2035,2049
2053,2037,2005,2037,2004,2015,2035,2036
2048,2028,1995,2035,2026,2025,2038,2030
2048,2037,1999,2047,2045,2039,2041,2022
2047,2046,2006,2068,2055,2059,2048,2021
2052,2040,2016,2079,2059,2048,2048,2020
2054,2025,2014,2071,2048,2044,2037,2022
2041,2021,2016,2063,2033,2036,2024,2016
2031,2017,2021,2054,2020,2028,2025,2010
2030,2037,2053,2065,2030,2033,2027,2022
2045,2053,2086,2081,2041,2044,2049,2026
2046,2044,2086,2074,2047,2047,2053,2025
2056,2045,2081,2075,2050,2052,2057,2031
2055,2048,2076,2077,2050,2051,2042,2036
2048,2061,2081,2080,2041,2041,2051,2041
2047,2054,2083,2081,2034,2028,2049,2041
2037,2043,2068,2069,2033,2029,2064,2044
2037,2036,2049,2042,2019,2029,2042,2045
2019,2014,2031,2011,2014,2033,2036,2054
2031,2023,2046,2019,2035,2058,2048,2064
2049,2052,2081,2041,2049,2059,2047,2080
2062,2070,2089,2029,2052,2053,2045,2076
2061,2063,2084,2021,2048,2054,2054,2075
2047,2066,2081,2028,2031,2068,2055,2081
2047,2071,2082,2028,2043,2072,2047,2075
2041,2057,2068,2023,2046,2084,2038,2076
2044,2052,2066,2031,2053,2088,2059,2075
2059,2067,2071,2038,2068,2098,2063,2081
2062,2067,2071,2037,2082,2099,2065,2069
2066,2071,2067,2031,2062,2091,2062,2063
2057,2060,2054,2010,2024,2051,2060,2057
2045,2054,2045,2003,1988,2029,2049,2046
2044,2047,2043,2004,1966,2018,2044,2030
2049,2036,2040,1997,1953,2013,2061,2037
2052,2034,2039,2017,1947,1987,2066,2033
2050,2034,2046,2031,1966,1983,2062,2030
2048,2045,2052,2043,2079,2025,2072,2020
2037,2047,2052,2053,2136,2054,2074,2022
2041,2041,2056,2070,2138,2068,2066,2018
2046,2033,2064,2080,2103,2072,2058,2011
2035,2032,2053,2076,2087,2064,2045,2019
2042,2030,2053,2073,2072,2057,2051,2030
2050,2028,2047,2079,2077,2049,2041,2025
2050,2030,2048,2091,2097,2029,2065,2037
2063,2035,2050,2109,2116,2021,2072,2052
2077,2046,2055,2101,2109,2014,2065,2048
2065,2047,2040,2070,2042,2000,2043,2043
2056,2044,2008,2043,2004,1989,2041,2038
2051,2030,2001,2037,2001,2004,2038,2031
2047,2035,2016,2053,2057,2031,2047,2040
2058,2044,2040,2066,2093,2059,2062,2045
2058,2050,2045,2068,2076,2073,2077,2068
2062,2050,2052,2074,2127,2091,2076,2072
2057,2050,2047,2071,2172,2101,2069,2067
2040,2036,2032,2048,2158,2081,2069,2065
2029,2025,2025,2032,2108,2057,2075,2071
2028,2035,2037,2028,2038,2044,2075,2078
2033,2062,2053,2027,1913,2044,2055,2081
2052,2056,2035,2018,1925,2068,2054,2080
2057,2044,2015,2023,1989,2085,2068,2074
2065,2049,2020,2030,1990,2088,2060,2062
2056,2047,2016,2024,1947,2048,2041,2045
2044,2041,2030,2023,1902,2026,2041,2032
2027,2038,2026,2019,1857,1995,2033,2034
2024,2045,2033,2017,1932,1980,2037,2044
2047,2060,2049,2024,2053,1983,2058,2055
2060,2064,2053,2031,2065,1995,2063,2060
2056,2061,2053,2026,2044,2013,2058,2053
2058,2054,2038,2002,2004,2038,2078,2051
2054,2045,2020,1993,2040,2045,2077,2048
2054,2044,2028,2004,2058,2040,2070,2037
2056,2051,2038,2006,2055,2027,2058,2025
2044,2050,2035,2032,2080,2036,2063,2022
2044,2046,2051,2071,2109,2068,2062,2028
2044,2042,2054,2083,2100,2067,2071,2028
2046,2025,2044,2073,2106,2071,2065,2039
2058,2023,2056,2069,2073,2072,2083,2052
2077,2045,2073,2050,1930,2062,2081,2039
2080,2060,2087,2044,1913,2044,2064,2040
2078,2051,2077,2038,1991,2013,2041,2023
2050,2023,2056,2029,2024,1999,2038,2017
2037,2015,2041,2012,2048,1995,2033,2002
2013,2014,2039,2000,2053,2001,2031,1998
1983,2017,2045,2014,2073,2026,2031,2014
2009,2041,2072,2057,2130,2049,2050,2028
2028,2048,2066,2065,2132,2047,2052,2036
2029,2045,2065,2058,2108,2041,2042,2053
2036,2047,2067,2052,2076,2038,2049,2068
2044,2052,2058,2043,2067,2036,2042,2062
2050,2048,2054,2045,2061,2039,2052,2059
2050,2054,2063,2052,2056,2041,2052,2067
2046,2054,2058,2047,2040,2040,2047,2063
2043,2054,2056,2053,2051,2051,2046,2059
2051,2057,2064,2059,2053,2044,2051,2062
2058,2055,2052,2048,2043,2033,2057,2060
2067,2052,2046,2044,2071,2049,2036,2056
2066,2045,2030,2034,2069,2048,2040,2045
2052,2033,2028,2028,2056,2039,2044,2031
2051,2037,2041,2040,2045,2036,2038,2017
2036,2041,2053,2050,2064,2037,2043,2014
2038,2039,2057,2064,2070,2043,2049,2016
2037,2038,2061,2063,2069,2052,2054,2015
2042,2040,2060,2073,2078,2053,2058,2026
2037,2046,2058,2076,2079,2053,2055,2028
2038,2043,2053,2072,2075,2053,2057,2031
2040,2034,2043,2067,2068,2044,2048,2027
2036,2028,2027,2061,2062,2039,2058,2026
2042,2027,2019,2062,2056,2039,2042,2015
2035,2028,2022,2063,2055,2037,2034,2003
2042,2038,2029,2070,2061,2041,2036,2001
2042,2038,2026,2064,2066,2040,2037,2002
2035,2030,2008,2057,2057,2040,2033,1999
2031,2025,2007,2049,2063,2040,2038,2016
2037,2036,2007,2035,2057,2037,2049,2033
2035,2033,1995,2027,2052,2033,2048,2031
2034,2029,1990,2009,2046,2037,2041,2030
2035,2022,1973,1994,2045,2045,2041,2036
2030,2012,1975,1996,2042,2052,2038,2041
2032,2016,2002,2009,2050,2054,2045,2045
2034,2036,2033,2028,2076,2069,2045,2044
2049,2046,2051,2032,2089,2071,2065,2068
2040,2044,2051,2029,2080,2074,2056,2071
2045,2036,2054,2021,2112,2077,2046,2070
2042,2035,2068,2029,2122,2078,2053,2073
2046,2044,2074,2027,2095,2062,2046,2074
2043,2035,2061,2015,2060,2048,2047,2082
2049,2044,2072,2023,2086,2053,2062,2084
2063,2072,2102,2032,2104,2055,2054,2074
2054,2064,2093,2027,2073,2056,2052,2073
2056,2060,2084,2029,2022,2056,2060,2068
2062,2071,2084,2029,2007,2054,2053,2061
2062,2077,2091,2035,2005,2057,2060,2057
2060,2096,2100,2038,2016,2059,2056,2049
2058,2089,2094,2024,2016,2057,2045,2042
2057,2073,2079,2009,1965,2046,2062,2038
2051,2071,2075,2040,2057,2046,2047,2041
2055,2072,2075,2053,2058,2033,2049,2036
2055,2070,2077,2042,2033,2038,2045,2036
2057,2075,2088,2044,2030,2060,2051,2036
2055,2078,2095,2043,2000,2091,2049,2043
2055,2073,2089,2032,1997,2110,2045,2034
2054,2060,2078,2021,1996,2106,2031,2024
2051,2054,2059,2018,1998,2094,2050,2039
2057,2062,2062,2006,1995,2043,2047,2040
2054,2055,2057,2030,2044,1999,2040,2058
2054,2052,2049,2036,2075,1988,2012,2049
2036,2045,2036,2031,2046,2020,2014,2030
2039,2038,2040,2039,2041,2062,2043,2040
2043,2052,2061,2070,2067,2074,2050,2057
2049,2059,2072,2080,2082,2078,2050,2060
2048,2052,2062,2071,2075,2083,2072,2067
2050,2045,2051,2064,2091,2101,2077,2064
2048,2039,2067,2072,2090,2084,2045,2072
2050,2037,2056,2074,2081,2044,2047,2084
2057,2029,2051,2078,2061,2035,2055,2081
2052,2022,2051,2081,2034,2038,2041,2072
2049,2019,2042,2072,2018,2031,2038,2075
2046,2013,2044,2062,2038,2027,2026,2080
2026,2010,2052,2075,2060,2023,2019,2068
2026,2032,2063,2083,2064,2038,2038,2062
2036,2051,2066,2087,2061,2055,2039,2065
2038,2043,2052,2083,2044,2046,2037,2053
2046,2033,2029,2068,2028,2045,2026,2045
2039,2032,2032,2068,2025,2037,2022,2029
2035,2037,2034,2065,2032,2045,2041,2026
2040,2046,2035,2065,2040,2045,2036,2028
2055,2044,2032,2061,2042,2029,2031,2023
2047,2034,2007,2041,2032,2013,2030,2017
2036,2021,1985,2028,2028,2002,2038,2024
2030,2024,1976,2013,2017,2012,2033,2034
2039,2042,1999,2019,2045,2025,2051,2039
2054,2066,2021,2030,2077,2032,2061,2036
2069,2089,2047,2039,2073,2034,2045,2035
2063,2079,2038,2038,2063,2034,2033,2039
2050,2066,2029,2038,2072,2035,2038,2034
2056,2066,2030,2042,2076,2038,2050,2040
2068,2075,2046,2050,2088,2039,2058,2038
2058,2064,2055,2047,2082,2036,2052,2030
2042,2054,2054,2046,2077,2043,2047,2029
2044,2055,2055,2031,2075,2050,2035,2038
2049,2059,2052,2007,2069,2046,2056,2044
2060,2059,2050,2008,2063,2051,2052,2043
2041,2050,2064,1999,2063,2060,2053,2033
2036,2057,2073,2001,2098,2070,2061,2040
2032,2053,2072,2009,2142,2081,2066,2058
2034,2059,2082,2025,2223,2100,2073,2082
2047,2074,2096,2047,2223,2102,2087,2087
2057,2084,2109,2062,2210,2085,2072,2081
2054,2075,2100,2060,2195,2079,2070,2089
2057,2066,2088,2052,2145,2077,2067,2092
2054,2051,2071,2019,1988,2037,2052,2078
2041,2040,2053,1952,1696,1957,2035,2064
2032,2049,2046,1940,1705,1951,2026,2059
2035,2054,2056,1977,1801,1992,2042,2057
2047,2054,2059,1988,1846,2006,2029,2056
2050,2052,2049,1986,1849,2024,2026,2052
2039,2043,2048,1990,1870,2025,2010,2025
2028,2047,2049,1995,1898,1995,2016,2012
2024,2045,2050,2004,1968,1993,2028,2030
2029,2050,2054,2044,2070,2007,2048,2041
2045,2057,2058,2064,2129,2044,2071,2052
2053,2064,2062,2069,2149,2082,2074,2059
2070,2066,2057,2058,2124,2088,2071,2057
2065,2059,2045,2046,2084,2074,2059,2045
2058,2046,2035,2029,2051,2056,2058,2036
2054,2040,2029,2016,2022,2051,2043,2032
2049,2036,2024,2022,2021,2049,2056,2028
2035,2029,2018,2034,2047,2066,2050,2018
2034,2036,2027,2047,2064,2083,2073,2010
2034,2038,2030,2050,2042,2077,2068,2012
2031,2042,2032,2037,2023,2062,2064,2020
2040,2043,2020,2045,2072,2088,2074,2036
2047,2051,2019,2055,2090,2086,2074,2046
2050,2056,2023,2065,2085,2042,2052,2061
2047,2053,2025,2071,2068,2014,2045,2051
2053,2056,2036,2075,2054,2018,2036,2060
2052,2055,2055,2079,2063,2034,2053,2068
2049,2054,2057,2088,2085,2061,2067,2074
2051,2044,2052,2091,2115,2074,2059,2074
2041,2032,2031,2076,2100,2066,2043,2075
2041,2009,2027,2062,2074,2052,2033,2079
2037,2007,2037,2048,2029,2038,2027,2062
2023,2015,2056,2044,2000,2032,2000,2044
2004,2017,2054,2041,1995,2052,2012,2033
1989,2030,2064,2049,2007,2074,2025,2036
1984,2039,2057,2033,1991,2079,2016,2044
1999,2050,2050,2015,1971,2074,2022,2042
2035,2056,2045,2007,1966,2046,2020,2057
2047,2069,2065,2031,2023,2002,2028,2054
2048,2074,2071,2048,2074,1999,2032,2056
2043,2069,2055,2044,2086,2022,2034,2048
2040,2052,2028,2035,2097,2058,2049,2045
2039,2056,2032,2036,2091,2076,2063,2044
2049,2072,2047,2040,2102,2081,2055,2044
2054,2075,2050,2038,2095,2073,2055,2049
2057,2076,2059,2024,2072,2077,2054,2055
2059,2085,2059,2020,1968,2068,2061,2052
2062,2085,2061,2014,1970,2063,2056,2049
2054,2076,2054,2019,2040,2038,2036,2045
2045,2062,2051,2022,2046,2008,2030,2036
2045,2060,2054,2035,2023,2004,2037,2042
2047,2067,2051,2026,1922,1996,2036,2038
2037,2056,2044,2012,1913,1997,2024,2038
2031,2053,2046,2028,2070,2036,2035,2036
2036,2053,2047,2054,2160,2056,2061,2045
2046,2054,2054,2064,2174,2055,2043,2042
2046,2050,2051,2059,2159,2051,2037,2045
2042,2052,2056,2052,2122,2050,2042,2050
2044,2055,2066,2059,2114,2067,2050,2049
2039,2065,2064,2055,2095,2070,2059,2056
2042,2058,2056,2048,2082,2058,2059,2058
2034,2043,2048,2044,2067,2047,2045,2069
2025,2036,2034,2032,2056,2043,2048,2066
2022,2037,2030,2030,2060,2050,2045,2066
2022,2036,2033,2033,2064,2049,2050,2064
2021,2028,2028,2029,2062,2046,2041,2065
2028,2037,2026,2034,2071,2047,2044,2067
2043,2040,2034,2045,2071,2050,2043,2073
2052,2048,2028,2049,2068,2045,2054,2082
2057,2048,2029,2047,2060,2043,2038,2072
2055,2052,2036,2054,2059,2048,2035,2056
2049,2057,2042,2060,2062,2051,2049,2047
2044,2060,2044,2058,2070,2048,2025,2044
2041,2044,2032,2054,2062,2055,2044,2041
2034,2038,2030,2050,2054,2050,2051,2022
2033,2041,2028,2048,2053,2052,2038,2017
2039,2040,2033,2055,2055,2056,2044,2020
2036,2037,2047,2051,2055,2055,2063,2018
2030,2034,2049,2051,2054,2046,2044,2015
2035,2040,2042,2056,2068,2050,2053,2027
2037,2041,2036,2061,2075,2045,2049,2025
2032,2035,2031,2067,2070,2045,2040,2028
2027,2023,2023,2066,2059,2046,2037,2029
2039,2022,2042,2069,2058,2048,2048,2032
2043,2044,2065,2080,2054,2050,2059,2039
2039,2046,2068,2080,2046,2048,2044,2037
2043,2051,2067,2086,2052,2052,2061,2040
2040,2042,2053,2081,2062,2050,2055,2034
2037,2046,2051,2072,2054,2048,2059,2046
2050,2048,2046,2066,2037,2055,2052,2051
2056,2042,2047,2053,2047,2055,2033,2059
2052,2040,2044,2053,2059,2061,2051,2052
2046,2040,2053,2049,2050,2059,2059,2058
2038,2046,2047,2031,2062,2060,2045,2071
2040,2037,2032,2018,2062,2085,2049,2078
2037,2025,2023,2009,2040,2088,2034,2070
2039,2047,2034,2012,2024,2082,2022,2066
2035,2060,2056,2016,2018,2074,2031,2076
2055,2075,2060,2020,2035,2053,2034,2087
2056,2070,2043,2027,2074,2016,2036,2096
2048,2062,2029,2050,2172,2039,2050,2097
2056,2065,2027,2056,2167,2060,2061,2088
2058,2057,2012,2019,2044,2037,2042,2073
2055,2050,2010,2012,1983,2025,2029,2056
2042,2043,2012,2013,1993,2026,2030,2051
2037,2049,2031,2034,2032,2030,2045,2057
2029,2047,2031,2030,2040,2033,2066,2048
2028,2044,2029,2030,2043,2040,2043,2047
2039,2052,2036,2038,2042,2050,2050,2055
2052,2064,2048,2050,2055,2055,2047,2061
2068,2071,2064,2051,2056,2051,2055,2049
2060,2066,2085,2064,2049,2047,2046,2038
2053,2059,2094,2078,2049,2051,2055,2040
2050,2055,2089,2090,2064,2052,2067,2033
2048,2053,2084,2109,2068,2056,2054,2028
2044,2036,2065,2103,2060,2047,2026,2031
2046,2034,2057,2103,2059,2047,2035,2039
2048,2048,2064,2116,2060,2051,2036,2040
2048,2048,2067,2112,2061,2049,2026,2038
2039,2052,2071,2121,2073,2058,2031,2038
2041,2072,2065,2126,2073,2056,2029,2040
2050,2077,2039,2113,2072,2053,2040,2048
2051,2065,2020,2091,2063,2050,2056,2052
2044,2049,2000,2067,2056,2042,2049,2050
2042,2041,1997,2044,2051,2048,2045,2049
2039,2035,1994,2038,2055,2055,2042,2061
2049,2035,1984,2029,2043,2041,2023,2068
2047,2032,1969,1997,2002,2009,2030,2071
2044,2020,1959,1968,1961,1983,2016,2067
2030,2016,1954,1959,1939,1975,2013,2060
2021,2021,1968,1963,1952,1997,2019,2063
2023,2031,1976,1969,2021,2042,2030,2055
2036,2036,1994,2011,2143,2088,2052,2075
2047,2038,2004,2050,2207,2114,2067,2088
2060,2046,2022,2062,2235,2121,2077,2084
2062,2056,2052,2066,2215,2110,2065,2077
2057,2062,2083,2061,2161,2072,2070,2061
2059,2068,2097,2063,2088,2044,2070,2059
2035,2062,2095,2030,1911,1993,2045,2046
2036,2065,2119,2014,1977,2013,2058,2043
2036,2075,2128,2042,2057,2040,2072,2040
2041,2077,2120,2048,2041,2043,2068,2033
2037,2065,2111,2054,2011,2074,2076,2036
2048,2075,2103,2036,1935,2085,2073,2042
2048,2065,2087,2011,1890,2079,2070,2043
2046,2057,2076,2025,1930,2088,2077,2039
2046,2056,2065,2047,1937,2059,2069,2042
2048,2051,2062,2061,1932,2027,2068,2037
2044,2040,2053,2066,2015,2066,2076,2030
2045,2052,2054,2069,2031,2071,2076,2040
2046,2069,2062,2061,2029,2053,2047,2037
2056,2066,2060,2060,2099,2051,2062,2042
2049,2055,2054,2038,2095,2038,2061,2040
2051,2062,2046,1998,2002,2023,2066,2040
2053,2059,2043,1995,2050,2036,2072,2043
2058,2061,2046,2014,2092,2052,2068,2049
2046,2055,2045,2034,2094,2065,2078,2049
2053,2050,2047,2049,2091,2070,2083,2070
2066,2053,2052,2050,2072,2044,2079,2079
2068,2053,2058,2056,2059,2029,2062,2074
2056,2054,2061,2055,2061,2036,2070,2064
2045,2053,2053,2047,2058,2045,2071,2071
2038,2039,2042,2043,2051,2047,2068,2063
2031,2041,2042,2043,2041,2036,2067,2064
2029,2043,2039,2038,2038,2030,2062,2069
2048,2053,2043,2045,2039,2034,2066,2075
2056,2059,2052,2050,2043,2044,2072,2069
2040,2047,2043,2057,2043,2032,2073,2063
2026,2043,2039,2048,2038,2033,2071,2053
2033,2042,2038,2055,2018,2033,2059,2049
2038,2038,2039,2055,2014,2030,2060,2050
2045,2036,2035,2047,2011,2031,2049,2057
2053,2034,2024,2034,2031,2043,2053,2040
2045,2032,2024,2029,2049,2069,2049,2027
2042,2030,2026,2024,2006,2110,2042,2007
2027,2026,2028,2004,1898,2123,2028,1998
2024,2015,2014,1977,1812,2103,2025,1995
2024,2018,2005,1960,1761,2059,2000,1995
2022,2013,1996,1963,1805,1954,2014,2026
2030,2022,2009,2016,1952,1878,2034,2051
2046,2036,2029,2069,2119,1925,2061,2065
2066,2058,2044,2088,2210,2018,2074,2070
2084,2076,2059,2099,2247,2092,2084,2060
2077,2081,2063,2092,2220,2112,2079,2064
2078,2069,2049,2074,2156,2106,2065,2060
2072,2054,2031,2057,2114,2100,2078,2063
2070,2061,2019,2038,2079,2078,2080,2064
2063,2037,2005,2027,2062,2037,2040,2045
2058,2036,2001,2041,2070,2032,2042,2052
2058,2045,2021,2047,2087,2040,2044,2063
2061,2045,2020,2054,2100,2053,2042,2067
2060,2049,2011,2050,2127,2046,2039,2065
2056,2041,2022,2051,2152,2044,2027,2071
2040,2040,2026,2056,2146,2039,2037,2068
2024,2052,2046,2058,2106,2041,2030,2078
2031,2063,2054,2063,2097,2036,2026,2076
2037,2054,2052,2055,2069,2024,2032,2079
2042,2056,2059,2039,1964,2008,2032,2083
2060,2060,2070,2046,1978,2018,2044,2082
2051,2058,2076,2030,1875,2002,2050,2077
2051,2051,2067,2018,1812,1995,2059,2073
2055,2049,2049,2016,1898,2017,2049,2069
2054,2041,2053,2019,1964,2024,2049,2068
2051,2053,2066,2030,2007,2040,2060,2059
2061,2067,2078,2048,2088,2065,2064,2057
2062,2064,2074,2073,2167,2080,2066,2036
2052,2054,2058,2069,2128,2074,2063,2027
2043,2047,2050,2059,2085,2062,2046,2018
2034,2036,2036,2036,2076,2045,2041,2020
2034,2034,2029,2045,2102,2065,2051,2015
2053,2046,2034,2052,2102,2072,2046,2036
2053,2060,2038,2049,2087,2063,2071,2024
2048,2046,2025,2041,2074,2064,2076,2035
2038,2044,2030,2039,2055,2064,2070,2035
2033,2050,2038,2047,2056,2070,2075,2041
2036,2054,2047,2056,2065,2068,2082,2044
2046,2056,2052,2060,2072,2066,2052,2043
2047,2053,2062,2069,2073,2062,2043,2049
2049,2055,2082,2082,2084,2065,2057,2058
2046,2061,2081,2083,2080,2051,2065,2053
2046,2051,2076,2077,2074,2053,2059,2058
2043,2048,2068,2074,2070,2054,2061,2064
2041,2053,2062,2079,2072,2059,2067,2062
2047,2048,2080,2088,2070,2053,2081,2066
2046,2040,2096,2091,2070,2054,2063,2075
2045,2046,2104,2094,2068,2053,2045,2081
2052,2044,2079,2078,2058,2038,2044,2074
2033,2033,2045,2058,2050,2037,2040,2062
2033,2031,2024,2052,2054,2044,2050,2075
2042,2032,2005,2050,2047,2047,2055,2078
2048,2022,1980,2033,2026,2052,2059,2064
2036,2026,1972,2022,2010,2054,2067,2063
2038,2028,1964,2019,2007,2058,2067,2058
2035,2028,1948,2020,2000,2060,2071,2054
2029,2029,1939,2008,1994,2072,2061,2035
2024,2027,1943,2010,1998,2067,2054,2031
2038,2021,1958,2029,2011,2059,2050,2025
2042,2018,1961,2034,2048,2054,2053,2015
2031,2020,1975,2052,2129,2068,2035,2009
2026,2017,1982,2064,2196,2081,2045,2008
2022,2012,1963,2042,2175,2076,2045,2019
2019,2004,1974,2031,2110,2047,2047,2016
2031,2028,2029,2044,2052,2049,2055,2028
2048,2062,2082,2069,1993,2060,2062,2027
2056,2064,2079,2075,2021,2074,2072,2030
2062,2068,2084,2070,2033,2069,2074,2041
2070,2080,2078,2061,2016,2055,2058,2036
2055,2057,2057,2038,2009,2051,2045,2023
2049,2055,2062,2021,2001,2038,2039,2025
2048,2056,2078,2027,2030,2037,2032,2039
2057,2071,2099,2028,2038,2039,2034,2046
2055,2073,2096,2010,2074,2044,2047,2056
2048,2071,2092,2020,2114,2061,2047,2069
2053,2077,2089,2025,2098,2054,2046,2066
2056,2077,2080,2025,2044,2028,2043,2058
2046,2065,2061,2004,1981,1997,2034,2063
2042,2056,2048,1991,1934,1973,2027,2077
2044,2047,2048,1992,1921,1978,2033,2079
2045,2064,2062,2024,1941,2012,2040,2087
2063,2088,2082,2067,1992,2041,2058,2086
2063,2086,2085,2072,2072,2086,2050,2077
2058,2081,2076,2082,2165,2129,2053,2080
2062,2071,2077,2091,2217,2135,2047,2062
2047,2066,2066,2090,2192,2113,2035,2056
2048,2069,2069,2093,2153,2088,2035,2062
2062,2074,2075,2107,2162,2031,2048,2070
2057,2070,2081,2112,2137,2019,2040,2052
2052,2064,2064,2094,2056,2043,2041,2047
2055,2060,2059,2086,2009,2050,2046,2038
2060,2055,2043,2064,1987,2031,2040,2029
2053,2047,2030,2051,1977,2027,2057,2037
2053,2041,2018,2065,1987,2037,2040,2035
2048,2047,2022,2080,1992,2042,2041,2024
2048,2045,2015,2077,2012,2066,2047,2018
2041,2037,2006,2069,2023,2076,2053,2016
2034,2029,1996,2060,2048,2083,2039,2013
2030,2019,1992,2052,2064,2070,2045,2011
2034,2014,1986,2044,2065,2030,2034,2024
2049,2027,1993,2038,2069,2013,2051,2029
2039,2033,1992,2022,2076,2017,2042,2029
2041,2027,2009,2004,2061,2029,2045,2033
2037,2038,2034,1988,1998,2036,2041,2042
2052,2046,2045,2002,2026,2046,2053,2047
2049,2037,2042,2011,2055,2035,2050,2059
2047,2039,2024,2017,2050,2029,2042,2069
2051,2032,2023,2020,2030,2034,2057,2069
2058,2041,2034,2013,1935,2039,2060,2072
2061,2049,2051,2034,1948,2043,2061,2077
2057,2040,2045,2048,1996,2042,2052,2084
2053,2035,2039,2044,2017,2035,2058,2087
2052,2039,2036,2033,2057,2036,2064,2082
2042,2021,2022,2010,2045,2031,2052,2075
2035,2018,2019,2006,2051,2037,2043,2070
2038,2053,2055,2047,2080,2058,2050,2079
2050,2077,2091,2061,2073,2062,2060,2074
2055,2067,2080,2049,2067,2060,2046,2074
2052,2062,2082,2052,2056,2056,2044,2063
2054,2080,2102,2056,2055,2064,2059,2062
2063,2082,2103,2052,2017,2058,2058,2058
2062,2073,2086,2053,2016,2067,2064,2052
2059,2068,2083,2055,2035,2063,2042,2042
2048,2062,2066,2051,2030,2052,2040,2027
2047,2055,2056,2052,2018,2040,2025,2038
2052,2053,2051,2047,2003,2027,2041,2038
2056,2053,2061,2047,2002,2021,2030,2028
2057,2056,2065,2050,2015,2022,2036,2033
2054,2052,2057,2047,2028,2039,2041,2031
2051,2041,2047,2036,2044,2054,2033,2023
2037,2025,2035,2030,2047,2057,2026,2011
2022,2031,2045,2042,2049,2066,2028,2001
2030,2047,2059,2042,2007,2052,2015,2011
2029,2051,2075,2045,1960,2015,2020,2017
2028,2068,2088,2038,1939,2014,2002,2023
2046,2064,2080,2047,1948,2031,2008,2034
2057,2065,2066,2055,1982,2000,2022,2053
2056,2057,2068,2090,2072,2006,2031,2062
2064,2068,2085,2131,2157,2057,2066,2068
2066,2070,2086,2129,2141,2085,2049,2070
2059,2068,2072,2113,2107,2096,2045,2068
2062,2054,2054,2112,2068,2080,2056,2066
2059,2059,2039,2097,2065,2070,2053,2074
2056,2051,2026,2085,2070,2074,2042,2075
2056,2047,2007,2067,2066,2072,2043,2075
2056,2047,1994,2056,2061,2064,2049,2067
2049,2031,1975,2035,2082,2053,2034,2066
2040,2027,1963,2020,2082,2042,2028,2062
2046,2031,1965,2005,2066,2040,2051,2056
2038,2030,1996,2007,2066,2037,2044,2046
2035,2048,2023,2009,2058,2029,2037,2053
2040,2050,2042,2015,2047,2037,2035,2050
2044,2050,2061,2016,2040,2048,2050,2045
2040,2049,2073,2018,2036,2051,2046,2043
2046,2052,2068,2026,2042,2054,2057,2040
2048,2052,2076,2041,2050,2039,2054,2041
2053,2063,2084,2058,2051,2006,2038,2042
2063,2066,2091,2070,2055,2006,2037,2042
2071,2070,2084,2077,2045,2008,2042,2023
2053,2061,2060,2073,2050,2029,2044,2027
2052,2056,2040,2058,2060,2045,2060,2025
2051,2052,2031,2058,2053,2047,2052,2021
2036,2036,2026,2043,2037,2056,2052,2015
2034,2037,2027,2032,2010,2062,2056,2021
2041,2048,2041,2024,2008,2066,2053,2022
2051,2052,2046,2015,2000,2063,2064,2027
2057,2049,2055,2020,2010,2030,2051,2038
2056,2052,2054,2025,2033,1996,2055,2050
2062,2053,2047,2046,2084,2001,2059,2062
2071,2056,2040,2064,2096,2028,2066,2066
2066,2061,2055,2077,2106,2058,2078,2068
2076,2067,2059,2079,2099,2066,2080,2075
2078,2065,2057,2081,2084,2062,2074,2080
2081,2064,2052,2071,2064,2047,2072,2083
2081,2049,2041,2058,2051,2033,2038,2075
2053,2027,2022,2033,2033,2022,2025,2064
2038,2018,2028,2030,2033,2019,2038,2060
2006,2032,2042,2026,2041,2028,2027,2069
2004,2039,2044,2021,2044,2041,2031,2076
2032,2049,2036,2025,2052,2058,2042,2080
2056,2062,2038,2038,2056,2058,2041,2073
2046,2046,2031,2049,2060,2052,2057,2066
2050,2046,2037,2064,2061,2057,2051,2057
2049,2045,2048,2068,2064,2058,2058,2054
2047,2044,2052,2067,2067,2057,2063,2054
2049,2046,2064,2060,2072,2053,2043,2039
2045,2040,2062,2057,2071,2065,2035,2030
2039,2033,2056,2052,2058,2077,2047,2028
2045,2031,2056,2045,2038,2080,2063,2035
2045,2035,2046,2040,2014,2072,2042,2040
2057,2041,2034,2023,1995,2048,2054,2025
2060,2039,2025,2035,1999,2012,2026,2026
2050,2036,2027,2053,2035,2010,2030,2020
2045,2034,2032,2063,2091,2034,2038,2021
2034,2041,2035,2061,2114,2056,2039,2019
2031,2041,2028,2049,2101,2070,2059,2020
2040,2045,2009,2046,2084,2069,2060,2025
2043,2040,1999,2046,2051,2060,2033,2017
2045,2037,1986,2045,2046,2049,2052,2024
2051,2045,1990,2040,2050,2051,2052,2029
2053,2051,1988,2049,2054,2056,2058,2034
2047,2047,1997,2061,2057,2059,2059,2039
2043,2039,1999,2065,2052,2055,2068,2044
2046,2032,2000,2068,2050,2053,2061,2040
2042,2030,2028,2077,2059,2053,2070,2042
2040,2032,2052,2076,2054,2053,2046,2041
2030,2023,2046,2049,2037,2037,2037,2052
2036,2026,2049,2024,2023,2035,2036,2062
2030,2026,2066,2025,2034,2039,2055,2057
2035,2045,2093,2029,2040,2044,2052,2065
2045,2070,2122,2050,2050,2049,2065,2065
2054,2074,2118,2044,2057,2056,2064,2074
2061,2078,2112,2053,2062,2062,2061,2080
2067,2078,2096,2053,2060,2050,2052,2077
2062,2082,2090,2045,2059,2053,2047,2065
2065,2090,2085,2044,2060,2054,2060,2062
2065,2079,2080,2039,2055,2053,2052,2058
2069,2077,2082,2042,2061,2055,2054,2057
2068,2066,2077,2035,2061,2039,2049,2042
2058,2057,2085,2040,2060,2035,2050,2037
2053,2063,2106,2050,2057,2048,2049,2032
2052,2061,2103,2053,2062,2051,2051,2032
2058,2060,2091,2053,2068,2057,2054,2032
2051,2054,2078,2053,2075,2058,2041,2030
2046,2043,2057,2055,2068,2050,2050,2028
2047,2036,2043,2046,2052,2053,2055,2023
2042,2037,2038,2044,2033,2041,2044,2034
2048,2039,2034,2033,2005,2028,2044,2033
2044,2031,2036,2035,2014,2022,2047,2027
2045,2040,2042,2040,2043,2034,2052,2035
2051,2049,2047,2052,2039,2029,2051,2033
2053,2048,2045,2052,2046,2031,2057,2039
2058,2047,2045,2045,2039,2038,2054,2041
2058,2038,2037,2040,2019,2040,2055,2038
2053,2036,2026,2027,2003,2034,2051,2040
2052,2033,2042,2030,2018,2036,2059,2058
2058,2035,2058,2054,2066,2057,2061,2075
2058,2044,2053,2051,2091,2069,2069,2079
2064,2032,2042,2061,2067,2067,2061,2081
2061,2031,2063,2066,2050,2074,2060,2080
2052,2029,2076,2074,2042,2069,2051,2072
2036,2024,2076,2070,2027,2060,2032,2072
2031,2017,2072,2064,2029,2063,2042,2061
2029,2018,2072,2068,2052,2052,2039,2056
2024,2019,2064,2067,2059,2012,2038,2065
2032,2029,2057,2066,2058,2010,2049,2067
2041,2038,2056,2070,2058,2025,2058,2057
2037,2035,2050,2058,2046,2029,2043,2037
2024,2020,2045,2048,2040,2033,2036,2030
2024,2018,2030,2037,2046,2033,2038,2030
2024,2027,2017,2032,2060,2039,2040,2037
2039,2038,2020,2031,2061,2044,2052,2044
2051,2052,2032,2038,2060,2048,2050,2039
2043,2045,2036,2032,2061,2041,2057,2033
2041,2044,2036,2038,2068,2049,2059,2029
2045,2045,2029,2040,2064,2044,2045,2019
2043,2046,2013,2031,2061,2043,2038,2025
2026,2034,2005,2030,2057,2039,2048,2021
2025,2035,2013,2033,2063,2050,2059,2012
2023,2041,2028,2038,2061,2051,2050,2017
2028,2058,2042,2035,2062,2051,2042,2012
2032,2064,2038,2030,2054,2050,2046,2012
2034,2062,2046,2030,2050,2054,2051,2030
2036,2069,2053,2036,2054,2057,2053,2026
2043,2064,2055,2037,2056,2054,2030,2039
2047,2066,2050,2045,2061,2051,2047,2041
2053,2063,2054,2053,2062,2053,2052,2047
2043,2056,2052,2059,2062,2047,2055,2053
2044,2058,2054,2066,2062,2049,2052,2056
2053,2061,2063,2068,2064,2054,2043,2062
2051,2066,2068,2055,2058,2052,2068,2068
2055,2069,2071,2047,2060,2052,2058,2077
2066,2072,2077,2054,2055,2046,2045,2075
2063,2076,2092,2054,2052,2048,2021,2072
2050,2071,2091,2048,2044,2042,2027,2076
2044,2064,2094,2039,2031,2038,2023,2074
2038,2061,2092,2034,2032,2033,2027,2078
2035,2052,2095,2030,2024,2033,2015,2072
2025,2044,2085,2022,2020,2032,2019,2072
2036,2051,2089,2035,2038,2045,2027,2073
2040,2061,2099,2047,2060,2062,2033,2075
2047,2059,2101,2057,2069,2067,2032,2070
2049,2065,2099,2063,2064,2067,2056,2071
2048,2061,2085,2053,2059,2069,2056,2068
2053,2053,2079,2047,2054,2070,2053,2068
2058,2056,2064,2050,2060,2071,2048,2055
2054,2052,2057,2041,2049,2062,2040,2036
2044,2053,2061,2042,2054,2057,2035,2029
2042,2052,2066,2050,2052,2060,2044,2033
2040,2054,2067,2058,2051,2050,2050,2036
2046,2053,2070,2057,2049,2052,2031,2038
2039,2050,2055,2053,2056,2051,2050,2037
2042,2047,2050,2055,2053,2057,2028,2027
2036,2047,2044,2050,2041,2049,2034,2023
2035,2038,2037,2048,2042,2046,1992,2019
2029,2038,2030,2049,2050,2047,2030,2026
2032,2042,2038,2052,2044,2044,2022,2028
2034,2045,2035,2051,2047,2051,2028,2028
2040,2041,2041,2047,2048,2051,2025,2030
2045,2041,2037,2047,2044,2047,2039,2034
2040,2050,2047,2040,2034,2045,2034,2037
2031,2047,2050,2031,2030,2032,2028,2042
2032,2043,2042,2027,2008,2022,2043,2050
2032,2045,2038,2008,1992,2016,2031,2050
2035,2045,2028,2010,1987,2015,2015,2054
2034,2044,2024,2009,1989,2016,2029,2058
2029,2039,2026,2023,2017,2043,2038,2065
2034,2044,2031,2036,2055,2066,2041,2074
2042,2044,2020,2057,2096,2077,2053,2084
2046,2046,2014,2056,2108,2087,2038,2083
2034,2037,2004,2048,2100,2083,2043,2075
2030,2028,2007,2043,2076,2070,2062,2073
2036,2037,2015,2047,2063,2064,2058,2074
2043,2038,2005,2051,2064,2061,2054,2068
2039,2038,2010,2059,2057,2064,2058,2059
2041,2037,2020,2058,2057,2065,2029,2059
2042,2037,2021,2061,2064,2067,2017,2053
2046,2038,2023,2062,2057,2064,2046,2046
2051,2041,2024,2065,2062,2062,2044,2038
2057,2037,2034,2058,2058,2064,2044,2031
2053,2042,2049,2066,2062,2066,2028,2025
2051,2040,2054,2061,2057,2058,2019,2023
2045,2039,2062,2060,2058,2045,2018,2019
2038,2038,2070,2063,2051,2030,2016,2015
2039,2036,2070,2061,2042,2031,2026,2023
2036,2041,2072,2053,2041,2033,2034,2026
2045,2044,2053,2038,2031,2031,2030,2024
2036,2041,2048,2033,2034,2036,2027,2021
2041,2048,2078,2038,2043,2042,2037,2033
2049,2066,2105,2042,2047,2043,2036,2031
2054,2086,2121,2043,2054,2052,2046,2040
2058,2088,2118,2044,2056,2053,2042,2042
2058,2072,2099,2043,2058,2055,2031,2042
2056,2066,2082,2035,2055,2052,2043,2049
2051,2061,2066,2032,2050,2049,2035,2054
2056,2059,2062,2021,2045,2051,2023,2054
2047,2055,2056,2026,2054,2048,2038,2058
2046,2053,2059,2034,2053,2053,2039,2063
2046,2057,2059,2034,2053,2057,2056,2067
2050,2054,2052,2045,2056,2053,2032,2064
2046,2053,2051,2038,2056,2045,2037,2065
2042,2052,2054,2038,2034,2039,2037,2071
2040,2049,2059,2037,2025,2033,2038,2065
2030,2038,2050,2026,2018,2026,2024,2066
2027,2035,2040,2027,2005,2024,2043,2070
2038,2045,2043,2028,2016,2041,2037,2065
2044,2044,2043,2033,2039,2052,2047,2072
2048,2052,2055,2049,2070,2062,2042,2069
2048,2047,2063,2047,2057,2057,2033,2056
2050,2048,2064,2049,2051,2068,2046,2045
2049,2051,2061,2050,2056,2082,2042,2034
2050,2053,2060,2045,2042,2088,2049,2022
2041,2055,2057,2045,2042,2083,2028,2010
2041,2051,2053,2051,2042,2061,2053,2022
2047,2050,2052,2058,2046,2024,2050,2035
2052,2055,2050,2064,2065,2017,2051,2043
2061,2047,2042,2061,2054,2022,2058,2040
2056,2054,2048,2057,2054,2028,2046,2032
2055,2047,2042,2054,2045,2032,2035,2022
2051,2036,2024,2049,2040,2026,2033,2020
2038,2024,2005,2042,2050,2039,2035,2016
2045,2024,2000,2043,2066,2057,2042,2026
2046,2021,1993,2046,2073,2059,2045,2024
2043,2014,1979,2040,2072,2056,2051,2022
2049,2020,1981,2037,2064,2068,2049,2031
2043,2019,1970,2038,2061,2065,2053,2030
2042,2012,1959,2035,2061,2068,2052,2034
2038,2006,1952,2026,2054,2059,2060,2047
2040,2010,1947,2027,2043,2056,2048,2042
2041,2015,1948,2024,2038,2037,2042,2039
2037,2009,1948,2014,2021,2034,2028,2040
2019,2008,1949,2004,2017,2023,2025,2051
2019,2006,1964,2011,2021,2024,2032,2065
2030,2030,2002,2029,2027,2022,2018,2068
2038,2060,2040,2047,2038,2033,2024,2079
2042,2057,2049,2042,2028,2031,2028,2071
2031,2043,2048,2026,2014,2040,2034,2061
2036,2045,2071,2029,2011,2056,2044,2066
2041,2062,2120,2047,2021,2072,2052,2062
2044,2076,2148,2057,2029,2059,2036,2064
2060,2087,2159,2062,2035,2044,2034,2068
2067,2095,2169,2083,2041,2014,2055,2069
2073,2095,2158,2082,2048,2020,2052,2061
2067,2084,2140,2069,2044,2033,2044,2056
2063,2072,2109,2056,2051,2042,2029,2038
2054,2056,2091,2048,2042,2043,2028,2031
2049,2052,2081,2046,2037,2055,2040,2022
2045,2055,2075,2049,2044,2052,2049,2026
2050,2062,2083,2059,2048,2055,2043,2030
2054,2062,2072,2053,2047,2054,2033,2022
2055,2059,2070,2055,2046,2054,2052,2019
2053,2052,2072,2055,2035,2045,2055,2015
2048,2046,2061,2046,2031,2034,2041,2006
2041,2039,2057,2050,2043,2040,2027,2014
2047,2046,2062,2055,2055,2052,2036,2020
2047,2052,2061,2059,2042,2055,2054,2028
2050,2047,2064,2054,2043,2061,2043,2039
2052,2048,2064,2051,2041,2068,2050,2046
2055,2052,2061,2053,2045,2074,2045,2049
2055,2047,2057,2052,2037,2074,2048,2052
2054,2047,2055,2050,2045,2075,2066,2052
2056,2047,2061,2054,2052,2082,2054,2053
2049,2041,2062,2053,2053,2086,2063,2060
2046,2050,2066,2054,2053,2082,2072,2064
2049,2051,2072,2051,2052,2083,2065,2070
2046,2050,2060,2052,2060,2076,2060,2074
2050,2044,2055,2049,2051,2067,2075,2073
2053,2042,2059,2049,2057,2060,2063,2076
2049,2035,2051,2045,2044,2046,2029,2068
2043,2025,2044,2045,2045,2047,2036,2070
2039,2033,2055,2049,2041,2041,2030,2064
2043,2039,2046,2047,2036,2031,2025,2058
2042,2038,2046,2045,2040,2038,2027,2057
2045,2048,2052,2051,2040,2044,2057,2054
2049,2049,2054,2051,2038,2044,2040,2051
2048,2054,2050,2053,2033,2044,2038,2044
2050,2057,2056,2055,2029,2040,2036,2037
2051,2061,2059,2051,2036,2039,2030,2032
2052,2056,2052,2050,2034,2037,2037,2033
2047,2055,2046,2046,2034,2047,2040,2030
2056,2059,2046,2047,2031,2046,2029,2036
2052,2052,2047,2043,2036,2042,2035,2028
2052,2051,2047,2048,2041,2055,2064,2031
2053,2053,2049,2044,2042,2082,2059,2030
2056,2055,2053,2036,2032,2115,2067,2024
2051,2048,2041,2032,2031,2130,2059,2018
2050,2047,2045,2040,2032,2141,2084,2025
2059,2055,2050,2038,2030,2133,2070,2025
2060,2052,2041,2047,2027,2092,2048,2034
2059,2054,2053,2058,2056,2040,2072,2052
2062,2059,2051,2062,2066,2047,2066,2048
2061,2054,2052,2058,2058,2053,2079,2057
2062,2049,2040,2047,2051,2039,2072,2052
2054,2041,2037,2043,2049,2026,2062,2046
2048,2036,2034,2043,2045,2018,2049,2049
2044,2034,2032,2043,2038,2003,2057,2054
2038,2035,2032,2044,2037,2003,2077,2062
2050,2045,2038,2053,2037,2007,2066,2075
2051,2043,2043,2051,2042,1999,2069,2080
2046,2040,2043,2049,2050,1990,2055,2066
2038,2040,2033,2048,2033,1994,2043,2059
2034,2032,2023,2036,2027,1996,2035,2071
2041,2028,2028,2040,2035,1993,2037,2075
2063,2053,2043,2042,2032,1987,2028,2065
2066,2054,2052,2045,2032,1981,2038,2064
2060,2059,2043,2050,2034,1975,2045,2065
2062,2056,2046,2048,2035,1972,2039,2062
2062,2053,2045,2052,2030,1980,2042,2057
2055,2048,2042,2038,2026,1997,2044,2030
2043,2040,2039,2038,2019,2004,2051,2013
2040,2038,2032,2035,2018,2016,2057,2015
2046,2038,2043,2043,2018,2033,2068,2022
2054,2046,2045,2046,2026,2015,2052,2029
2064,2048,2047,2060,2054,2030,2061,2035
2070,2043,2046,2061,2111,2077,2078,2035
2060,2037,2046,2063,2122,2109,2067,2028
2059,2029,2041,2053,2104,2112,2070,2020
2051,2017,2030,2034,2092,2119,2058,2031
2058,2021,2025,2039,2099,2131,2071,2030
2060,2030,2032,2035,2089,2144,2052,2022
2045,2035,2023,2033,2066,2109,2060,2032
2048,2038,2022,2038,2032,2030,2060,2041
2041,2034,2017,2024,1926,2001,2058,2045
2065,2045,2028,2027,1872,2002,2049,2043
2076,2054,2035,2027,1933,2027,2061,2030
2076,2040,2029,2037,1983,2051,2068,2026
2056,2021,2022,2040,2025,2058,2060,2033
2052,2033,2041,2054,2023,2066,2071,2053
2059,2052,2051,2060,2021,2081,2077,2064
2036,2050,2052,2055,2036,2087,2089,2069
2016,2050,2048,2043,2030,2081,2066,2083
2028,2056,2043,2028,2014,2072,2061,2082
2037,2057,2040,2035,2077,2086,2068,2076
2032,2044,2040,2046,2092,2099,2041,2067
2039,2044,2043,2043,2071,2091,2029,2069
2048,2066,2058,2051,2060,2064,2038,2063
2051,2062,2052,2041,2039,2025,2048,2065
2053,2060,2054,2033,2021,2028,2056,2068
2056,2056,2047,2035,2023,2033,2054,2063
2057,2048,2044,2035,2031,2025,2065,2054
2049,2049,2055,2038,2030,2019,2051,2045
2058,2055,2050,2039,2031,2002,2055,2049
2064,2052,2047,2046,2038,1996,2056,2053
2069,2045,2040,2044,2032,1997,2045,2043
2059,2029,2025,2030,2008,1985,2042,2032
2061,2039,2038,2028,1988,1985,2026,2030
2050,2048,2044,2028,1977,1992,2023,2020
2031,2045,2043,2032,2006,2011,2011,2025
2031,2054,2054,2055,2039,2041,2043,2034
2027,2046,2044,2056,2062,2060,2049,2039
2039,2054,2040,2049,2025,2088,2057,2044
2044,2058,2048,2032,1941,2098,2052,2032
2039,2051,2046,2022,1887,2104,2056,2026
2039,2048,2041,2010,1898,2104,2053,2032
2041,2039,2034,2010,1919,2082,2041,2041
2034,2042,2038,2021,1955,2070,2052,2043
2039,2044,2046,2032,2016,2098,2056,2054
2055,2052,2047,2048,2064,2121,2038,2054
2051,2044,2040,2051,2080,2087,2036,2060
2059,2037,2033,2053,2066,2031,2040,2059
2058,2040,2037,2046,2031,1977,2039,2054
2049,2032,2035,2029,2002,1953,2016,2059
2024,2030,2026,2019,1994,1962,2013,2059
2018,2021,2021,2018,2016,1985,2017,2066
2024,2032,2031,2035,2045,2025,2019,2064
2035,2028,2031,2040,2066,2050,2039,2064
2031,2031,2041,2062,2103,2080,2041,2076
2047,2050,2056,2082,2127,2099,2061,2079
2052,2051,2053,2076,2109,2087,2065,2081
2057,2055,2056,2064,2095,2078,2028,2070
2049,2049,2050,2060,2079,2074,2027,2063
2049,2043,2047,2058,2076,2074,2029,2054
2050,2046,2045,2049,2073,2071,2039,2044
2051,2042,2041,2044,2075,2071,2027,2043
2048,2039,2038,2044,2079,2076,2055,2043
2048,2050,2041,2051,2075,2081,2041,2043
2054,2045,2047,2052,2081,2078,2037,2045
2051,2045,2044,2046,2076,2067,2055,2039
2048,2039,2044,2042,2054,2051,2036,2042
2054,2039,2047,2045,2044,2051,2041,2042
2055,2043,2057,2043,2035,2049,2025,2036
2056,2042,2047,2041,2036,2048,2037,2031
2041,2026,2036,2035,2036,2053,2030,2025
2029,2035,2041,2034,2037,2060,2045,2025
2033,2032,2032,2036,2040,2058,2045,2024
2028,2035,2039,2029,2041,2067,2032,2031
2046,2052,2040,2035,2049,2067,2049,2044
2067,2059,2054,2042,2053,2065,2068,2054
2076,2066,2054,2042,2049,2060,2059,2064
2079,2069,2062,2049,2052,2060,2056,2071
2070,2067,2062,2042,2046,2056,2052,2069
2072,2061,2054,2044,2047,2052,2063,2075
2064,2053,2049,2046,2049,2051,2029,2075
2061,2055,2048,2044,2049,2056,2049,2075
2060,2044,2043,2037,2046,2064,2059,2071
2061,2042,2042,2037,2046,2059,2054,2076
2052,2038,2045,2033,2040,2058,2052,2081
2052,2044,2050,2038,2044,2062,2058,2082
2041,2043,2051,2037,2036,2055,2040,2075
2043,2049,2057,2042,2043,2050,2044,2075
2052,2063,2055,2040,2036,2053,2033,2074
2053,2056,2052,2030,2030,2051,2033,2070
2054,2057,2042,2031,2024,2053,2045,2064
2053,2054,2034,2026,2034,2053,2058,2062
2053,2049,2038,2032,2041,2041,2053,2054
2050,2048,2036,2038,2041,2038,2056,2045
2056,2056,2044,2038,2045,2047,2025,2036
2046,2050,2042,2044,2047,2062,2042,2037
2056,2049,2047,2042,2046,2071,2038,2038
2057,2052,2040,2038,2039,2076,2055,2042
2055,2056,2039,2039,2044,2071,2071,2042
2050,2054,2040,2052,2057,2052,2040,2049
2061,2050,2047,2045,2060,2058,2062,2052
2052,2052,2035,2037,2056,2078,2048,2036
2041,2043,2029,2036,2050,2106,2049,2034
2042,2044,2038,2037,2050,2127,2046,2042
2050,2050,2036,2044,2055,2101,2057,2033
2056,2049,2040,2043,2046,2026,2052,2041
2056,2053,2042,2037,2030,1997,2045,2040
2056,2054,2037,2036,2037,2023,2064,2041
2053,2049,2037,2034,2034,2044,2051,2044
2049,2042,2035,2032,2033,2054,2045,2054
2041,2038,2032,2029,2029,2051,2036,2059
2038,2040,2035,2029,2025,2045,2046,2062
2035,2045,2034,2032,2039,2037,2034,2062
2035,2043,2038,2032,2043,2039,2013,2073
2036,2043,2045,2036,2050,2034,2019,2076
2043,2050,2045,2039,2053,2022,2035,2076
2040,2051,2041,2038,2055,2013,2043,2068
2035,2038,2035,2033,2044,2002,2016,2061
2021,2026,2032,2028,2037,2010,2039,2063
2022,2034,2034,2033,2050,2026,2031,2076
2036,2045,2046,2037,2060,2035,2036,2083
2040,2051,2048,2042,2057,2043,2069,2079
2047,2059,2050,2046,2063,2055,2074,2077
2054,2066,2045,2045,2062,2062,2074,2063
2049,2052,2038,2035,2048,2056,2052,2064
2047,2045,2030,2031,2037,2050,2032,2064
2050,2040,2030,2031,2033,2047,2034,2063
2050,2037,2029,2034,2032,2058,2040,2050
2047,2039,2030,2031,2037,2068,2029,2033
2041,2039,2035,2032,2028,2067,2059,2033
2039,2041,2034,2037,2027,2062,2048,2036
2046,2043,2037,2046,2040,2061,2052,2031
2042,2045,2031,2046,2045,2057,2059,2021
2036,2040,2034,2043,2048,2059,2040,2022
2026,2036,2029,2034,2050,2062,2039,2027
2033,2031,2031,2041,2052,2061,2037,2033
2033,2033,2033,2041,2050,2022,2018,2030
2024,2030,2038,2041,2044,2008,2014,2023
2011,2029,2055,2044,2039,1999,2036,2016
2015,2034,2058,2043,2033,1992,2040,2030
2026,2044,2062,2045,2046,1994,2049,2041
2036,2053,2056,2053,2055,2002,2057,2058
2038,2055,2056,2053,2061,2007,2053,2058
2040,2054,2052,2046,2047,2014,2036,2064
2036,2048,2049,2038,2043,2024,2042,2070
2043,2054,2043,2042,2048,2035,2041,2083
2043,2051,2046,2044,2051,2027,2054,2084
2056,2056,2050,2040,2049,2028,2040,2088
2042,2051,2058,2047,2052,2019,2029,2082
2044,2064,2071,2040,2043,2007,2018,2074
2039,2054,2072,2042,2031,2025,2006,2067
2035,2055,2067,2041,2046,2052,2000,2072
2047,2056,2068,2044,2058,2076,2051,2077
2050,2058,2065,2043,2058,2094,2071,2074
2048,2053,2057,2039,2058,2102,2072,2061
2048,2048,2046,2035,2048,2091,2058,2054
2048,2051,2053,2034,2042,2098,2039,2051
2050,2056,2066,2042,2054,2114,2063,2054
2049,2068,2078,2052,2061,2128,2073,2046
2053,2066,2073,2053,2051,2109,2056,2038
2053,2067,2066,2045,2035,2076,2031,2039
2047,2061,2054,2039,2028,2050,2018,2026
2048,2059,2048,2035,2023,2006,2012,2025
2045,2046,2041,2028,2037,2002,2041,2020
2036,2041,2040,2030,2033,2006,2036,2020
2034,2045,2041,2029,2028,2019,2040,2029
2030,2031,2033,2025,2027,2028,2025,2020
2031,2024,2032,2025,2024,2024,2038,2020
2038,2036,2034,2038,2033,2022,2050,2027
2036,2040,2037,2038,2036,2035,2064,2047
2040,2050,2043,2044,2040,2045,2060,2047
2043,2041,2038,2039,2040,2037,2058,2035
2022,2034,2030,2037,2044,2032,2060,2038
2019,2026,2027,2043,2049,2037,2063,2034
2010,2027,2021,2040,2052,2052,2068,2037
2020,2018,2024,2044,2058,2064,2083,2039
2019,2012,2028,2043,2038,2076,2061,2036
2017,2012,2027,2046,2016,2075,2052,2047
2013,2005,2018,2034,1997,2070,2047,2050
2013,2000,2017,2033,1983,2073,2042,2046
2014,2014,2022,2027,1977,2063,2046,2059
2032,2028,2027,2029,1983,2053,2046,2061
2030,2023,2022,2032,1990,2039,2034,2044
2024,2019,2019,2036,1983,2010,2034,2060
2030,2025,2032,2055,2006,1951,2025,2073
2046,2053,2052,2077,2062,1944,2019,2066
2050,2061,2050,2074,2081,1985,2032,2061
2059,2056,2048,2069,2118,2049,2062,2060
2068,2055,2049,2072,2154,2081,2079,2051
2065,2059,2045,2061,2159,2096,2057,2041
2062,2055,2043,2060,2185,2102,2055,2044
2060,2056,2043,2046,2176,2093,2063,2039
2049,2046,2034,2025,2092,2086,2055,2031
2043,2050,2030,2006,1988,2062,2046,2023
2034,2047,2033,1981,1814,2032,2031,2016
2039,2056,2039,1970,1783,2006,2029,2019
2038,2043,2029,1970,1860,1981,2042,2024
2051,2049,2048,2025,2012,2008,2064,2039
2046,2052,2057,2040,2057,2026,2071,2042
2050,2058,2069,2046,2087,2041,2066,2046
2063,2077,2085,2067,2115,2010,2068,2047
2066,2081,2091,2073,2107,1991,2056,2051
2055,2066,2074,2051,2077,2001,2068,2049
2045,2061,2066,2044,2082,2019,2022,2038
2045,2055,2058,2041,2080,2037,2018,2048
2035,2045,2051,2036,2068,2057,2006,2043
2039,2041,2041,2032,2052,2067,2010,2041
2030,2035,2040,2038,2053,2099,2035,2047
2039,2035,2038,2040,2076,2135,2032,2056
2039,2036,2042,2043,2088,2151,2056,2062
2037,2028,2039,2036,2073,2101,2045,2064
2045,2022,2027,2032,2045,2002,2044,2074
2043,2030,2031,2044,2051,2008,2053,2086
2051,2034,2027,2040,2063,2046,2044,2085
2041,2022,2016,2036,2068,2064,2057,2067
2034,2030,2028,2041,2080,2079,2070,2070
2040,2049,2044,2062,2089,2083,2069,2050
2008,2038,2042,2062,2113,2075,2056,2047
2015,2039,2042,2055,2115,2064,2055,2039
2018,2050,2055,2056,2092,2055,2053,2036
2031,2053,2061,2052,2075,2066,2048,2039
2046,2060,2066,2053,2042,2062,2051,2031
2045,2057,2061,2029,1934,2007,2044,2035
2048,2058,2061,2028,1918,1972,2034,2033
2054,2062,2060,2036,1944,1976,2037,2029
2049,2058,2056,2030,1912,2002,2027,2013
2041,2059,2044,2017,1896,2030,2038,2016
2043,2065,2060,2031,1961,2053,2031,2031
2053,2068,2058,2046,2002,2032,2035,2031
2050,2057,2056,2050,1992,2021,2040,2030
2042,2042,2043,2031,1961,2009,2029,2023
2039,2036,2034,2012,1933,2004,2022,2035
2048,2042,2026,2006,1961,2008,2031,2033
2043,2035,2016,2006,2027,2024,2027,2021
2040,2030,2021,2010,2068,2047,2034,2017
2038,2041,2030,2021,2075,2059,2053,2017
2050,2050,2034,2030,2085,2082,2061,2038
2051,2052,2034,2041,2120,2109,2075,2045
2042,2044,2036,2042,2106,2125,2085,2038
2043,2038,2032,2033,2080,2127,2054,2038
2029,2040,2042,2033,2053,2129,2051,2040
2031,2043,2050,2034,2026,2117,2049,2052
2036,2039,2052,2031,2012,2069,2039,2063
2035,2032,2049,2022,1989,1989,2034,2065
2037,2024,2045,2016,2001,1964,2026,2056
2035,2030,2046,2015,2040,2014,2040,2053
2033,2031,2041,2024,2061,2050,2038,2051
2039,2044,2050,2029,2059,2062,2053,2072
2052,2053,2052,2023,2059,2065,2055,2068
2049,2044,2044,2021,2091,2048,2047,2069
2048,2047,2052,2026,2124,2032,2049,2060
2048,2054,2055,2038,2124,2041,2054,2049
2046,2050,2053,2043,2115,2050,2058,2039
2045,2051,2051,2044,2103,2051,2066,2031
2050,2058,2052,2037,2098,2054,2063,2032
2057,2062,2059,2048,2097,2086,2062,2050
2059,2068,2064,2054,2105,2116,2078,2043
2059,2064,2059,2054,2071,2084,2070,2028
2052,2054,2048,2042,2048,2074,2062,2019
2045,2054,2050,2038,2042,2066,2052,2016
2052,2049,2045,2034,2055,2054,2036,2020
2053,2040,2042,2025,2046,2024,2017,2018
2050,2023,2033,2017,2019,1998,2020,2006
2047,2022,2037,2019,2012,2002,2021,2012
2038,2032,2045,2027,2024,2007,2019,2002
2030,2036,2046,2033,2038,2018,2003,2014
2038,2035,2054,2033,2055,2033,2016,2030
2043,2033,2044,2036,2083,2046,2016,2037
2047,2036,2044,2034,2106,2046,2027,2049
2056,2055,2043,2049,2103,2043,2034,2041
2049,2049,2028,2045,2085,2014,2036,2041
2031,2040,2024,2038,2112,2003,2030,2050
2024,2040,2025,2050,2168,2030,2052,2052
2031,2051,2034,2059,2189,2058,2060,2065
2053,2067,2042,2065,2200,2065,2070,2072
2052,2070,2045,2062,2198,2058,2073,2070
2050,2068,2047,2057,2185,2055,2074,2061
2037,2056,2050,2049,2154,2058,2067,2058
2037,2050,2052,2046,2133,2056,2069,2063
2029,2045,2062,2052,2113,2067,2050,2055
2026,2042,2066,2041,2032,2018,2033,2044
2022,2028,2057,2010,1882,1971,2024,2044
2028,2030,2060,2023,1890,2011,2036,2055
2044,2038,2066,2041,1943,2077,2047,2048
2051,2043,2060,2047,1961,2115,2046,2045
2052,2047,2070,2054,2001,2104,2048,2038
2052,2048,2061,2052,2009,2032,2047,2021
2045,2043,2049,2036,1979,1978,2029,2011
2030,2050,2051,2032,1977,2003,2035,2008
2038,2058,2056,2034,1971,2027,2034,2000
2036,2063,2046,2040,2032,2059,2042,2016
2049,2069,2050,2050,2103,2082,2061,2029
2062,2067,2057,2056,2144,2096,2068,2026
2066,2061,2045,2046,2106,2088,2062,2018
2062,2040,2034,2025,2046,2064,2035,1994
2037,2035,2033,2011,2043,2050,2053,2006
2039,2043,2044,2014,2077,2056,2057,2009
2026,2050,2036,2020,2089,2053,2066,2025
2032,2050,2032,2014,2081,2043,2060,2033
2040,2047,2029,2023,2125,2046,2084,2038
2049,2047,2027,2024,2144,2025,2052,2039
2041,2032,2023,2017,2123,2005,2058,2027
2040,2045,2042,2036,2122,1994,2042,2033
2045,2049,2044,2053,2144,2028,2050,2056
2049,2044,2040,2045,2081,2043,2050,2061
2042,2047,2032,2040,2008,2066,2063,2064
2038,2047,2036,2052,2040,2079,2073,2068
2032,2043,2027,2017,1985,2044,2055,2075
2020,2033,2020,1993,1907,2047,2060,2061
2026,2033,2020,1992,1939,2085,2073,2071
2051,2046,2025,2018,2040,2112,2069,2081
2059,2041,2043,2037,2093,2153,2074,2069
2049,2069,2059,2045,2085,2171,2078,2040
2044,2066,2063,2030,1985,2165,2082,2048
2056,2069,2062,2007,1898,2165,2091,2059
2062,2066,2059,1986,1974,2144,2067,2046
2054,2057,2037,1966,1980,2058,2058,2039
2051,2066,2046,1972,1966,2013,2056,2041
2052,2076,2064,2006,1960,1973,2052,2038
2064,2084,2074,2020,1916,1958,2053,2036
2058,2081,2073,2028,2032,2003,2056,2030
2050,2071,2065,2046,2215,2024,2048,2031
2045,2068,2070,2062,2256,2002,2036,2030
2050,2073,2066,2084,2234,2015,2050,2024
2055,2078,2071,2074,2176,2019,2025,2021
2055,2072,2060,2048,2094,2022,2045,2015
2048,2053,2046,2016,1986,2012,2047,2016
2044,2044,2036,2001,1994,1990,2037,2015
2056,2045,2040,2000,1913,1978,2033,2020
2056,2042,2037,1995,1868,1986,2033,2017
2064,2055,2046,2024,1966,2026,2038,2008
2064,2052,2054,2054,2085,2057,2038,2014
2067,2054,2050,2062,2128,2046,2048,2025
2073,2050,2047,2047,2108,2055,2050,2032
2066,2038,2042,2030,2057,2072,2046,2029
2019,2039,2034,2018,1998,2062,2041,2029
2001,2051,2019,2001,1946,2056,2039,2030
2014,2050,2020,1986,1938,2033,2026,2022
2015,2049,2026,1998,1982,1997,2041,2041
2029,2058,2042,2046,2118,2008,2058,2054
2028,2053,2043,2068,2191,2049,2080,2056
2023,2040,2045,2063,2166,2047,2073,2057
2022,2040,2038,2072,2186,2034,2076,2061
2022,2036,2034,2072,2249,2028,2059,2062
2023,2033,2035,2069,2219,2025,2068,2052
2040,2032,2031,2062,2178,2020,2066,2056
2051,2036,2028,2044,2140,2006,2055,2043
2045,2022,2026,2026,2088,1998,2053,2036
2022,2029,2026,1999,1963,1996,2057,2021
2023,2034,2032,1997,1896,1995,2028,2013
2021,2049,2049,2008,1927,1995,2023,2020
2040,2040,2046,1999,1933,2011,2029,2030
2047,2038,2045,2017,2014,2030,2025,2022
2035,2037,2042,2021,1990,2041,2024,2017
2042,2032,2045,2032,1987,2057,2029,2024
2049,2043,2052,2035,1986,2068,2037,2007
2026,2036,2042,2010,1964,2061,2022,2000
2023,2029,2033,2004,1956,2066,2031,2015
2036,2038,2038,2025,1970,2091,2053,2022
2046,2044,2042,2020,1932,2078,2034,2029
2044,2049,2041,2016,1912,2093,2038,2026
2057,2059,2037,2012,1903,2090,2035,2012
2035,2026,2017,1990,1868,2057,2013,1999
2018,2021,2020,1977,1853,2000,2022,2016
2024,2024,2025,1988,1889,1955,2020,2020
2019,2020,2024,2001,1983,1974,2036,2041
2029,2035,2041,2049,2117,2038,2049,2042
2042,2060,2070,2082,2208,2102,2052,2034
2040,2063,2068,2098,2266,2116,2055,2028
2032,2049,2063,2087,2262,2113,2052,2038
2039,2048,2053,2074,2216,2061,2045,2050
2041,2051,2058,2069,2184,2036,2036,2055
2041,2053,2058,2065,2154,2027,2027,2049
2023,2052,2052,2057,2118,2012,2008,2041
2029,2046,2050,2056,2115,2022,2012,2056
2051,2039,2050,2049,2119,2038,2025,2062
2054,2042,2045,2050,2115,2041,2038,2064
2055,2050,2044,2046,2101,2037,2027,2047
2037,2043,2043,2045,2089,2035,2030,2033
2045,2051,2041,2043,2068,2021,2024,2026
2044,2046,2042,2020,1984,2013,2041,2043
2043,2048,2043,2010,1956,2017,2036,2041
2031,2050,2043,2020,1942,2026,2040,2033
2025,2056,2049,2033,1963,2031,2064,2036
2042,2056,2042,2037,2015,2043,2072,2038
2044,2053,2034,2041,2031,2047,2069,2020
2038,2048,2033,2037,2047,2069,2062,2018
2048,2050,2039,2045,2084,2099,2044,2022
2059,2059,2042,2057,2091,2119,2042,2015
2045,2055,2043,2055,2086,2146,2067,2012
2033,2061,2043,2061,2080,2169,2058,2010
2025,2045,2035,2058,2080,2161,2060,2006
2021,2034,2029,2054,2073,2072,2045,2005
2026,2040,2038,2053,2055,1982,2039,2004
2026,2046,2040,2052,2065,1992,2034,2020
2034,2049,2037,2056,2041,2013,2048,2041
2050,2050,2040,2047,2022,2004,2045,2048
2052,2058,2041,2041,2032,1992,2031,2044
2053,2066,2045,2054,2050,1999,2033,2048
2052,2062,2055,2052,2020,2024,2040,2049
2040,2061,2054,2049,2007,2043,2054,2039
2035,2049,2049,2040,1987,2047,2052,2043
2019,2029,2046,2037,1992,2051,2039,2047
2015,2036,2050,2045,2021,2060,2054,2052
2023,2052,2074,2052,2055,2072,2046,2058
2042,2050,2068,2044,2038,2062,2011,2052
2026,2035,2054,2038,2050,2062,2009,2030
1999,2021,2046,2030,2060,2065,2007,2029
1996,2015,2045,2027,2067,2072,2024,2036
2005,2028,2049,2036,2060,2085,2061,2051
2013,2025,2035,2048,2069,2094,2046,2058
2032,2037,2044,2060,2091,2103,2033,2057
2058,2066,2066,2070,2118,2093,2034,2037
2054,2061,2062,2061,2109,2070,2038,2023
2044,2054,2049,2045,2062,2056,2053,2016
2035,2042,2048,2026,2037,2056,2039,2015
2031,2026,2047,2019,2034,2066,2052,2013
2031,2033,2062,2013,2030,2073,2064,2016
2029,2042,2062,2009,2037,2048,2061,2008
2031,2050,2052,2007,2003,1993,2048,2014
2045,2065,2066,2017,1994,1977,2023,2020
2060,2073,2070,2025,2021,1981,2006,2020
2060,2066,2057,2018,2039,1995,2027,2017
2039,2043,2043,2020,2106,2004,2013,2001
2037,2047,2060,2054,2167,2049,2034,2004
2038,2056,2069,2067,2171,2069,2014,2006
2032,2047,2054,2062,2145,2080,2029,2020
2042,2039,2048,2076,2147,2094,2044,2030
2045,2041,2065,2078,2080,2058,2029,2032
2042,2044,2068,2061,1978,2018,2035,2041
2046,2046,2072,2067,2073,2047,2060,2040
2044,2040,2071,2083,2162,2102,2052,2026
2032,2035,2068,2082,2118,2131,2051,2045
2037,2025,2056,2067,2059,2153,2053,2050
2047,2018,2050,2051,2008,2100,2061,2057
2057,2026,2048,2056,1975,2040,2046,2072
2085,2046,2057,2063,2029,2028,2060,2089
2096,2047,2044,2062,2074,2020,2046,2077
2079,2023,2023,2048,2044,2004,2035,2040
2038,2007,2008,2040,2005,2016,2024,2036
2025,2013,2011,2047,2041,2021,2021,2042
1997,2033,2020,2051,2018,1993,2023,2043
1993,2040,2015,2036,1993,1973,2022,2042
2017,2058,2024,2048,2018,1997,2036,2040
2029,2060,2037,2061,2040,2040,2052,2035
2039,2046,2040,2045,2021,2042,2030,2024
2036,2041,2046,2027,2000,2025,2034,2028
2050,2037,2043,2026,2012,2033,2039,2032
2053,2026,2026,2015,2041,2042,2035,2016
2033,2022,2021,2024,2082,2050,2032,1985
2009,2032,2026,2042,2172,2070,2040,1995
2034,2046,2029,2052,2202,2068,2039,2008
2043,2050,2039,2066,2188,2071,2040,2004
2048,2066,2063,2073,2096,2077,2060,2002
2045,2074,2076,2076,2041,2064,2049,2016
2045,2060,2087,2078,1977,2022,2041,2025
2056,2075,2109,2085,1967,1998,2037,2031
2061,2084,2106,2076,1957,2024,2042,2024
2056,2065,2082,2040,1845,2056,2048,2019
2042,2056,2068,2024,1808,2074,2049,2005
2036,2050,2063,2040,1884,2074,2068,1999
2040,2054,2072,2073,2081,2049,2034,1987
2028,2045,2062,2104,2304,2056,2026,1996
2029,2055,2069,2140,2435,2089,2031,2018
2042,2067,2082,2147,2337,2064,2052,2024
2054,2084,2089,2109,2168,2036,2024,2031
2050,2076,2086,2081,2126,2047,2045,2029
2037,2068,2069,2069,2131,2067,2051,2033
2045,2059,2055,2040,2108,2062,2063,2059
2047,2050,2030,2008,1971,2062,2055,2043
2033,2026,2017,1987,1918,2086,2047,2053
2033,2018,2029,2011,1967,2086,2043,2069
2041,2022,2038,1996,1929,2089,2058,2077
2043,2034,2051,1991,1878,2081,2052,2072
2048,2030,2052,1998,1896,2089,2052,2065
2045,2021,2047,2009,2003,2067,2045,2049
2019,2021,2046,2033,2114,2025,2044,2056
2035,2047,2071,2076,2204,2050,2068,2062
2059,2061,2066,2092,2267,2105,2091,2047
2044,2052,2056,2102,2339,2152,2083,2014
2013,2027,2052,2087,2229,2120,2062,1981
2005,2021,2038,2027,1917,2044,2041,1976
1999,2016,2028,1970,1680,1998,2034,1971
2001,2018,2027,1974,1752,2032,2048,1984
2021,2024,2036,2016,2000,2083,2022,1991
2037,2038,2042,2039,2048,2069,2023,1976
2034,2040,2055,2016,2005,2026,1999,1967
2025,2030,2036,1980,1912,1969,1977,1961
2016,2030,2037,1968,1841,1939,1993,1985
2033,2050,2035,1983,1871,1949,2017,2003
2039,2056,2044,2020,1991,2027,2046,2017
2048,2062,2061,2059,2078,2105,2069,2017
2053,2071,2078,2082,2084,2100,2061,2024
2071,2076,2077,2097,2073,2104,2064,2034
2082,2079,2071,2077,2012,2099,2033,2036
2071,2063,2058,2031,1900,2018,2003,2015
2061,2049,2051,1994,1834,1918,2006,2025
2071,2066,2066,2012,1976,1973,2038,2036
2088,2078,2081,2058,2143,2074,2090,2053
2078,2077,2098,2107,2211,2128,2086,2071
2062,2062,2085,2077,2119,2068,2062,2052
2026,2048,2058,2047,2093,2013,2035,2038
2000,2039,2047,2062,2180,2022,2040,2053
2019,2038,2042,2069,2198,2031,2054,2053
2020,2025,2025,2064,2166,2045,2050,2059
2034,2024,2031,2055,2144,2055,2065,2046
2031,2006,2020,2042,2119,2054,2045,2013
2026,1986,2002,2024,2099,2047,2026,1997
2006,1987,2002,2038,2086,2040,2024,1997
2035,2000,2012,2072,2103,2045,2039,2023
2060,2030,2030,2097,2134,2056,2028,2010
2031,2050,2038,2114,2152,2064,2038,2016
2055,2061,2035,2110,2119,2065,2058,2045
2082,2058,2033,2112,2100,2053,2053,2030
2048,2045,2025,2094,2029,2034,2039,2016
2030,2055,2042,2104,2041,2050,2064,2014
2032,2067,2048,2112,2111,2068,2060,2019
2047,2068,2048,2109,2059,2079,2057,2027
2046,2054,2024,2093,1986,2077,2080,2039
2065,2040,2025,2105,2042,2074,2068,2037
2066,2029,2011,2073,2062,2058,2065,2042
2068,2016,2005,2061,2081,2046,2036,2048
2052,1996,2022,2045,2052,2000,2038,2010
2033,2018,2080,2067,2069,1992,2023,1982
2024,2063,2141,2085,2075,2001,2026,1991
2041,2076,2158,2098,2066,2013,2058,2022
2048,2072,2141,2104,2047,2035,2081,2034
2048,2074,2121,2088,2019,2026,2069,2038
2035,2067,2091,2053,2011,2027,2047,2043
2038,2070,2089,2063,2082,2057,2057,2058
2045,2077,2088,2058,2141,2055,2033,2067
2062,2080,2083,2062,2225,2074,2056,2071
2072,2084,2087,2087,2273,2095,2064,2054
2054,2068,2083,2121,2299,2097,2059,2047
2049,2048,2064,2120,2240,2094,2057,2048
2031,2038,2050,2111,2197,2081,2049,2043
2018,2031,2047,2085,2176,2069,2049,2056
2024,2048,2046,2046,2079,2042,2061,2065
2022,2046,2041,1986,1891,2038,2045,2053
2027,2039,2032,1950,1765,2059,2060,2050
2021,2043,2031,1936,1723,2078,2059,2038
2025,2046,2027,1944,1775,2062,2050,2028
2023,2042,2024,1964,1855,2030,2071,2036
2036,2056,2033,1990,1894,1998,2071,2043
2054,2061,2040,2001,1932,2018,2080,2043
2063,2056,2042,1996,1963,2048,2077,2028
2065,2042,2031,1987,1975,2045,2076,2024
2069,2054,2037,2019,2061,2064,2054,1996
2054,2041,2034,2038,2167,2057,2023,1982
2045,2027,2018,2047,2190,2038,2033,1982
2047,2029,2023,2058,2177,2056,2040,1984
2031,2029,2024,2051,2159,2040,2019,1976
1997,2018,2021,2059,2184,2034,2038,2010
2019,2016,2047,2085,2160,2037,2062,2040
2054,2050,2082,2098,2145,2019,2074,2032
2058,2065,2099,2102,2125,1999,2070,2027
2044,2065,2100,2082,2036,1957,2031,2022
2029,2063,2086,2025,1787,1886,2029,2029
2035,2057,2074,2018,1774,1884,2026,2028
2034,2044,2054,2021,1735,1901,2023,2037
2035,2040,2062,2060,1854,1955,2027,2035
2062,2060,2085,2106,2058,2012,2047,2033
2067,2068,2097,2120,2123,2051,2037,2034
2055,2058,2083,2098,2129,2070,2040,2019
2029,2057,2068,2094,2192,2114,2022,2024
2034,2074,2066,2102,2189,2139,2047,2033
2018,2067,2054,2068,2138,2115,2062,2044
2016,2049,2021,2022,2095,2090,2076,2048
2013,2034,1998,1973,2049,2067,2065,2050
2024,2038,1991,1946,2009,2052,2054,2043
2033,2056,2007,1949,1986,2052,2053,2041
2046,2059,2006,1930,1999,2056,2055,2050
2051,2050,1993,1930,1985,2053,2051,2044
2052,2035,1995,1942,1976,2031,2055,2032
2061,2052,2015,1978,1983,2008,2064,2034
2068,2066,2037,2024,2015,2017,2074,2044
2066,2078,2035,2015,1954,2001,2063,2036
2051,2054,2012,1985,1872,1987,2072,2041
2048,2051,2000,1994,1917,2002,2074,2041
2036,2046,1999,2019,2032,2043,2085,2034
2042,2051,1996,2040,2124,2079,2080,2029
2040,2055,2004,2069,2190,2117,2097,2024
2054,2053,2007,2063,2169,2124,2090,2021
2052,2054,2000,2048,2141,2091,2075,2021
2039,2035,1988,2037,2095,2030,2040,2034
2033,2026,1987,2026,2081,2024,2040,2033
2036,2040,2013,2049,2130,2033,2040,2020
2044,2042,2023,2063,2147,2062,2067,2021
2060,2022,2015,2043,2070,2056,2084,2036
2073,2008,2012,2020,2030,2046,2069,2050
2089,2005,2025,2023,2041,2050,2072,2064
2078,2005,2028,2038,2048,2041,2051,2018
2026,2011,2051,2040,2032,2031,2034,2001
2019,2029,2068,2010,1893,2008,2052,2012
2026,2037,2073,2003,1893,2017,2063,2031
2027,2051,2084,2046,2060,2052,2078,2050
2036,2077,2097,2070,2124,2059,2067,2072
2053,2102,2100,2093,2118,2059,2076,2081
2052,2102,2084,2087,2088,2056,2089,2081
2051,2095,2067,2072,2060,2036,2069,2071
2037,2072,2046,2052,2053,2031,2064,2071
2041,2067,2061,2046,2041,2030,2062,2066
2050,2077,2075,2050,2033,2038,2055,2070
2057,2072,2086,2064,2041,2054,2066,2067
2047,2060,2108,2067,2068,2062,2062,2053
2038,2046,2109,2072,2068,2049,2070,2045
2042,2047,2087,2058,2048,2039,2043,2044
2042,2041,2082,2052,2039,2026,2027,2029
2039,2048,2082,2054,2026,2023,2045,2036
2050,2058,2091,2061,2032,2019,2056,2048
2046,2063,2078,2065,2050,2027,2041,2018
2023,2062,2081,2081,2074,2039,2052,2016
2016,2064,2079,2104,2124,2052,2059,2027
2033,2058,2069,2109,2122,2058,2057,2034
2039,2046,2055,2114,2093,2059,2054,2028
2042,2047,2063,2130,2096,2068,2057,2026
2039,2033,2060,2133,2094,2093,2068,2021
2036,2029,2055,2134,2089,2120,2071,2020
2044,2037,2050,2123,2079,2134,2083,2000
2021,2013,2025,2110,2077,2125,2064,2000
2010,2000,2011,2099,2080,2097,2054,2019
2027,2025,2023,2120,2124,2050,2064,2047
2041,2050,2035,2117,2118,2057,2083,2046
2043,2052,2043,2115,2094,2053,2056,2053
2053,2068,2062,2110,2076,2062,2056,2052
2047,2064,2052,2120,2041,2066,2065,2050
2034,2057,2052,2124,2032,2060,2052,2044
2027,2048,2049,2102,2008,2039,2042,2041
2018,2035,2034,2090,2002,2047,2044,2048
2018,2030,2044,2111,2026,2065,2049,2063
2020,2014,2026,2093,1993,2062,2067,2081
2025,1998,2007,2076,2003,2072,2056,2087
2049,1990,1997,2053,2054,2077,2045,2092
2069,2004,2006,2020,2065,2075,2026,2080
2070,2047,2036,1987,2098,2086,2045,2053
2070,2086,2057,1981,2078,2061,2036,2044
2092,2101,2048,1970,2069,2019,2035,2045
2075,2065,2014,1972,2110,2033,2039,2070
2067,2042,2000,1987,2063,2014,2038,2067
2041,2056,2032,2001,1979,1957,2033,2042
2015,2068,2042,2009,1976,1961,2018,2020
2020,2059,2059,2010,2027,2004,2043,2042
2052,2065,2078,2061,2140,2040,2057,2072
2068,2070,2097,2098,2176,2055,2043,2059
2056,2058,2101,2106,2151,2070,2070,2054
2048,2071,2115,2101,2162,2102,2074,2048
2057,2097,2114,2088,2136,2092,2077,2059
2065,2087,2097,2084,2116,2073,2054,2038
2045,2044,2065,2053,2110,2047,2026,2018
2022,2026,2039,2026,2002,2015,2024,2016
2020,2019,2027,2004,1912,1991,2011,2015
2024,2030,2049,2026,1984,1994,1999,2030
2032,2050,2074,2038,1982,2018,2005,2033
2029,2056,2088,2039,2003,2038,2008,2041
2048,2071,2093,2055,2064,2064,2023,2044
2045,2064,2086,2042,2067,2089,2044,2039
2028,2050,2074,2037,2010,2083,2018,2043
2027,2038,2056,2018,1955,2077,2035,2059
2043,2054,2061,2018,1935,2043,2027,2069
2054,2058,2071,2002,1963,2003,2010,2072
2041,2044,2045,2009,2042,2037,2027,2066
2041,2038,2049,2052,2085,2092,2030,2071
2044,2050,2050,2080,2093,2120,2024,2060
2051,2041,2038,2086,2082,2102,2030,2059
2064,2039,2054,2093,2072,2071,2038,2052
2048,2030,2056,2098,2071,2058,2050,2062
2037,2036,2060,2114,2075,2037,2079,2061
2039,2049,2056,2110,2074,2044,2088,2062
2029,2031,2018,2086,2050,2037,2050,2046
2011,2011,1978,2068,2042,2039,2047,2036
2031,2030,2038,2089,2060,2048,2026,2031
2051,2047,2061,2105,2072,2066,2048,2034
2057,2048,2064,2104,2077,2069,2066,2032
2042,2036,2042,2086,2066,2066,2054,2029
2034,2028,2033,2098,2057,2061,2054,2042
2039,2028,2025,2100,2061,2052,2046,2038
2037,2031,2004,2098,2055,2053,2051,2037
2032,2020,1987,2099,2048,2039,2029,2023
2016,2002,1977,2085,2042,2033,2021,2010
2008,2005,1974,2075,2040,2042,2032,2011
2022,2026,1999,2067,2041,2051,2048,2019
2033,2044,2034,2052,2033,2050,2041,2033
2043,2057,2068,2045,2032,2047,2056,2042
2039,2055,2074,2030,2037,2040,2049,2044
2034,2058,2085,2030,2041,2043,2060,2044
2044,2071,2119,2031,2051,2050,2050,2049
2051,2063,2132,2014,2042,2050,2053,2058
2058,2064,2127,1999,2039,2054,2074,2049
2058,2064,2113,1992,2044,2053,2076,2048
2051,2062,2117,2003,2048,2058,2077,2049
2042,2059,2111,2022,2046,2061,2062,2060
2037,2057,2098,2037,2053,2058,2085,2054
2020,2056,2076,2051,2060,2055,2057,2058
2033,2082,2087,2062,2061,2059,2064,2078
2057,2094,2086,2056,2064,2059,2063,2090
2072,2076,2074,2033,2058,2058,2048,2101
2063,2050,2048,2020,2059,2047,2052,2079
2036,2036,2033,2014,2054,2043,2041,2069
2037,2041,2030,2009,2058,2048,2040,2072
2061,2056,2040,2016,2056,2057,2043,2073
2066,2060,2046,2030,2054,2058,2043,2064
2054,2064,2074,2062,2064,2070,2045,2051
2056,2080,2115,2081,2069,2068,2037,2056
2050,2070,2111,2087,2056,2060,2030,2050
2047,2049,2096,2111,2049,2044,2036,2046
2045,2057,2095,2132,2059,2056,2041,2046
2055,2069,2091,2140,2066,2051,2052,2045
2063,2070,2080,2144,2067,2049,2039,2028
2054,2064,2067,2141,2064,2047,2049,2021
2050,2062,2055,2127,2052,2044,2046,2021
2043,2046,2032,2111,2048,2044,2039,2026
2047,2050,2043,2110,2054,2052,2046,2034
2064,2064,2067,2109,2055,2053,2021,2037
2059,2059,2081,2089,2057,2046,2039,2029
2045,2054,2061,2053,2037,2046,2031,2027
2035,2044,2040,2004,2022,2037,2038,2025
2034,2036,2041,1978,2010,2034,2028,2034
2040,2048,2056,1981,2015,2036,2020,2039
2039,2064,2077,1994,2036,2044,2030,2048
2050,2073,2078,2004,2047,2064,2051,2057
2055,2066,2070,2013,2056,2068,2055,2067
2064,2069,2071,2019,2062,2063,2072,2074
2073,2062,2061,2033,2049,2054,2047,2077
2058,2052,2031,2045,2044,2040,2057,2075
2051,2042,2029,2050,2038,2036,2044,2072
2047,2046,2035,2049,2044,2045,2044,2060
2037,2052,2042,2044,2049,2050,2049,2070
2042,2055,2040,2042,2050,2050,2054,2082
2056,2055,2041,2037,2044,2044,2042,2079
2041,2039,2018,2031,2048,2045,2036,2076
2040,2024,2001,2026,2045,2046,2039,2077
2050,2034,2009,2030,2038,2048,2049,2075
2055,2038,2015,2036,2042,2042,2035,2064
2059,2047,2017,2040,2049,2040,2049,2073
2051,2047,2027,2047,2054,2048,2049,2064
2051,2047,2022,2046,2055,2047,2050,2057
2047,2051,2037,2052,2050,2052,2035,2052
2055,2046,2041,2052,2061,2048,2042,2039
2046,2037,2040,2053,2051,2042,2038,2032
2045,2039,2043,2058,2052,2047,2050,2030
2038,2040,2054,2062,2056,2050,2049,2039
2053,2047,2067,2072,2058,2050,2041,2043
2057,2047,2067,2076,2059,2042,2036,2044
2053,2033,2059,2080,2058,2044,2028,2039
2051,2038,2059,2074,2056,2036,2020,2036
2050,2034,2044,2057,2007,2021,2040,2052
2058,2021,2029,2043,1969,2026,2025,2048
2069,2037,2044,2060,2001,2035,2034,2046
2076,2041,2046,2053,1992,2034,2031,2038
2085,2045,2045,2060,2012,2054,2054,2041
2074,2044,2048,2077,2070,2074,2060,2041
2055,2042,2047,2082,2095,2071,2067,2043
2034,2036,2028,2064,2090,2054,2054,2040
2022,2043,2022,2044,2093,2063,2058,2055
2048,2059,2020,2058,2115,2074,2055,2060
2064,2065,2023,2068,2096,2074,2056,2068
2065,2061,2017,2057,2081,2074,2077,2072
2067,2053,2007,2051,2073,2079,2084,2084
2060,2047,1999,2047,2070,2078,2077,2081
2054,2048,2005,2058,2064,2058,2080,2081
2053,2031,2005,2052,2056,2045,2058,2079
2038,2010,1999,2045,2047,2049,2064,2065
2039,2007,2026,2051,2043,2049,2060,2072
2054,2025,2065,2071,2043,2058,2076,2071
2061,2030,2080,2077,2021,2064,2061,2057
2041,2028,2074,2075,2003,2067,2055,2043
2037,2035,2088,2092,1997,2080,2050,2045
2039,2035,2088,2101,1990,2066,2051,2043
2052,2037,2076,2116,2005,2044,2040,2049
2057,2042,2063,2138,2053,2041,2037,2043
2062,2052,2049,2146,2090,2046,2041,2042
2065,2038,2018,2138,2086,2031,2018,2034
2074,2014,1980,2105,2087,2002,2003,2032
2066,2013,1952,2080,2081,1982,2005,2018
2067,2020,1961,2075,2066,2001,2005,2021
2076,2047,1988,2073,2072,2024,2034,2037
2070,2039,1986,2062,2061,2026,2037,2033
2045,2003,1967,2031,2043,2009,2018,2020
2000,1990,1967,2016,2032,1963,2021,2016
1990,2017,2003,2015,2051,1971,2032,2032
2021,2062,2046,2026,2078,1997,2039,2046
2050,2077,2066,2023,2083,2011,2029,2043
2049,2066,2066,2014,2060,2016,2042,2044
2047,2064,2079,2018,2062,2029,2042,2050
2054,2075,2112,2038,2064,2062,2052,2055
2065,2094,2130,2040,2063,2088,2055,2066
2066,2097,2135,2048,2072,2104,2061,2069
2063,2094,2124,2045,2060,2088,2073,2076
2059,2090,2116,2052,2058,2078,2064,2075
2060,2086,2105,2048,2038,2066,2057,2077
2055,2079,2097,2045,2050,2068,2040,2079
2059,2078,2094,2051,2079,2085,2062,2084
2054,2072,2077,2037,2074,2083,2046,2086
2056,2054,2054,2022,2038,2072,2052,2081
2051,2052,2045,2024,2068,2072,2031,2086
2063,2057,2048,2028,2103,2073,2056,2092
2061,2055,2045,2028,2094,2038,2045,2082
2053,2054,2043,2034,2086,2007,2017,2061
2051,2051,2051,2037,2063,2017,2044,2044
2050,2043,2040,2038,2048,2025,2025,2042
2055,2045,2049,2050,2066,2050,2046,2035
2053,2042,2057,2064,2052,2065,2054,2049
2054,2045,2064,2065,2002,2090,2081,2054
2048,2046,2062,2075,2054,2097,2090,2055
2051,2053,2064,2087,2090,2080,2085,2050
2055,2055,2061,2083,2088,2054,2084,2046
2060,2044,2060,2080,2096,2046,2081,2042
2053,2042,2059,2070,2129,2040,2084,2039
2047,2039,2047,2063,2120,2013,2077,2040
2051,2028,2037,2045,2064,1991,2074,2031
2052,2038,2042,2035,2020,1968,2064,2043
2057,2062,2062,2043,2047,1968,2078,2058
2069,2076,2071,2061,2069,1994,2088,2048
2064,2072,2065,2065,2100,2025,2065,2047
2069,2064,2061,2070,2117,2045,2051,2041
2074,2075,2063,2070,2096,2057,2036,2050
2078,2073,2060,2050,1988,2074,2030,2052
2068,2065,2050,2028,1906,2075,2032,2053
2057,2057,2046,2035,1937,2063,2053,2049
2059,2049,2049,2055,1977,2058,2053,2050
2058,2051,2052,2077,2024,2059,2047,2063
2055,2045,2048,2094,2081,2066,2034,2078
2074,2050,2060,2094,2085,2072,2056,2086
2091,2077,2076,2097,2068,2067,2059,2091
2095,2083,2074,2077,2043,2037,2044,2083
2073,2043,2046,2039,1990,1999,2035,2062
2053,2023,2040,2038,2014,2007,2025,2062
2047,2011,2039,2060,2044,2030,2037,2075
2064,2033,2045,2068,2051,2042,2024,2080
2071,2041,2044,2076,2033,2042,2035,2075
2060,2031,2031,2068,2034,2032,2022,2076
2066,2037,2022,2055,2017,2023,2032,2083
2074,2037,2016,2051,2008,2026,2045,2066
2049,2033,2010,2049,2001,2020,2024,2010
2018,2037,2005,2044,2005,2020,2005,1985
2014,2056,2012,2045,2031,2028,2043,2013
2052,2038,2006,2038,2050,2024,2032,2023
2054,2033,2015,2050,2081,2034,2037,2033
2052,2048,2044,2057,2097,2036,2035,2044
2054,2062,2056,2052,2053,2049,2052,2051
2069,2075,2082,2071,2033,2079,2082,2064
2084,2087,2101,2070,2042,2120,2087,2065
2082,2070,2110,2082,2088,2164,2092,2064
2085,2065,2114,2095,2102,2157,2081,2066
2080,2069,2114,2094,2118,2076,2078,2048
2059,2053,2103,2097,2098,2010,2062,2049
2072,2042,2100,2095,2070,2036,2059,2059
2072,2048,2097,2089,2047,2057,2074,2050
2054,2037,2081,2073,2004,2040,2072,2042
2036,2047,2070,2051,2000,2023,2026,2042
2015,2050,2059,2033,2012,2025,2016,2040
2016,2040,2050,2033,2017,2046,2015,2055
2022,2048,2049,2037,2066,2077,2028,2071
2043,2064,2045,2056,2114,2113,2051,2081
2051,2060,2051,2072,2142,2140,2055,2083
2052,2054,2055,2081,2157,2151,2038,2099
2059,2046,2053,2083,2142,2125,2038,2092
2047,2032,2039,2070,2106,2087,2022,2076
2040,2029,2042,2048,1960,2039,2021,2075
2040,2034,2046,2038,1914,2007,2034,2065
2036,2048,2051,2058,1958,1993,2023,2058
2039,2046,2048,2063,1975,1985,1998,2053
2050,2054,2054,2069,1986,1982,2034,2055
2065,2067,2054,2068,1996,2005,2024,2057
2075,2063,2050,2060,1988,2014,2014,2055
2079,2067,2044,2056,1996,2007,1997,2051
2068,2053,2042,2056,2001,2000,2025,2049
2062,2048,2038,2060,2016,2009,2048,2042
2058,2041,2036,2051,2028,2024,2026,2020
2028,2030,2032,2051,2059,2040,2044,2018
2030,2037,2032,2053,2057,2054,2042,2028
2042,2045,2038,2062,2050,2056,2030,2034
2046,2043,2038,2059,2045,2059,2043,2034
2054,2050,2040,2054,2039,2048,2045,2031
2051,2038,2034,2062,2044,2038,2034,2029
2055,2040,2026,2069,2060,2047,2031,2039
2059,2055,2046,2073,2050,2044,2035,2047
2056,2050,2052,2076,2054,2045,2045,2053
2053,2048,2057,2069,2056,2040,2041,2058
2054,2052,2056,2076,2056,2046,2046,2061
2058,2052,2050,2064,2040,2046,2038,2056
2052,2039,2038,2041,2003,2035,2032,2054
2041,2033,2030,2038,1986,2030,2027,2058
2053,2038,2036,2043,1984,2011,2046,2066
2050,2044,2042,2054,2010,1975,2035,2081
2054,2046,2044,2071,2061,1990,2057,2078
2059,2040,2043,2081,2100,2039,2076,2073
2049,2042,2041,2081,2120,2067,2095,2072
2049,2040,2048,2073,2107,2078,2071,2077
2047,2036,2050,2065,2086,2065,2057,2068
2030,2018,2042,2051,2061,2048,2048,2071
2027,2010,2038,2043,2057,2046,2050,2077
2041,2023,2037,2042,2056,2055,2081,2083
2050,2029,2032,2032,2031,2058,2078,2084
2051,2040,2042,2030,2016,2041,2078,2079
2062,2045,2055,2053,2027,2041,2080,2067
2069,2060,2059,2055,2028,2042,2072,2051
2067,2060,2045,2055,2025,2038,2070,2047
2080,2063,2044,2060,2034,2034,2067,2047
2072,2064,2047,2064,2032,2033,2059,2048
2068,2070,2047,2062,2038,2035,2025,2049
2063,2071,2041,2052,2043,2033,2044,2035
2055,2061,2026,2038,2047,2035,2034,2038
2062,2062,2037,2043,2062,2050,2049,2037
2070,2065,2045,2040,2053,2085,2065,2031
2064,2062,2037,2030,2032,2091,2061,2030
2061,2055,2037,2033,2032,2066,2071,2042
2067,2059,2051,2055,2060,2070,2086,2046
2066,2069,2055,2058,2072,2047,2079,2061
2071,2068,2065,2067,2072,2002,2084,2063
2067,2067,2067,2071,2075,2004,2026,2054
2066,2068,2061,2070,2048,2024,2024,2058
2065,2066,2060,2069,2051,2035,2024,2059
2063,2061,2058,2071,2057,2034,2024,2072
2059,2055,2052,2070,2042,2023,2023,2073
2060,2056,2057,2070,2041,2032,2029,2076
2065,2063,2066,2074,2045,2045,2066,2075
2064,2062,2064,2074,2055,2048,2071,2077
2058,2059,2061,2062,2066,2035,2071,2078
2049,2048,2045,2039,2040,2003,2049,2085
2049,2055,2046,2049,2070,2011,2051,2081
2055,2066,2049,2054,2071,2014,2038,2085
2058,2051,2047,2063,2076,2021,2047,2085
2058,2056,2050,2062,2070,2020,2051,2086
2062,2062,2050,2060,2063,2018,2049,2081
2061,2058,2048,2052,2057,2017,2046,2075
2054,2047,2040,2061,2057,2009,2023,2067
2049,2050,2038,2058,2061,2012,2019,2060
2056,2053,2035,2058,2063,2014,2034,2051
2049,2049,2033,2056,2065,2024,2029,2039
2052,2050,2034,2056,2078,2038,2035,2039
2052,2049,2036,2060,2079,2058,2042,2047
2054,2050,2032,2059,2088,2071,2045,2054
2054,2049,2039,2064,2086,2097,2065,2045
2048,2043,2036,2064,2087,2123,2060,2039
2050,2044,2034,2058,2084,2134,2080,2034
2045,2044,2035,2058,2074,2116,2066,2040
2056,2039,2030,2056,2063,2089,2056,2044
2050,2029,2015,2046,2046,2079,2070,2043
2054,2032,2020,2040,2049,2084,2070,2048
2069,2048,2032,2055,2054,2082,2066,2045
2072,2057,2054,2070,2060,2075,2064,2056
2077,2073,2074,2072,2025,2049,2052,2055
2085,2075,2082,2066,1973,1988,2035,2058
2088,2068,2078,2051,1938,1971,2034,2064
2086,2065,2071,2035,1939,1986,2026,2066
2079,2061,2054,2023,1949,2026,2042,2061
2068,2058,2061,2060,2045,2080,2070,2070
2077,2070,2096,2123,2174,2123,2094,2072
2071,2073,2101,2141,2225,2122,2085,2074
2050,2058,2089,2128,2242,2088,2064,2082
2038,2049,2078,2119,2218,2060,2053,2082
2048,2046,2064,2116,2155,2053,2050,2085
2061,2049,2056,2116,2109,2066,2062,2081
2060,2042,2041,2115,2076,2073,2047,2073
2042,2024,2026,2102,2030,2095,2048,2070
2030,2018,2006,2082,1941,2081,2034,2062
2035,2026,2010,2076,1961,2092,2040,2062
2039,2046,2026,2086,1994,2114,2040,2067
2053,2058,2045,2088,1998,2129,2039,2065
2055,2062,2044,2058,1933,2120,2050,2058
2052,2050,2030,2030,1838,2061,2027,2046
2060,2046,2009,2018,1785,2008,2040,2036
2062,2035,2023,2021,1796,1987,2015,2044
2062,2028,2023,2027,1837,1924,2051,2043
2053,2022,2013,2010,1916,1904,2047,2041
2043,2019,1996,2010,2029,1919,2043,2043
2049,2025,2004,2021,2084,1898,2018,2062
2067,2046,2031,2060,2138,1928,2046,2067
2065,2061,2068,2079,2172,1959,2058,2073
2060,2070,2073,2080,2191,2004,2068,2058
2046,2054,2045,2056,2170,2035,2068,2039
2032,2038,2038,2048,2124,2047,2053,2031
2037,2042,2028,2031,2087,2068,2058,2038
2044,2038,2013,2008,2070,2097,2038,2037
2041,2040,2020,2006,2069,2104,2044,2037
2052,2063,2040,2021,2080,2106,2043,2043
2060,2068,2040,2026,2084,2124,2057,2056
2063,2069,2036,2037,2088,2159,2074,2062
2067,2054,2022,2021,2075,2174,2081,2054
2065,2038,2021,2015,2072,2178,2059,2055
2066,2041,2028,2030,2098,2166,2060,2069
2064,2045,2038,2046,2119,2062,2048,2075
2066,2042,2030,2050,2125,1965,2028,2076
2062,2047,2032,2054,2129,1966,2015,2075
2050,2049,2042,2067,2137,1992,2025,2085
2043,2057,2052,2078,2166,2004,2052,2080
2044,2062,2060,2078,2152,2031,2037,2082
2046,2057,2050,2078,2115,2047,2030,2081
2048,2049,2036,2062,2078,2058,2045,2087
2049,2049,2035,2044,1992,2059,2042,2071
2044,2040,2033,2046,2020,2064,2056,2071
2047,2042,2028,2080,2127,2085,2065,2071
2045,2037,2029,2081,2156,2088,2037,2065
2047,2037,2034,2081,2158,2064,2049,2063
2052,2034,2042,2067,2117,2036,2033,2056
2058,2044,2051,2059,2071,2028,2037,2047
2067,2052,2049,2047,2024,2021,2040,2045
2063,2058,2055,2048,2035,2036,2034,2042
2073,2060,2051,2038,1997,2043,2040,2045
2074,2060,2055,2025,1923,2066,2064,2051
2079,2056,2052,2000,1904,2074,2061,2055
2080,2052,2043,2003,2004,2085,2065,2057
2074,2048,2040,2018,2068,2065,2037,2049
2066,2051,2037,2029,2056,2018,2018,2034
2057,2035,2038,2035,2038,2002,2019,2024
2039,2032,2037,2027,1998,1989,2023,2030
2047,2035,2046,2020,2000,2028,2019,2035
2051,2049,2057,2039,2017,2094,2042,2039
2060,2065,2075,2045,2015,2140,2059,2050
2062,2066,2072,2048,2021,2146,2059,2049
2065,2066,2064,2042,2029,2092,2074,2055
2046,2053,2054,2035,2026,2012,2047,2066
2044,2049,2044,2038,1994,2011,2064,2075
2062,2060,2050,2051,2017,2043,2064,2085
2073,2071,2061,2067,2048,2050,2056,2078
2077,2075,2062,2061,2021,2031,2056,2069
2067,2064,2054,2053,2001,2014,2040,2077
2058,2050,2043,2046,1994,2019,2064,2082
2057,2050,2047,2044,2006,2028,2060,2069
2053,2056,2050,2042,2027,2019,2048,2081
2050,2045,2036,2028,2014,1992,2038,2073
2043,2028,2029,2016,2016,1998,2053,2070
2038,2028,2021,2031,2045,2017,2051,2076
2048,2023,2025,2036,2049,2024,2049,2069
2048,2033,2033,2035,2028,2042,2047,2062
2036,2020,2031,2023,1997,2053,2040,2037
2023,2015,2026,2013,1995,2064,2047,2022
2018,2020,2020,2012,2006,2089,2054,2033
2039,2035,2037,2020,2018,2098,2068,2041
2065,2047,2047,2038,2025,2080,2055,2050
2079,2056,2055,2052,2038,2060,2052,2062
2082,2062,2048,2051,2057,2062,2055,2053
2077,2046,2044,2050,2075,2057,2038,2038
2057,2042,2046,2048,2096,2052,2044,2022
2038,2036,2042,2059,2157,2054,2032,2036
2052,2038,2049,2073,2178,2068,2037,2038
2058,2036,2046,2061,2144,2115,2040,2027
2042,2027,2033,2043,2114,2127,2034,2022
2036,2028,2032,2047,2096,2142,2040,2026
2050,2038,2042,2041,2132,2135,2022,2047
2073,2042,2050,2046,2201,2061,2031,2071
2081,2064,2063,2079,2264,1981,2064,2101
2098,2073,2064,2087,2209,1990,2053,2100
2092,2092,2078,2088,2191,2045,2051,2079
2076,2098,2086,2086,2204,2031,2041,2071
2068,2085,2072,2036,2005,1988,2041,2080
2074,2074,2049,1978,1793,1949,2012,2067
2070,2058,2028,1954,1805,1941,1998,2056
2068,2048,2021,1984,1889,1974,2029,2053
2058,2044,2023,2024,1911,2014,2062,2069
2055,2042,2036,2048,1997,2046,2056,2070
2051,2033,2025,2050,2046,2045,2062,2066
2042,2028,2025,2046,2069,2045,2074,2082
2048,2033,2030,2043,2065,2030,2035,2081
2038,2033,2026,2037,2039,2018,2022,2068
2033,2047,2030,2038,2023,2035,2043,2070
2055,2064,2044,2049,2030,2058,2060,2081
2060,2060,2039,2050,2041,2063,2052,2080
2070,2056,2027,2041,2039,2060,2037,2071
2063,2048,2018,2037,2026,2043,2041,2053
2063,2047,2018,2037,2024,2027,2006,2042
2051,2052,2027,2042,2028,2039,2008,2028
2042,2047,2028,2041,2033,2034,2018,2030
2046,2047,2024,2042,2028,2039,2030,2035
2056,2047,2034,2041,2034,2036,2034,2043
2054,2053,2044,2055,2044,2041,2020,2043
2058,2056,2042,2055,2039,2032,2044,2043
2060,2060,2050,2053,2035,2035,2051,2038
2060,2059,2059,2065,2034,2036,2032,2022
2050,2060,2065,2059,2032,2039,2035,2026
2056,2053,2055,2053,2011,2026,2055,2039
2058,2029,2043,2044,2015,2027,2040,2051
2058,2034,2046,2053,2026,2028,2031,2051
2064,2044,2049,2051,2039,2035,2036,2032
2046,2049,2051,2058,2045,2039,2067,2026
2046,2048,2057,2062,2052,2043,2057,2043
2049,2041,2055,2062,2069,2039,2060,2047
2045,2042,2049,2060,2079,2037,2046,2046
2045,2044,2054,2064,2065,2039,2072,2058
2052,2043,2053,2064,2053,2033,2056,2059
2056,2047,2056,2064,2047,2022,2064,2072
2063,2050,2055,2058,2016,2020,2070,2066
2053,2045,2055,2045,1989,2015,2044,2051
2050,2036,2044,2028,1956,1999,2036,2045
2042,2021,2038,2016,1939,1994,2015,2036
2040,2029,2045,2022,1958,1981,2015,2040
2042,2042,2052,2040,2004,1961,2007,2056
2060,2050,2055,2042,2053,1985,2030,2081
2065,2057,2060,2067,2090,2035,2040,2081
2070,2055,2065,2082,2141,2104,2063,2083
2066,2051,2059,2070,2157,2143,2055,2078
2047,2049,2049,2053,2140,2133,2060,2060
2019,2040,2027,2033,2105,2104,2082,2069
2036,2044,2029,2030,2085,2078,2080,2078
2052,2058,2031,2039,2078,2075,2061,2070
2060,2049,2030,2045,2060,2065,2062,2054
2062,2049,2047,2052,2036,2051,2041,2043
2045,2046,2055,2039,2012,2035,2024,2032
2053,2050,2056,2031,1981,2041,2034,2038
2062,2050,2051,2025,1979,2059,2047,2032
2078,2050,2048,2044,2020,2075,2040,2040
2092,2049,2044,2065,2036,2072,2020,2030
2087,2047,2041,2067,2055,2081,2039,2030
2091,2052,2047,2078,2075,2100,2055,2030
2083,2045,2038,2077,2090,2074,2040,2022
2063,2047,2038,2068,2076,2038,2032,2030
2054,2049,2049,2055,2026,2022,2040,2024
2033,2049,2054,2050,1986,2011,2067,2027
2048,2058,2064,2054,2022,2020,2067,2034
2051,2053,2058,2047,2050,2026,2051,2043
2054,2054,2050,2041,2041,2046,2046,2040
2049,2041,2038,2025,2048,2048,2037,2046
2042,2037,2039,2018,2063,2051,2050,2049
2040,2042,2042,2015,2087,2062,2059,2062
2055,2048,2052,2026,2102,2076,2069,2062
2063,2051,2058,2033,2103,2083,2043,2053
2066,2043,2048,2032,2085,2086,2034,2060
2056,2033,2041,2030,2082,2108,2050,2068
2054,2041,2043,2037,2074,2109,2048,2075
2060,2042,2035,2041,2056,2050,2028,2070
2050,2029,2024,2031,2042,2018,2023,2066
2055,2020,2012,2023,2035,2017,2023,2065
2063,2017,2022,2032,2033,2023,2044,2078
2073,2035,2038,2040,2039,2040,2045,2070
2068,2031,2030,2032,2029,2046,2043,2044
2046,2023,2027,2011,1987,2058,2036,2037
2053,2032,2032,2013,1959,2051,2034,2028
2051,2040,2041,2024,1954,2051,2010,2029
2041,2056,2057,2035,1958,2028,2016,2033
2043,2060,2058,2050,2003,1990,2026,2033
2052,2049,2059,2063,2078,2019,2038,2035
2055,2038,2051,2060,2105,2068,2065,2031
2044,2041,2056,2064,2113,2100,2084,2037
2052,2046,2069,2060,2096,2107,2084,2041
2057,2044,2055,2039,2066,2089,2081,2034
2052,2034,2053,2038,2057,2047,2062,2027
2046,2048,2072,2047,2056,2023,2041,2026
2049,2063,2083,2049,2052,2020,2028,2027
2047,2048,2076,2053,2052,2029,2041,2028
2056,2045,2066,2055,2063,2063,2058,2031
2060,2043,2062,2054,2072,2096,2050,2035
2063,2053,2053,2061,2073,2111,2068,2032
2056,2056,2060,2054,2069,2105,2045,2037
2056,2057,2062,2051,2056,2092,2054,2038
2058,2058,2055,2046,2057,2102,2060,2048
2066,2058,2047,2035,2018,2091,2067,2052
2073,2057,2037,2034,2022,2092,2060,2053
2069,2054,2025,2037,2060,2093,2066,2066
2075,2051,2023,2049,2073,2081,2075,2076
2067,2039,2028,2061,2073,2062,2060,2066
2054,2017,2024,2044,2062,2028,2056,2060
2033,2004,2021,2034,2036,2000,2054,2060
2043,2026,2045,2050,2040,1978,2047,2071
2051,2060,2080,2064,2046,1977,2036,2071
2052,2059,2087,2058,2069,1982,2028,2085
2056,2057,2089,2064,2077,1996,2008,2073
2064,2060,2089,2050,2010,1998,2031,2074
2068,2065,2090,2031,1952,2009,2019,2064
2059,2075,2094,2037,1965,2015,2025,2056
2051,2067,2086,2045,1980,2022,2001,2042
2047,2062,2073,2049,2013,2031,2036,2036
2034,2054,2060,2056,2056,2046,2027,2025
2034,2046,2050,2061,2092,2050,2057,2022
2040,2041,2039,2057,2081,2054,2061,2027
2038,2047,2039,2040,2059,2061,2051,2024
2043,2048,2035,2034,2065,2068,2055,2034
2053,2048,2035,2028,2061,2064,2065,2029
2050,2039,2033,2016,2042,2060,2052,2025
2045,2037,2034,2001,2031,2059,2064,2023
2045,2041,2042,2003,2041,2058,2068,2031
2052,2048,2052,2005,2044,2057,2068,2045
2054,2040,2039,1999,2037,2060,2069,2039
2061,2040,2032,2003,2039,2056,2082,2046
2064,2052,2043,2019,2039,2059,2091,2049
2063,2050,2049,2024,2034,2042,2087,2043
2052,2044,2050,2030,2026,2034,2084,2038
2042,2038,2039,2029,2021,2032,2042,2040
2035,2020,2025,2020,2020,2033,2067,2043
2040,2019,2024,2023,2032,2044,2072,2046
2048,2036,2034,2030,2042,2062,2068,2046
2054,2024,2028,2032,2047,2079,2051,2046
2041,2023,2017,2029,2051,2082,2042,2034
2021,2019,2010,2018,2042,2086,2030,2041
2029,2017,2012,2022,2048,2100,2047,2061
2048,2028,2025,2036,2056,2120,2061,2063
2051,2050,2034,2034,2059,2083,2054,2064
2057,2059,2047,2035,2055,2032,2057,2072
2064,2060,2043,2032,2051,2023,2044,2073
2054,2050,2031,2023,2042,2026,2038,2066
2053,2039,2032,2025,2034,2033,2043,2069
2058,2048,2039,2029,2029,2028,2042,2062
2055,2046,2035,2026,2026,2018,2040,2066
2054,2044,2034,2024,2027,2006,2039,2061
2054,2047,2038,2024,2032,2009,2052,2054
2051,2045,2046,2031,2042,2026,2038,2049
2058,2043,2054,2041,2050,2038,2038,2046
2061,2049,2054,2038,2046,2053,2052,2052
2059,2043,2049,2029,2042,2061,2033,2033
2058,2050,2046,2032,2039,2073,2036,2021
2042,2049,2037,2028,2036,2094,2057,2026
2044,2042,2038,2026,2039,2105,2057,2029
2052,2048,2043,2034,2045,2117,2046,2027
2049,2052,2040,2040,2056,2139,2063,2035
2055,2047,2036,2039,2063,2165,2073,2035
2056,2035,2026,2033,2056,2136,2051,2028
2041,2024,2019,2030,2042,2034,2039,2007
2025,2023,2032,2034,2035,1965,2033,2011
2030,2046,2056,2049,2046,1970,2045,2018
2043,2055,2068,2053,2078,1989,2047,2034
2052,2059,2083,2056,2120,2026,2063,2037
2065,2065,2086,2064,2156,2057,2089,2051
2080,2067,2086,2058,2180,2079,2070,2052
2079,2077,2080,2055,2205,2084,2065,2051
2063,2066,2078,2058,2225,2106,2074,2062
2059,2061,2074,2067,2211,2110,2078,2069
2056,2056,2075,2056,2157,2117,2088,2076
2052,2063,2092,2045,2028,2103,2089,2075
2059,2072,2088,2037,1922,2043,2068,2060
2038,2065,2074,2013,1888,1972,2051,2063
2042,2048,2054,1997,1890,1941,2034,2065
2043,2049,2048,2006,1881,1948,2048,2075
2047,2044,2045,2016,1870,1981,2061,2074
2050,2056,2055,2041,1960,2009,2062,2078
2059,2065,2070,2063,2057,2036,2072,2088
2068,2068,2079,2071,2108,2040,2074,2082
2066,2060,2080,2064,2096,2042,2075,2073
2066,2053,2072,2056,2057,2035,2079,2069
2054,2051,2062,2050,2044,2044,2063,2049
2045,2052,2057,2047,2033,2052,2061,2032
2033,2041,2050,2045,2038,2068,2073,2020
2039,2042,2052,2050,2049,2082,2068,2026
2047,2048,2058,2044,2058,2083,2085,2036
2062,2058,2059,2037,2052,2088,2087,2049
2067,2059,2047,2026,1993,2070,2076,2032
2063,2055,2044,2014,1940,2038,2054,2016
2056,2047,2046,2003,1959,2030,2048,2008
2043,2033,2036,2014,1997,2035,2051,2007
2039,2034,2035,2018,2012,2031,2034,2011
2033,2026,2032,2027,2036,2025,2039,2014
2026,2025,2024,2039,2078,2040,2053,2021
2038,2040,2036,2071,2096,2056,2053,2025
2044,2036,2038,2076,2088,2063,2054,2023
2047,2038,2031,2068,2067,2058,2059,2030
2049,2038,2036,2060,2072,2070,2052,2038
2048,2048,2051,2075,2099,2075,2048,2048
2050,2054,2057,2088,2106,2072,2066,2054
2058,2054,2050,2083,2098,2086,2068,2055
2049,2041,2041,2056,2022,2114,2065,2049
2044,2038,2032,2017,1912,2114,2040,2040
2042,2034,2022,2002,1898,2123,2037,2052
2039,2027,2024,2019,1983,2134,2067,2071
2046,2035,2027,2047,2096,2114,2075,2080
2046,2038,2039,2066,2151,2062,2076,2086
2055,2047,2051,2077,2178,2056,2067,2077
2057,2051,2050,2082,2192,2038,2043,2062
2044,2031,2028,2042,2096,1977,2034,2059
2036,2014,2007,2008,1957,1961,2043,2047
2037,2011,2003,1996,1866,1988,2039,2045
2030,2020,2018,1993,1820,1978,2041,2036
2036,2028,2030,1990,1804,1989,2046,2026
2043,2043,2052,1993,1822,2004,2042,2016
2049,2051,2068,1991,1851,1967,2055,2029
2058,2056,2070,2025,1988,1969,2063,2046
2076,2064,2076,2075,2098,2024,2082,2062
2080,2066,2066,2094,2177,2075,2089,2053
2073,2050,2041,2073,2155,2083,2076,2033
2073,2039,2030,2039,2038,2075,2053,2013
2048,2028,2030,2009,2006,2076,2052,2006
2033,2031,2034,1994,2046,2066,2049,2008
2016,2027,2044,2002,2037,2054,2049,2010
2008,2034,2054,2012,2007,2035,2054,2026
2036,2034,2064,2026,2005,1961,2056,2039
2041,2042,2069,2032,2025,1932,2064,2039
2049,2050,2070,2044,2066,1972,2078,2040
2053,2047,2078,2056,2086,2014,2080,2041
2059,2050,2085,2069,2109,2045,2048,2044
2058,2039,2075,2064,2123,2080,2064,2052
2053,2030,2066,2066,2124,2080,2046,2053
2051,2028,2063,2052,2111,2058,2034,2053
2053,2030,2062,2054,2094,2032,2031,2056
2040,2040,2080,2060,2080,2042,2023,2055
2043,2042,2080,2061,2082,2025,2036,2059
2042,2039,2071,2054,2061,2002,2008,2060
2040,2046,2062,2057,2067,2007,2031,2064
2057,2044,2064,2059,2076,2027,2014,2076
2056,2038,2052,2060,2082,2056,2049,2075
2055,2038,2051,2053,2080,2092,2060,2073
2043,2031,2034,2045,2065,2082,2033,2054
2038,2015,2033,2039,2049,2058,2016,2044
2039,2025,2046,2060,2056,2060,2031,2049
2048,2051,2079,2076,2068,2083,2048,2052
2044,2054,2077,2081,2069,2085,2050,2056
2033,2058,2074,2079,2054,2077,2064,2061
2041,2055,2068,2069,2031,2065,2060,2062
2043,2060,2059,2068,2021,2055,2057,2051
2044,2062,2054,2060,2026,2047,2049,2055
2044,2071,2052,2057,2021,2042,2036,2043
2053,2069,2058,2054,1995,2050,2039,2035
2045,2061,2051,2037,1980,2060,2034,2037
2045,2057,2046,2042,1981,2092,2064,2038
2045,2050,2044,2047,1992,2105,2057,2032
2041,2041,2043,2041,2014,2071,2032,2020
2026,2032,2047,2050,2052,2023,2034,2018
2035,2038,2056,2050,2072,2021,2033,2026
2047,2052,2073,2055,2074,2043,2035,2031
2059,2047,2081,2056,2083,2059,2043,2034
2065,2052,2088,2059,2070,2045,2048,2032
2068,2065,2110,2061,2047,2025,2039,2029
2062,2058,2107,2061,2012,2032,2039,2026
2053,2060,2115,2077,2023,2036,2058,2024
2045,2063,2118,2084,2033,2046,2047,2028
2038,2061,2113,2078,2035,2049,2019,2030
2037,2058,2106,2075,2028,2053,2019,2044
2047,2065,2122,2077,2013,2038,2038,2051
2052,2060,2110,2078,2022,2027,2042,2050
2048,2050,2109,2079,2035,2034,2040,2047
2040,2045,2109,2081,2067,2061,2045,2054
2036,2046,2117,2091,2089,2086,2034,2064
2036,2052,2115,2099,2095,2093,2042,2065
2042,2051,2100,2101,2091,2093,2058,2062
2040,2050,2085,2100,2070,2090,2078,2056
2041,2049,2076,2095,2062,2076,2027,2055
2038,2042,2056,2085,2060,2064,2050,2062
2038,2040,2042,2072,2048,2056,2049,2062
2047,2050,2022,2051,2039,2051,2046,2060
2045,2046,2013,2034,2029,2038,2028,2061
2043,2041,2009,2012,2018,2025,2039,2056
2045,2040,2012,1995,2017,2039,2038,2046
2050,2049,2010,1992,2023,2057,2058,2042
2052,2045,2000,1982,2025,2068,2054,2027
2046,2044,2007,1993,2033,2070,2052,2033
2052,2044,2006,1988,2024,2065,2053,2032
2043,2034,1993,1972,2013,2041,2050,2030
2032,2028,1982,1966,2030,2043,2043,2026
2031,2026,1984,1979,2066,2054,2044,2014
2024,2038,1999,2006,2073,2043,2033,2018
2040,2050,2026,2021,2064,2048,2051,2023
2052,2056,2031,2021,2061,2053,2036,2034
2063,2051,2018,2012,2042,2043,2026,2034
2062,2049,2016,2013,2042,2042,2032,2025
2057,2052,2020,2023,2055,2055,2049,2036
2063,2048,2017,2035,2060,2056,2061,2029
2049,2038,2025,2030,2056,2051,2049,2026
2041,2034,2024,2025,2055,2049,2030,2027
2034,2028,2025,2028,2049,2047,2029,2042
2048,2023,2030,2032,2048,2050,2046,2062
2068,2030,2035,2040,2054,2049,2061,2088
2086,2040,2036,2036,2056,2047,2059,2075
2070,2035,2027,2034,2055,2051,2050,2059
2046,2025,2016,2027,2053,2041,2048,2038
2011,2006,2012,2022,2045,2039,2044,2023
1996,2007,2018,2022,2039,2031,2043,2050
2013,2008,2038,2030,2038,2039,2052,2062
2043,2048,2063,2046,2053,2040,2053,2073
2068,2073,2079,2053,2059,2049,2056,2064
2070,2074,2076,2045,2048,2044,2054,2065
2063,2058,2054,2039,2042,2036,2058,2065
2053,2059,2056,2051,2036,2045,2057,2057
2046,2058,2055,2052,2045,2058,2065,2062
2045,2051,2053,2050,2046,2049,2065,2055
2049,2040,2053,2046,2045,2045,2060,2046
2044,2034,2044,2049,2045,2033,2055,2029
