CH1,CH2,CH3,CH4,CH5,CH6,CH7,CH8
2014,2043,2080,2054,2084,2042,2035,2063
2023,2049,2068,2046,2053,2038,2020,2069
2031,2041,2062,2046,2037,2059,2026,2070
2041,2045,2065,2047,2019,2054,2032,2068
2046,2048,2064,2058,2017,2047,2023,2072
2047,2048,2066,2060,2004,2042,2018,2061
2045,2042,2060,2064,1998,2021,2033,2062
2046,2045,2066,2086,2038,2021,2038,2050
2048,2042,2052,2090,2082,2059,2039,2046
2048,2030,2037,2085,2105,2089,2064,2054
2059,2032,2036,2079,2089,2124,2066,2049
2062,2034,2018,2069,2052,2097,2052,2052
2063,2028,2012,2057,2011,2045,2027,2037
2053,2018,2002,2038,2004,2016,2014,2012
2026,2007,1989,2016,1989,1987,2008,2005
2020,2021,1996,2024,2019,2001,2034,2014
2034,2039,2021,2070,2149,2054,2072,2017
2042,2041,2015,2081,2193,2083,2052,2006
2028,2037,2002,2065,2211,2095,2049,2002
2029,2040,2002,2047,2183,2111,2073,2009
2042,2041,2005,2021,2066,2084,2047,2021
2031,2032,2003,1979,1917,2053,2049,2017
2028,2035,2013,1977,1941,2032,2043,2036
2043,2047,2048,1999,2033,2030,2042,2034
2042,2049,2050,2010,2057,2040,2045,2024
2032,2047,2041,2009,2077,2067,2036,2027
2048,2046,2051,2019,2120,2082,2042,2041
2053,2046,2067,2002,2091,2076,2042,2044
2054,2045,2081,1992,2021,2075,2047,2047
2042,2036,2080,1991,1904,2038,2030,2045
2023,2046,2085,2011,1887,1982,2029,2055
2029,2055,2104,2039,1972,1996,2052,2081
2034,2058,2104,2058,2077,1993,2061,2084
2040,2068,2103,2061,2123,2010,2056,2091
2059,2077,2098,2066,2112,2029,2038,2105
2071,2081,2094,2057,2085,2047,2063,2096
2065,2078,2081,2043,2064,2042,2063,2077
2060,2069,2081,2048,2053,2040,2024,2072
2051,2061,2072,2041,2052,2040,2042,2067
2050,2054,2069,2037,2051,2041,2040,2057
2050,2052,2064,2039,2050,2042,2046,2045
2051,2048,2063,2042,2041,2043,2052,2046
2046,2046,2058,2040,2056,2052,2032,2041
2041,2052,2062,2047,2066,2066,2059,2035
2044,2051,2070,2052,2065,2069,2038,2036
2047,2044,2070,2049,2066,2065,2044,2033
2041,2045,2065,2046,2052,2076,2034,2021
2038,2035,2051,2047,2050,2084,2053,2024
2043,2034,2050,2057,2060,2081,2055,2023
2049,2037,2047,2058,2060,2066,2042,2018
2060,2041,2050,2063,2056,2034,2054,2015
2070,2065,2064,2079,2071,2027,2041,2012
2055,2068,2057,2072,2077,2035,2043,2012
2045,2053,2046,2071,2073,2048,2053,2018
2043,2051,2042,2064,2069,2050,2045,2027
2037,2042,2037,2041,2034,2052,2041,2025
2041,2044,2037,2027,1996,2060,2060,2034
2043,2044,2034,2031,2040,2061,2049,2042
2040,2041,2035,2030,2052,2051,2067,2055
2032,2036,2029,2026,2046,2042,2059,2052
2029,2034,2024,2029,2048,2043,2056,2050
2036,2041,2044,2038,2045,2044,2059,2059
2048,2051,2056,2046,2049,2036,2043,2069
2045,2042,2053,2041,2042,2035,2042,2075
2039,2040,2058,2040,2046,2033,2047,2082
2040,2043,2065,2047,2045,2036,2030,2082
2050,2051,2069,2055,2051,2042,2052,2088
2069,2065,2073,2055,2050,2055,2064,2089
2066,2049,2054,2041,2041,2044,2040,2078
2057,2040,2039,2040,2034,2036,2044,2070
2050,2045,2032,2038,2041,2048,2051,2069
2056,2061,2044,2056,2044,2059,2054,2061
2060,2068,2066,2073,2056,2058,2068,2055
2060,2064,2073,2086,2052,2057,2045,2042
2056,2061,2076,2092,2049,2057,2049,2035
2067,2067,2063,2093,2052,2056,2047,2034
2071,2069,2060,2090,2056,2052,2039,2036
2061,2058,2054,2083,2048,2050,2026,2032
2052,2043,2043,2079,2046,2047,2034,2026
2057,2055,2052,2079,2041,2041,2019,2020
2060,2067,2062,2076,2046,2050,2036,2000
2047,2044,2051,2073,2042,2045,2041,1995
2050,2041,2046,2056,2035,2037,2031,2001
2040,2039,2040,2044,2029,2024,2037,1997
2022,2017,2024,2034,2003,2024,2041,2000
2022,2030,2040,2031,2002,2039,2030,1999
2035,2054,2054,2033,1996,2047,2050,2029
2060,2078,2067,2033,2011,2056,2058,2047
2078,2076,2070,2020,2011,2057,2060,2051
2069,2071,2061,2012,2014,2056,2052,2056
2074,2069,2063,2018,2017,2058,2038,2053
2060,2060,2057,2022,2030,2047,2036,2056
2052,2049,2048,2033,2076,2050,2044,2057
2046,2035,2040,2042,2122,2054,2062,2071
2048,2024,2029,2047,2118,2045,2063,2084
2043,2027,2025,2051,2061,2028,2041,2071
2041,2041,2030,2047,1978,2018,2036,2067
2042,2046,2036,2055,1965,2007,2041,2074
2045,2051,2035,2066,1989,2018,2045,2088
2050,2065,2038,2071,1979,2037,2066,2084
2051,2074,2039,2080,1994,2054,2067,2081
2054,2067,2051,2085,2001,2057,2088,2081
2070,2061,2046,2086,2016,2053,2084,2083
2087,2059,2045,2086,2034,2035,2060,2076
2088,2052,2041,2086,2065,2032,2052,2062
2074,2045,2035,2065,1984,2026,2050,2052
2077,2038,2026,2045,1923,2038,2024,2027
2061,2024,2024,2039,1995,2044,2044,2007
2043,2026,2025,2037,2074,2040,2048,2013
2018,2031,2042,2054,2120,2029,2049,2020
2005,2036,2048,2056,2084,2012,2030,2023
2015,2047,2057,2044,2006,1997,2033,2017
2020,2041,2052,2024,1977,2008,2041,2013
2034,2054,2056,2036,2017,2039,2029,2010
2047,2058,2048,2033,2077,2074,2056,2018
2060,2061,2048,2045,2124,2098,2063,2029
2069,2068,2054,2040,2132,2097,2069,2026
2067,2072,2072,2033,2152,2088,2049,2019
2067,2079,2081,2028,2195,2101,2067,2023
2064,2067,2069,2021,2187,2090,2071,2030
2060,2064,2053,2017,2176,2078,2061,2035
2059,2061,2047,2039,2224,2091,2079,2037
2064,2067,2051,2067,2264,2110,2072,2049
2064,2063,2060,2088,2260,2106,2088,2053
2057,2060,2055,2083,2209,2096,2094,2071
2060,2062,2052,2061,2077,2062,2092,2084
2064,2057,2050,2047,1988,2060,2068,2089
2066,2052,2039,2043,1993,2060,2064,2100
2066,2052,2036,2019,1877,2049,2062,2101
2065,2048,2030,2005,1827,2029,2064,2092
2040,2041,2023,2008,1980,2039,2066,2082
2033,2042,2023,2031,2087,2056,2068,2084
2045,2054,2043,2052,2091,2059,2061,2074
2049,2056,2048,2045,2049,2038,2053,2068
2053,2050,2054,2027,2024,2018,2038,2062
2048,2048,2056,2031,2081,2057,2054,2061
2056,2065,2073,2045,2116,2075,2056,2053
2045,2059,2074,2024,1988,2014,2040,2036
2036,2041,2053,1989,1930,1992,2028,2026
2046,2048,2059,2011,1976,2022,2022,2034
2047,2059,2071,2040,2011,2022,2039,2035
2047,2059,2077,2043,2039,2025,2025,2018
2030,2057,2074,2045,2042,2024,2040,2011
2039,2051,2066,2046,2045,2031,2066,2024
2049,2044,2057,2051,2044,2042,2055,2023
2045,2028,2061,2049,2050,2035,2046,2019
2044,2029,2067,2063,2054,2039,2036,2017
2059,2031,2073,2074,2042,2045,2057,2020
2072,2047,2092,2084,2046,2042,2061,2026
2067,2048,2087,2093,2051,2035,2048,2025
2053,2036,2073,2086,2044,2027,2035,2016
2044,2028,2069,2094,2055,2037,2044,2022
2048,2048,2075,2106,2069,2050,2064,2029
2052,2055,2083,2110,2070,2050,2057,2038
2066,2063,2082,2110,2070,2046,2036,2033
2060,2065,2073,2111,2078,2040,2050,2036
2043,2061,2068,2104,2117,2047,2056,2042
2040,2059,2066,2090,2135,2067,2091,2061
2045,2063,2045,2064,2106,2065,2044,2066
2043,2047,2014,2034,2062,2047,2058,2075
2045,2042,2000,2007,2032,2045,2059,2081
2052,2043,1995,1997,2034,2050,2060,2086
2034,2037,1984,1985,2039,2058,2064,2086
2048,2036,1982,1965,2026,2062,2039,2090
2055,2037,1973,1963,2019,2068,2054,2077
2058,2040,1971,1973,2016,2068,2043,2074
2059,2042,1980,1980,2011,2061,2063,2062
2065,2044,1990,1983,2005,2053,2045,2062
2062,2042,1996,1994,2005,2060,2066,2050
2063,2040,2006,1997,2010,2024,2055,2041
2056,2036,2009,2014,2026,1988,2044,2030
2061,2030,2016,2023,2030,1992,2036,2033
2058,2033,2022,2033,2037,2013,2039,2038
2058,2040,2036,2037,2046,2031,2020,2020
2053,2043,2040,2038,2037,2029,2025,2015
2043,2037,2039,2042,2045,2033,2027,1990
2035,2046,2060,2058,2056,2045,2016,1984
2046,2054,2067,2062,2056,2041,2028,1992
2040,2045,2070,2062,2055,2045,2033,1988
2037,2041,2064,2068,2052,2047,2033,1992
2048,2041,2061,2064,2047,2039,2038,2001
2045,2050,2054,2054,2046,2044,2043,2000
2039,2040,2036,2049,2042,2039,2040,1999
2035,2033,2025,2036,2035,2039,2036,2006
2033,2023,2025,2033,2035,2042,2033,2013
2034,2030,2023,2036,2037,2040,2032,2022
2046,2035,2028,2029,2039,2047,2034,2029
2051,2036,2026,2041,2049,2047,2046,2032
2047,2047,2039,2048,2046,2051,2061,2043
2056,2053,2044,2053,2051,2047,2063,2058
2055,2045,2051,2050,2047,2052,2055,2064
2053,2041,2054,2054,2052,2050,2035,2067
2048,2044,2052,2051,2051,2049,2049,2067
2050,2039,2052,2053,2070,2041,2052,2066
2046,2024,2047,2054,2071,2039,2029,2070
2049,2019,2047,2046,2068,2040,2040,2073
2060,2035,2057,2052,2055,2042,2041,2082
2067,2032,2046,2045,2048,2039,2027,2069
2065,2037,2047,2052,2040,2045,2044,2050
2048,2039,2047,2043,2037,2040,2047,2040
2037,2041,2049,2054,2045,2045,2031,2037
2035,2041,2045,2047,2046,2041,2046,2041
2046,2048,2043,2056,2056,2041,2042,2044
2060,2059,2055,2073,2074,2055,2041,2039
2067,2058,2059,2082,2070,2060,2048,2037
2058,2054,2055,2070,2059,2055,2049,2024
2053,2044,2057,2070,2057,2056,2052,2019
2056,2045,2052,2066,2056,2051,2054,2019
2051,2044,2053,2059,2049,2048,2044,2011
2051,2042,2054,2065,2054,2047,2036,2007
2050,2035,2043,2059,2049,2042,2015,2003
2050,2038,2041,2062,2062,2051,2036,2007
2059,2062,2065,2082,2065,2054,2061,2010
2064,2056,2060,2082,2076,2054,2064,2015
2068,2049,2066,2082,2071,2058,2055,2018
2054,2034,2057,2071,2067,2048,2045,2001
2040,2026,2036,2062,2059,2045,2040,2010
2050,2044,2050,2064,2067,2049,2046,2030
2065,2054,2060,2069,2079,2050,2043,2032
2068,2057,2061,2064,2075,2062,2049,2042
2060,2049,2054,2059,2075,2064,2047,2053
2058,2046,2052,2055,2075,2057,2044,2062
2053,2043,2041,2056,2069,2059,2057,2069
2051,2040,2036,2055,2067,2058,2062,2077
2049,2034,2023,2052,2062,2055,2044,2076
2052,2035,2016,2051,2065,2056,2050,2067
2036,2021,2003,2039,2050,2046,2028,2067
2033,2015,1988,2019,2038,2040,2043,2072
2038,2020,1986,2008,2035,2050,2049,2076
2044,2027,1993,2001,2027,2054,2032,2081
2053,2042,2007,2012,2031,2056,2023,2075
2063,2058,2029,2031,2043,2058,2040,2075
2062,2065,2039,2039,2043,2054,2036,2061
2058,2070,2044,2044,2036,2047,2035,2038
2064,2062,2047,2052,2040,2042,2041,2035
2054,2052,2046,2050,2028,2039,2037,2039
2051,2058,2059,2056,2045,2047,2054,2034
2056,2058,2056,2060,2044,2057,2041,2029
2055,2057,2050,2055,2039,2055,2053,2027
2060,2049,2047,2049,2040,2050,2041,2028
2053,2046,2056,2053,2034,2056,2039,2024
2060,2043,2050,2052,2038,2046,2043,2020
2054,2037,2046,2034,2025,2033,2033,2009
2051,2038,2047,2041,2027,2034,2056,2012
2069,2057,2063,2056,2049,2049,2051,2012
2071,2059,2059,2057,2043,2054,2033,2016
2064,2054,2059,2043,2032,2064,2035,2015
2055,2052,2055,2035,2016,2081,2017,2013
2048,2061,2054,2042,2008,2090,2030,2016
2050,2055,2052,2039,2001,2078,2032,2022
2056,2053,2051,2033,1992,2037,2026,2034
2050,2051,2044,2040,2006,1990,2035,2055
2056,2053,2045,2057,2043,1987,2049,2067
2064,2054,2041,2063,2050,2001,2061,2064
2060,2048,2031,2055,2049,2030,2053,2073
2064,2054,2031,2056,2063,2053,2077,2083
2081,2059,2041,2078,2090,2065,2066,2088
2081,2060,2052,2081,2114,2072,2067,2089
2090,2056,2052,2091,2116,2072,2062,2087
2072,2037,2053,2089,2111,2053,2051,2085
2058,2027,2056,2087,2079,2037,2036,2075
2029,2034,2058,2087,2076,2032,2032,2072
2023,2036,2056,2092,2082,2037,2021,2080
2053,2043,2053,2093,2074,2036,2046,2080
2060,2035,2046,2089,2064,2037,2052,2076
2061,2034,2028,2075,2059,2038,2037,2058
2057,2035,2029,2074,2053,2043,2047,2053
2056,2027,2021,2070,2063,2051,2049,2041
2056,2034,2014,2070,2058,2058,2052,2023
2049,2034,2014,2066,2062,2056,2036,2017
2034,2033,2004,2064,2061,2051,2035,2008
2028,2028,2008,2059,2057,2060,2036,2015
2040,2026,2004,2041,2056,2063,2040,2020
2043,2035,1996,2030,2054,2065,2053,2018
2042,2035,1996,2023,2062,2058,2055,2016
2046,2034,2000,2002,2057,2057,2063,2009
2038,2040,1999,2006,2048,2056,2065,2012
2049,2052,2012,2021,2063,2057,2061,2011
2055,2058,2041,2040,2066,2052,2061,2024
2059,2063,2052,2046,2064,2052,2052,2027
2053,2059,2072,2056,2069,2054,2058,2028
2058,2062,2081,2061,2068,2053,2061,2044
2068,2068,2091,2066,2068,2072,2063,2043
2069,2077,2116,2068,2068,2082,2061,2038
2056,2065,2116,2068,2073,2086,2045,2039
2047,2058,2100,2071,2067,2081,2055,2049
2044,2053,2088,2068,2070,2085,2062,2059
2050,2050,2089,2073,2070,2085,2036,2070
2053,2062,2089,2070,2074,2084,2036,2078
2056,2074,2093,2068,2073,2089,2061,2083
2057,2071,2082,2064,2072,2083,2068,2086
2060,2057,2063,2051,2054,2066,2062,2086
2056,2051,2054,2047,2054,2055,2056,2085
2058,2054,2050,2038,2052,2043,2078,2087
2054,2045,2037,2021,2046,2026,2061,2081
2051,2028,2026,2019,2045,2023,2074,2081
2052,2030,2029,2034,2053,2019,2074,2074
2063,2026,2027,2031,2037,2015,2042,2060
2053,2001,2008,2018,2028,2022,2025,2044
2051,2006,2015,2027,2038,2042,2032,2027
2056,2027,2039,2038,2048,2053,2022,2023
2053,2039,2052,2045,2045,2040,2019,2017
2048,2034,2051,2042,2043,2023,2036,2015
2042,2027,2052,2038,2036,2021,2036,2010
2038,2045,2058,2045,2037,2013,2028,2020
2053,2042,2046,2041,2039,2013,2018,2019
2056,2055,2060,2050,2044,2039,2032,2024
2059,2071,2081,2071,2058,2051,2042,2013
2039,2060,2076,2064,2060,2052,2036,2016
2038,2046,2068,2065,2064,2052,2063,2014
2031,2041,2055,2062,2067,2043,2057,2013
2028,2033,2053,2062,2067,2053,2041,2013
2026,2034,2053,2056,2058,2051,2043,2014
2027,2032,2050,2055,2060,2047,2046,2007
2028,2046,2057,2063,2066,2053,2045,2025
2049,2050,2058,2060,2070,2060,2050,2040
2053,2059,2061,2064,2072,2061,2058,2046
2062,2064,2064,2067,2076,2064,2054,2074
2068,2074,2071,2064,2077,2058,2055,2077
2064,2073,2067,2064,2067,2052,2053,2073
2052,2061,2056,2064,2048,2046,2054,2084
2054,2062,2054,2059,2046,2039,2055,2093
2059,2061,2054,2052,2044,2039,2051,2100
2048,2047,2049,2053,2044,2030,2049,2096
2053,2048,2052,2059,2042,2027,2062,2102
2056,2055,2058,2056,2043,2025,2060,2097
2056,2055,2054,2056,2045,2031,2060,2100
2060,2060,2056,2056,2046,2030,2050,2097
2060,2055,2052,2050,2044,2026,2033,2089
2065,2057,2051,2050,2035,2024,2044,2079
2060,2054,2056,2054,2033,2032,2024,2070
2059,2049,2050,2043,2041,2034,2032,2051
2058,2050,2049,2047,2039,2035,2054,2044
2051,2051,2052,2040,2038,2041,2046,2032
2052,2049,2050,2047,2033,2052,2047,2032
2054,2047,2047,2050,2029,2052,2038,2022
2053,2048,2048,2038,2027,2050,2035,2015
2054,2046,2048,2045,2031,2042,2027,2011
2050,2046,2045,2046,2032,2035,2009,2008
2043,2036,2040,2038,2035,2029,2013,2008
2044,2032,2040,2035,2035,2035,2019,2006
2047,2045,2047,2045,2042,2046,2039,2014
2049,2042,2045,2050,2043,2061,2054,2018
2045,2041,2048,2040,2051,2077,2044,2024
2045,2039,2045,2042,2054,2081,2026,2023
2040,2045,2051,2049,2054,2051,2053,2025
2046,2049,2056,2050,2052,2026,2051,2034
2047,2050,2052,2049,2047,2029,2047,2044
2053,2041,2051,2049,2053,2051,2043,2057
2056,2051,2051,2048,2050,2068,2025,2066
2050,2045,2050,2054,2048,2081,2046,2072
2057,2044,2053,2051,2047,2085,2061,2082
2063,2041,2051,2052,2046,2089,2049,2089
2054,2039,2042,2064,2047,2078,2052,2076
2047,2038,2045,2060,2039,2027,2019,2065
2034,2023,2041,2049,2031,2008,2010,2074
2036,2031,2041,2047,2035,2034,2039,2086
2049,2041,2056,2055,2046,2061,2038,2088
2052,2045,2052,2051,2055,2082,2065,2088
2052,2051,2062,2051,2051,2081,2085,2082
2051,2054,2055,2059,2052,2071,2050,2073
2048,2052,2053,2048,2044,2065,2057,2059
2042,2054,2056,2050,2035,2065,2061,2044
2052,2052,2054,2049,2044,2063,2048,2043
2042,2049,2051,2046,2035,2061,2054,2041
2046,2047,2054,2048,2050,2067,2046,2044
2051,2052,2054,2044,2054,2083,2037,2043
2049,2048,2053,2049,2050,2090,2055,2035
2052,2048,2049,2044,2045,2070,2050,2023
2040,2047,2052,2045,2045,2042,2038,2015
2045,2043,2046,2041,2054,2030,2057,2024
2037,2036,2039,2043,2048,2029,2034,2021
2033,2033,2041,2040,2052,2020,2022,2014
2039,2035,2050,2042,2051,1997,2022,2013
2039,2039,2042,2043,2042,1965,2036,2019
2040,2040,2046,2044,2027,1958,2026,2022
2035,2038,2045,2045,2027,1972,2033,2018
2044,2042,2044,2044,2046,1982,2036,2030
2042,2039,2046,2052,2045,1996,2047,2031
2038,2040,2044,2048,2043,2000,2050,2033
2039,2034,2047,2044,2045,2020,2065,2042
2036,2039,2043,2040,2057,2039,2070,2050
2041,2037,2049,2046,2049,2051,2082,2057
2043,2043,2051,2045,2046,2046,2079,2066
2044,2040,2048,2043,2042,2050,2066,2072
2042,2040,2044,2046,2041,2064,2065,2082
2050,2045,2058,2050,2043,2065,2045,2088
2049,2042,2053,2049,2042,2087,2038,2086
2051,2043,2048,2045,2038,2112,2046,2085
2056,2052,2052,2046,2047,2130,2063,2094
2054,2054,2053,2049,2045,2131,2066,2085
2061,2060,2050,2050,2046,2078,2064,2078
2054,2053,2045,2042,2046,2007,2036,2064
2049,2047,2051,2042,2043,2015,2039,2064
2052,2052,2048,2043,2048,2035,2046,2059
2051,2052,2047,2044,2056,2046,2052,2047
2048,2055,2056,2048,2052,2056,2063,2037
2048,2049,2048,2044,2042,2051,2059,2023
2042,2044,2046,2044,2032,2045,2030,2019
2034,2042,2044,2046,2034,2055,2053,2017
2044,2044,2048,2045,2044,2120,2059,2010
2035,2049,2048,2045,2050,2174,2055,2013
2044,2047,2045,2044,2058,2202,2066,2011
2039,2030,2036,2036,2040,2186,2037,2012
2040,2031,2040,2030,2023,2092,2046,2015
2044,2042,2046,2037,2027,2012,2043,2014
2043,2043,2040,2038,2035,2024,2024,2017
2049,2040,2044,2041,2044,2059,2032,2025
2045,2042,2043,2042,2052,2077,2036,2019
2043,2041,2038,2037,2051,2066,2052,2021
2045,2039,2038,2034,2043,2052,2028,2019
2037,2034,2032,2028,2030,2032,2017,2026
2033,2032,2034,2030,2019,2026,2027,2033
2033,2030,2039,2036,2007,2020,2049,2034
2038,2041,2035,2028,1999,2004,2064,2052
2039,2034,2034,2034,2003,1988,2051,2070
2040,2044,2046,2034,2006,1984,2040,2072
2039,2035,2041,2027,2013,2015,2062,2074
2036,2033,2038,2033,2037,2038,2051,2077
2041,2031,2038,2033,2033,2040,2032,2070
2040,2025,2038,2034,2017,2044,2036,2082
2041,2040,2039,2038,2016,2039,2054,2076
2036,2033,2039,2030,2033,2035,2050,2065
2033,2034,2033,2033,2035,2027,2043,2057
2043,2041,2043,2039,2042,2048,2040,2053
2050,2050,2043,2043,2049,2053,2038,2058
2056,2045,2045,2047,2044,2039,2053,2049
2055,2044,2048,2042,2033,2048,2067,2047
2053,2047,2047,2049,2035,2047,2072,2046
2055,2044,2046,2043,2047,2057,2062,2039
2052,2046,2044,2040,2045,2035,2069,2028
2051,2046,2042,2034,2037,2031,2031,2021
2049,2041,2041,2034,2035,2044,2048,2019
2052,2038,2041,2035,2033,2052,2040,2017
2053,2038,2044,2034,2029,2076,2052,2016
2050,2032,2037,2033,2047,2097,2054,2015
2045,2033,2033,2032,2064,2110,2052,2011
2041,2030,2038,2038,2065,2121,2067,2008
2042,2033,2038,2046,2061,2101,2059,2014
2043,2042,2043,2045,2058,2044,2037,2011
2045,2042,2045,2045,2039,2000,2042,2015
2052,2041,2040,2042,2044,2018,2041,2015
2047,2037,2040,2047,2050,2046,2031,2023
2039,2034,2037,2047,2050,2050,2034,2028
2036,2039,2034,2042,2050,2045,2024,2027
2040,2035,2033,2045,2060,2049,2033,2037
2038,2041,2041,2052,2070,2058,2060,2044
2037,2040,2044,2053,2080,2073,2040,2054
2040,2039,2040,2056,2076,2077,2052,2061
2044,2040,2047,2054,2079,2076,2038,2074
2051,2036,2045,2049,2074,2072,2038,2076
2045,2045,2040,2047,2070,2056,2061,2068
2037,2030,2034,2040,2062,2049,2053,2066
2035,2029,2027,2037,2051,2035,2057,2079
2047,2033,2036,2034,2031,2006,2032,2075
2047,2035,2034,2030,2025,2013,2049,2068
2050,2036,2034,2033,2045,2018,2048,2067
2050,2038,2045,2035,2061,2027,2044,2063
2050,2042,2047,2045,2068,2018,2041,2055
2044,2049,2045,2045,2093,2026,2042,2047
2045,2044,2051,2045,2082,2030,2027,2044
2054,2062,2054,2053,2051,2031,2037,2058
2066,2064,2057,2052,2047,2034,2038,2049
2066,2056,2047,2041,1992,2037,2035,2043
2057,2040,2031,2030,1880,2025,2038,2033
2047,2033,2018,2015,1864,2018,2044,2027
2048,2029,2018,2021,1897,2028,2052,2020
2052,2020,2030,2027,1926,2032,2044,2000
2066,2030,2041,2026,1944,2026,2026,2012
2064,2038,2050,2018,1952,2017,2016,2012
2052,2042,2061,2028,2001,2044,2046,2016
2053,2049,2059,2034,2041,2053,2053,2028
2058,2053,2059,2054,2083,2036,2062,2044
2064,2058,2060,2056,2111,2050,2062,2039
2070,2063,2062,2054,2086,2058,2056,2044
2077,2072,2059,2059,2069,2076,2076,2044
2074,2074,2056,2053,2061,2068,2060,2035
2075,2063,2042,2039,2040,2048,2027,2018
2050,2030,2027,2020,1994,2030,1989,2010
2026,2016,2027,2016,1968,2030,1991,2014
2009,2024,2026,2019,1964,2026,2012,2029
1980,2021,2020,2013,1953,2004,2005,2038
1993,2029,2019,2013,1992,2000,2024,2061
2034,2038,2044,2052,2079,2011,2060,2081
2057,2049,2044,2069,2131,2038,2067,2084
2052,2041,2035,2067,2144,2080,2060,2075
2035,2039,2035,2063,2135,2092,2062,2072
2029,2035,2037,2057,2100,2068,2054,2059
2031,2039,2042,2047,2059,2054,2015,2040
2032,2036,2044,2046,2048,2047,2021,2036
2015,2029,2034,2041,2048,2041,2020,2035
2020,2021,2033,2042,2050,2031,2013,2034
2021,2027,2037,2043,2056,2036,2008,2029
2034,2039,2044,2044,2054,2038,2026,2032
2038,2051,2047,2049,2060,2042,2030,2024
2042,2058,2052,2051,2064,2058,2044,2022
2045,2064,2054,2051,2064,2061,2050,2017
2044,2059,2046,2052,2061,2061,2033,2016
2049,2055,2049,2051,2054,2060,2062,2019
2048,2052,2048,2052,2065,2068,2055,2028
2045,2048,2049,2049,2062,2065,2048,2022
2038,2041,2039,2046,2056,2063,2054,2012
2038,2040,2036,2044,2062,2066,2062,2017
2047,2051,2044,2049,2060,2056,2052,2020
2053,2049,2047,2051,2066,2051,2056,2026
2058,2057,2048,2049,2067,2049,2051,2032
2054,2060,2052,2053,2069,2046,2054,2036
2054,2058,2052,2052,2069,2040,2050,2032
2054,2051,2053,2046,2070,2047,2043,2033
2054,2052,2052,2047,2066,2046,2056,2038
2046,2049,2047,2044,2060,2051,2046,2057
2039,2049,2050,2049,2063,2048,2073,2073
2045,2053,2048,2048,2065,2049,2082,2078
2047,2055,2053,2041,2068,2050,2073,2086
2043,2047,2048,2044,2064,2045,2051,2084
2042,2044,2044,2036,2053,2045,2051,2090
2039,2045,2042,2037,2048,2054,2044,2093
2042,2039,2038,2033,2046,2048,2032,2097
2038,2039,2045,2032,2050,2053,2035,2100
2043,2042,2050,2042,2051,2055,2053,2096
2040,2042,2047,2035,2041,2056,2042,2092
2043,2044,2049,2033,2026,2075,2050,2073
2046,2051,2044,2030,2013,2097,2053,2061
2047,2053,2046,2023,1995,2104,2060,2060
2050,2056,2048,2022,1987,2098,2041,2050
2047,2063,2046,2026,1986,2076,2030,2047
2051,2055,2048,2027,1998,2029,2033,2048
2062,2062,2056,2041,2021,2001,2027,2053
2058,2060,2054,2052,2039,2021,2043,2036
2041,2056,2057,2047,2045,2042,2045,2020
2037,2055,2053,2044,2057,2050,2046,2021
2041,2052,2048,2045,2063,2046,2050,2016
2026,2048,2044,2051,2099,2056,2065,2013
2030,2041,2036,2046,2110,2063,2040,2012
2034,2040,2035,2043,2102,2058,2060,2032
2045,2051,2047,2043,2095,2059,2073,2026
2043,2051,2047,2050,2080,2061,2068,2032
2050,2049,2049,2043,2072,2053,2045,2025
2049,2046,2050,2046,2067,2048,2049,2021
2039,2046,2042,2045,2057,2039,2051,2031
2040,2052,2046,2041,2056,2054,2052,2034
2040,2047,2048,2041,2055,2065,2056,2037
2039,2045,2045,2040,2055,2057,2041,2050
2040,2043,2044,2035,2051,2055,2032,2052
2040,2042,2038,2036,2055,2056,2054,2070
2037,2043,2040,2041,2061,2066,2069,2069
2033,2047,2045,2043,2064,2066,2066,2080
2034,2052,2052,2038,2062,2064,2066,2082
2035,2048,2045,2037,2064,2059,2059,2076
2038,2043,2039,2034,2048,2048,2055,2077
2036,2044,2039,2032,2045,2046,2061,2082
2040,2053,2049,2034,2047,2037,2070,2084
2050,2057,2048,2038,2049,2035,2055,2083
2049,2064,2043,2032,2037,2035,2048,2074
2047,2055,2043,2032,2025,2043,2054,2083
2049,2060,2046,2033,2032,2044,2047,2075
2058,2057,2050,2032,2034,2055,2074,2075
2060,2058,2055,2040,2039,2058,2084,2067
2052,2055,2048,2036,2037,2057,2073,2054
2046,2057,2040,2038,2035,2055,2086,2054
2041,2052,2043,2032,2028,2048,2066,2046
2043,2045,2038,2025,2025,2035,2071,2045
2050,2046,2031,2021,2006,2018,2073,2049
2054,2042,2033,2022,2004,2007,2065,2042
2062,2056,2042,2031,2005,1978,2043,2036
2052,2043,2032,2017,1981,1954,2032,2008
2033,2043,2032,2011,1994,1960,2037,2010
2039,2056,2043,2035,2028,1957,2031,2028
2052,2062,2046,2040,2034,1986,2040,2029
2049,2058,2042,2035,2047,2028,2042,2038
2057,2059,2052,2058,2097,2058,2055,2044
2066,2065,2052,2061,2111,2078,2061,2045
2059,2060,2047,2052,2088,2112,2071,2039
2057,2047,2048,2046,2076,2118,2069,2046
2051,2043,2042,2040,2065,2101,2091,2060
2057,2046,2050,2039,2042,2077,2073,2069
2054,2050,2052,2034,2045,2067,2073,2079
2043,2044,2045,2034,2040,2080,2067,2080
2043,2040,2046,2030,2040,2097,2074,2088
2044,2041,2050,2033,2037,2102,2060,2089
2038,2027,2040,2026,2033,2121,2061,2078
2020,2012,2034,2019,2022,2132,2048,2079
2014,2027,2030,2017,2034,2164,2060,2086
2040,2044,2032,2011,2032,2175,2061,2079
2035,2041,2031,2015,2035,2149,2067,2079
2054,2048,2041,2025,2043,2060,2053,2077
2061,2064,2051,2041,2044,1993,2053,2073
2061,2069,2059,2043,2059,2020,2048,2068
2063,2067,2057,2039,2052,2062,2061,2053
2061,2057,2048,2033,2047,2086,2058,2043
2062,2043,2040,2037,2057,2096,2065,2034
2052,2042,2038,2035,2063,2089,2060,2032
2052,2039,2040,2036,2061,2033,2034,2023
2045,2036,2035,2031,2063,2021,2020,2033
2041,2045,2045,2034,2067,2036,2046,2029
2047,2046,2043,2037,2068,2044,2049,2031
2056,2048,2041,2038,2067,2051,2047,2021
2044,2036,2038,2034,2064,2049,2048,2014
2034,2034,2033,2025,2055,2067,2040,2018
2041,2042,2040,2035,2059,2068,2033,2018
2041,2038,2041,2032,2055,2071,2019,2022
2039,2038,2037,2027,2049,2065,2046,2019
2043,2038,2045,2023,2052,2074,2038,2018
2042,2035,2044,2026,2055,2095,2056,2027
2048,2040,2046,2029,2050,2103,2043,2036
2049,2036,2043,2030,2052,2092,2050,2037
2047,2046,2044,2031,2059,2069,2035,2043
2050,2046,2049,2043,2068,2039,2038,2051
2051,2048,2052,2048,2070,2034,2034,2060
2049,2050,2052,2047,2082,2054,2029,2067
2056,2051,2049,2043,2085,2073,2035,2083
2056,2048,2048,2038,2065,2065,2038,2087
2054,2047,2048,2039,2058,2076,2049,2083
2052,2040,2037,2041,2057,2037,2022,2082
2047,2034,2036,2034,2050,2008,2015,2085
2049,2045,2041,2028,2040,2001,2023,2095
2058,2054,2041,2033,2035,1998,2036,2090
2060,2053,2045,2033,2023,1997,2014,2078
2056,2053,2048,2026,1978,1997,2012,2072
2049,2051,2050,2011,1928,1999,2024,2061
2039,2047,2052,2006,1955,2005,2028,2058
2048,2054,2054,2024,2027,2014,2047,2058
2049,2052,2059,2032,2061,2011,2051,2052
2050,2045,2056,2046,2080,2015,2054,2057
2054,2055,2059,2047,2087,2040,2066,2054
2058,2063,2065,2049,2062,2041,2044,2047
2070,2068,2063,2049,2033,2038,2019,2040
2068,2064,2056,2038,1989,2043,2011,2022
2070,2053,2049,2028,2031,2072,2000,2009
2053,2044,2037,2014,2029,2084,1991,2000
2044,2033,2027,2009,2023,2100,2022,1999
2040,2038,2037,2015,2010,2125,2035,2002
2032,2043,2047,2026,2006,2127,2054,2023
2045,2046,2048,2033,2021,2118,2056,2034
2048,2052,2044,2023,2014,2104,2047,2030
2048,2053,2050,2017,1971,2029,2040,2040
2045,2049,2047,2019,1949,1959,2063,2060
2057,2051,2051,2023,1981,1965,2064,2054
2055,2052,2050,2035,2050,1991,2081,2054
2054,2041,2044,2039,2072,2012,2083,2057
2056,2037,2043,2042,2107,2044,2082,2058
2059,2033,2036,2035,2122,2064,2068,2056
2043,2019,2029,2024,2100,2065,2059,2046
2025,2008,2027,2020,2072,2052,2041,2054
2011,2017,2037,2023,2039,2044,2036,2055
2002,2022,2037,2017,2029,2049,2033,2061
2019,2031,2035,2016,2041,2049,2032,2082
2039,2043,2043,2030,2058,2100,2045,2082
2044,2042,2043,2033,2060,2129,2066,2089
2049,2050,2044,2034,2067,2153,2073,2089
2056,2054,2047,2037,2064,2168,2094,2082
2055,2045,2046,2030,2055,2164,2072,2070
2043,2040,2041,2026,2049,2092,2046,2056
2041,2040,2046,2027,2044,2004,2034,2037
2039,2043,2056,2031,2049,2006,2047,2043
2045,2053,2058,2036,2052,2025,2046,2035
2034,2045,2052,2036,2046,2038,2042,2027
2034,2039,2044,2033,2044,2050,2048,2027
2035,2042,2050,2037,2040,2038,2040,2023
2047,2049,2057,2034,2034,2019,2030,2018
2047,2050,2056,2028,2022,1993,2034,2014
2033,2034,2041,2017,2009,1983,2041,2014
2026,2037,2039,2023,2010,1987,2028,2025
2042,2051,2048,2032,2031,2009,2043,2027
2045,2050,2052,2029,2029,2009,2024,2024
2049,2053,2059,2030,2046,2022,2055,2028
2052,2052,2057,2035,2047,2035,2056,2039
2053,2047,2054,2040,2053,2040,2061,2044
2058,2056,2053,2040,2062,2042,2053,2053
2060,2053,2051,2039,2064,2048,2063,2034
2057,2047,2050,2038,2045,2053,2062,2035
2045,2040,2047,2045,2047,2059,2062,2044
2041,2041,2053,2052,2071,2065,2069,2065
2043,2042,2056,2047,2073,2062,2075,2070
2034,2032,2047,2038,2047,2050,2046,2075
2026,2034,2039,2023,2025,2045,2061,2068
2030,2035,2038,2024,2018,2048,2058,2078
2031,2025,2035,2018,2001,2004,2049,2088
2047,2034,2045,2023,2000,1990,2043,2090
2054,2045,2048,2029,2024,2027,2048,2084
2055,2037,2049,2039,2050,2066,2069,2080
2043,2030,2045,2026,2023,2062,2061,2063
2028,2017,2033,2012,1997,2039,2065,2062
2041,2013,2032,2012,1992,2033,2068,2053
2034,2004,2019,1998,2009,2057,2053,2034
2042,2007,2016,1998,2040,2079,2045,2034
2063,2036,2035,2011,2066,2089,2048,2024
2069,2043,2040,2029,2075,2092,2060,2026
2064,2044,2045,2025,2076,2073,2052,2028
2060,2050,2055,2046,2121,2036,2066,2052
2071,2068,2074,2068,2122,2048,2075,2050
2052,2070,2076,2050,2037,2060,2053,2050
2033,2072,2068,2035,1993,2046,2044,2047
2042,2060,2053,2030,1999,2020,2066,2039
2047,2050,2042,2035,2008,2003,2040,2023
2056,2050,2046,2038,2016,1999,2030,2022
2049,2050,2041,2027,2009,2009,2028,2015
2038,2040,2034,2013,2026,2044,2033,2018
2040,2043,2049,2032,2071,2074,2036,2022
2038,2051,2051,2044,2063,2061,2032,2020
2046,2044,2050,2039,2049,2056,2022,2020
2047,2044,2053,2044,2052,2038,1996,2025
2052,2052,2055,2039,2052,2038,1991,2032
2045,2052,2057,2046,2049,2041,1986,2038
2038,2058,2053,2038,2052,2063,2000,2035
2022,2033,2041,2028,2059,2047,2011,2034
2015,2031,2041,2031,2069,2027,2032,2049
2009,2026,2030,2023,2074,2005,2017,2044
2014,2018,2039,2020,2013,1985,2034,2057
2024,2026,2037,2012,1960,1985,2022,2068
2036,2027,2040,2017,1939,1989,2027,2082
2057,2039,2044,2033,1969,2025,2066,2087
2069,2042,2051,2036,1994,2056,2079,2078
2055,2033,2045,2031,1999,2038,2051,2061
2035,2027,2047,2032,2030,2046,2066,2069
2041,2034,2055,2046,2079,2062,2073,2064
2053,2043,2051,2047,2089,2059,2073,2051
2054,2047,2051,2040,2099,2040,2065,2044
2045,2047,2050,2044,2100,2039,2070,2042
2044,2047,2049,2042,2126,2052,2056,2039
2035,2048,2046,2053,2171,2063,2038,2031
2048,2050,2055,2084,2240,2072,2045,2031
2051,2050,2060,2093,2236,2094,2070,2024
2046,2044,2057,2090,2183,2122,2088,2013
2047,2046,2049,2069,2058,2130,2096,2014
2050,2035,2039,2043,1964,2105,2084,2009
2035,2024,2035,2016,1814,2089,2079,2023
2041,2033,2046,2028,1834,2098,2088,2025
2064,2046,2045,2035,1888,2106,2060,2028
2060,2043,2048,2046,1965,2071,2051,2031
2049,2045,2052,2078,2056,2033,2051,2028
2045,2040,2057,2072,2046,2024,2049,2041
2047,2040,2056,2068,2033,2042,2067,2037
2042,2030,2049,2046,1968,2015,2047,2022
2023,2026,2036,1995,1818,1985,2035,2025
2021,2023,2022,1967,1778,1951,2028,2041
2021,2013,2018,1981,1921,1964,2024,2044
2029,2015,2015,2006,2001,2017,2036,2054
2042,2031,2048,2020,1986,2053,2055,2069
2057,2053,2065,2029,1983,2062,2051,2084
2060,2064,2059,2038,2022,2096,2050,2096
2069,2071,2072,2060,2108,2120,2061,2101
2056,2061,2064,2071,2130,2099,2052,2079
2045,2043,2051,2060,2115,2056,2038,2071
2040,2045,2049,2054,2138,2009,2020,2074
2048,2050,2053,2068,2184,2018,2043,2078
2056,2048,2051,2059,2121,2023,2046,2069
2050,2037,2030,2032,2028,2008,2030,2059
2047,2030,2037,2034,2034,2014,2010,2059
2052,2030,2043,2044,2058,2047,2017,2066
2053,2027,2045,2053,2115,2081,2022,2052
2045,2029,2034,2045,2129,2109,2018,2038
2035,2022,2030,2047,2147,2154,2045,2035
2042,2027,2037,2052,2185,2200,2054,2040
2051,2035,2042,2052,2192,2223,2069,2047
2060,2045,2042,2059,2182,2189,2042,2037
2058,2046,2047,2055,2161,2143,2042,2034
2060,2062,2048,2053,2116,2043,2033,2013
2041,2047,2038,2023,2020,1989,2008,1977
2005,2027,2035,2005,1907,1989,1988,1973
2009,2030,2040,1998,1881,1925,1984,1999
2040,2042,2050,2011,1945,1886,2005,2031
2068,2070,2078,2039,1956,1952,2054,2043
2079,2076,2076,2062,1978,2013,2059,2047
2069,2070,2075,2077,2082,2075,2073,2051
2050,2060,2069,2089,2123,2094,2069,2050
2043,2052,2065,2087,2147,2078,2062,2042
2041,2038,2054,2069,2114,2030,2050,2048
2032,2028,2049,2039,1981,1972,2024,2061
2034,2040,2048,2024,1910,1958,2048,2072
2051,2055,2055,2034,1955,1966,2061,2093
2066,2065,2062,2040,1985,1988,2064,2107
2073,2067,2063,2038,2018,2003,2071,2105
2079,2053,2052,2033,2046,2025,2084,2097
2065,2038,2044,2028,2105,2044,2064,2082
2052,2019,2027,2026,2123,2036,2045,2072
2044,2022,2037,2027,2138,2038,2055,2091
2062,2044,2046,2050,2173,2042,2030,2090
2060,2040,2054,2045,2148,2036,2049,2077
2043,2032,2050,2028,2048,2043,2058,2062
2026,2046,2056,2044,2048,2066,2056,2066
2021,2056,2064,2045,2066,2079,2048,2059
2026,2056,2061,2041,2040,2071,2044,2051
2041,2059,2063,2045,1938,2064,2054,2053
2056,2065,2062,2042,1914,2079,2071,2045
2061,2060,2071,2041,1946,2094,2060,2045
2063,2059,2069,2041,1976,2088,2046,2036
2061,2056,2058,2042,1972,2066,2064,2031
2053,2036,2034,2032,1977,2037,2036,2016
2042,2017,2023,2012,2046,2036,2033,2004
2038,2004,2021,2021,2146,2065,2057,2018
2043,2010,2024,2051,2201,2076,2053,2020
2015,2025,2041,2067,2146,2060,2057,2011
1990,2038,2058,2067,2111,2026,2059,2033
2016,2062,2064,2075,2122,2017,2068,2052
2045,2070,2074,2063,2116,1999,2070,2057
2052,2066,2063,2036,2024,1956,2053,2052
2052,2053,2053,2013,1912,1958,2040,2062
2061,2055,2056,2030,1966,2012,2044,2064
2053,2058,2056,2050,2036,2057,2037,2039
2053,2050,2064,2052,2069,2097,2040,2030
2053,2043,2067,2046,2057,2125,2029,2032
2050,2040,2062,2046,2053,2154,2042,2034
2043,2027,2046,2051,2054,2166,2042,2047
2046,2020,2039,2050,2070,2167,2059,2060
2034,2012,2031,2043,2076,2065,2035,2072
2045,2015,2041,2043,2038,2017,2062,2075
2028,2021,2039,2038,2013,2011,2045,2078
2027,2020,2041,2019,1992,1982,2045,2073
2026,2023,2044,2015,1997,1990,2031,2054
2025,2025,2039,2021,2000,2007,2033,2060
2020,2034,2053,2023,1999,2026,2050,2051
2036,2049,2063,2034,2004,2046,2048,2056
2044,2051,2062,2031,2000,2052,2062,2070
2050,2053,2047,2032,2002,2043,2073,2070
2045,2046,2037,2034,2013,1993,2064,2057
2053,2051,2041,2046,2044,1986,2042,2035
2052,2063,2053,2049,2034,1969,2014,2020
2043,2053,2052,2041,2018,1970,2005,2004
2030,2056,2063,2048,2010,1993,2020,2000
2035,2056,2062,2062,2038,2011,2020,1999
2035,2054,2052,2058,2026,2023,2014,2005
2035,2048,2044,2034,2013,2024,1998,1994
2030,2038,2032,2020,2057,2078,2015,2009
2027,2037,2039,2044,2107,2133,2038,2018
2049,2056,2064,2074,2139,2139,2063,2032
2056,2063,2073,2087,2146,2139,2084,2033
2056,2060,2065,2089,2153,2146,2094,2049
2053,2058,2054,2074,2143,2101,2068,2038
2052,2050,2045,2059,2118,2068,2035,2020
2038,2046,2039,2058,2095,2071,2026,2012
2031,2036,2042,2044,2064,2076,2028,2012
2029,2041,2052,2036,2031,2083,2050,2028
2036,2058,2057,2044,2036,2086,2062,2045
2049,2069,2066,2050,2036,2084,2061,2059
2040,2060,2065,2053,2093,2068,2067,2073
2040,2056,2063,2057,2122,2061,2057,2069
2030,2057,2057,2052,2094,2083,2046,2071
2047,2065,2065,2057,2122,2106,2071,2089
2051,2061,2063,2052,2108,2097,2053,2091
2052,2044,2042,2031,2054,2077,2039,2097
2040,2035,2037,2026,1999,2028,2025,2099
2052,2042,2040,2031,1972,1971,2010,2068
2050,2057,2057,2037,1906,1944,2012,2073
2068,2083,2072,2063,2013,1958,2009,2067
2064,2061,2057,2078,2136,2056,2037,2043
2041,2042,2033,2086,2190,2133,2051,2037
2038,2031,2032,2086,2205,2166,2058,2036
2049,2044,2043,2093,2179,2174,2068,2025
2045,2043,2053,2075,2084,2147,2065,2026
2039,2050,2054,2061,2039,2126,2059,2038
2046,2058,2060,2036,1996,2099,2057,2023
2038,2050,2043,1998,1875,2006,2044,2023
2026,2022,2024,1962,1832,1908,2038,2015
2024,2030,2024,1982,1964,1911,2032,2008
2037,2048,2029,2025,2103,1964,2034,2015
2055,2059,2049,2074,2199,2027,2046,2027
2059,2062,2060,2101,2207,2055,2053,2014
2040,2053,2055,2087,2193,2077,2049,1988
2020,2053,2053,2068,2109,2079,2045,1997
2026,2046,2044,2030,2003,2051,2026,2006
2016,2022,2026,1996,1900,1994,2015,1997
2014,2017,2027,2017,1955,1983,2025,2009
2020,2032,2048,2061,2089,2021,2037,2030
2035,2050,2053,2100,2166,2070,2062,2051
2039,2045,2052,2092,2187,2085,2062,2062
2043,2042,2049,2079,2180,2079,2042,2058
2046,2043,2051,2064,2126,2066,2054,2062
2040,2041,2047,2049,2076,2045,2048,2059
2044,2045,2048,2045,2012,2025,2052,2075
2046,2054,2052,2009,1867,1996,2043,2088
2056,2054,2038,1987,1850,1997,2038,2074
2056,2041,2037,2012,1951,2030,2038,2068
2053,2051,2058,2049,2027,2027,2041,2066
2053,2057,2063,2067,2078,2020,2037,2067
2054,2055,2066,2076,2100,2042,2052,2064
2058,2056,2062,2073,2098,2064,2058,2073
2061,2054,2060,2062,2077,2054,2047,2071
2040,2033,2049,2045,2002,2029,2013,2053
2014,2030,2032,2029,1943,1990,1990,2058
2035,2036,2034,2018,1918,2011,1993,2030
2041,2039,2032,2007,1918,2034,2004,2003
2038,2049,2048,2015,1937,2014,2015,2004
2029,2049,2058,2042,2010,2025,2046,2016
2031,2049,2062,2058,2069,2061,2060,2015
2042,2037,2048,2054,2094,2064,2056,2016
2034,2030,2034,2047,2133,2070,2068,2030
2032,2022,2031,2062,2177,2064,2065,2025
2034,2016,2026,2056,2112,2053,2051,2035
2060,2025,2025,2051,2057,2055,2060,2047
2091,2041,2051,2076,2080,2095,2061,2051
2092,2059,2067,2081,2059,2132,2064,2033
2080,2051,2064,2041,1952,2150,2066,2014
2065,2033,2038,2020,1995,2127,2046,2013
2053,2046,2048,2037,2097,2048,2046,2017
2035,2063,2070,2055,2139,1967,2025,2016
2006,2063,2072,2054,2096,1979,2026,2025
2006,2048,2054,2006,1953,1981,1993,2038
2035,2041,2054,2034,2050,2025,2000,2052
2043,2046,2060,2082,2161,2085,2006,2064
2039,2045,2064,2100,2201,2134,2042,2068
2033,2042,2052,2090,2177,2120,2055,2057
2025,2028,2038,2061,2064,2067,2041,2055
2006,2035,2038,2028,1954,2003,2034,2050
2018,2046,2038,2016,2023,1965,2037,2048
2022,2052,2042,2045,2120,1999,2046,2074
2043,2056,2048,2066,2137,2022,2053,2076
2047,2044,2042,2059,2095,2031,2044,2070
2037,2044,2044,2058,2098,2049,2037,2051
2038,2051,2054,2065,2114,2056,2029,2051
2047,2052,2055,2066,2128,2057,2044,2047
2040,2052,2051,2053,2110,2048,2037,2033
2027,2052,2046,2041,2034,2036,2022,2029
2026,2049,2049,2034,2047,2024,2048,2034
2036,2052,2044,2047,2058,2037,2064,2030
2039,2056,2051,2053,2066,2035,2056,2037
2054,2061,2057,2056,2038,2026,2048,2030
2061,2055,2051,2038,2001,2017,2039,2032
2051,2054,2051,2038,2004,2034,2052,2026
2055,2059,2046,2021,1990,2042,2053,2015
2040,2042,2036,2025,1989,2030,2049,2004
2030,2031,2024,2030,1997,2022,2055,2012
2032,2041,2031,2029,1962,2014,2065,2005
2020,2034,2023,2007,1979,2021,2054,1999
2025,2035,2026,2028,2058,2049,2058,2005
2044,2056,2044,2059,2145,2068,2079,2039
2072,2065,2052,2080,2183,2079,2096,2068
2090,2073,2062,2088,2171,2106,2100,2058
2075,2065,2057,2094,2216,2138,2086,2039
2053,2049,2050,2100,2195,2174,2049,2036
2044,2039,2037,2074,2065,2161,2034,2034
2030,2010,2020,2029,1936,2156,2043,2047
2038,2013,2026,2045,2072,2163,2056,2048
2037,2024,2038,2073,2180,2139,2055,2051
2035,2038,2037,2066,2274,2047,2033,2065
2031,2033,2026,2021,2200,1952,2022,2063
2036,2022,2020,1996,1937,1920,2018,2064
2036,2026,2028,2009,1816,1967,2031,2058
2016,2020,2021,2023,1881,2003,2028,2036
1990,2017,2023,2053,2006,2025,2042,2058
2035,2062,2053,2070,2001,2000,2036,2076
2058,2064,2050,2058,1951,1970,2039,2067
2051,2049,2043,2047,1953,1988,2011,2048
2050,2045,2048,2059,2059,2049,2053,2041
2048,2036,2047,2070,2173,2104,2066,2050
2061,2028,2044,2062,2180,2112,2064,2048
2061,2017,2032,2047,2119,2107,2064,2038
2049,2027,2025,2031,2097,2098,2042,2018
2034,2039,2029,2026,2109,2076,2059,1995
2025,2039,2047,2035,2110,2047,2036,1993
2016,2036,2040,2034,2067,2041,2026,2004
2044,2061,2051,2045,2059,2031,2008,2016
2068,2068,2059,2058,2088,2029,2006,2013
2071,2081,2065,2060,2122,2030,2041,2012
2053,2074,2066,2069,2158,2029,2049,2011
2028,2052,2054,2069,2178,2054,2048,2011
2029,2053,2051,2071,2166,2072,2070,2016
2042,2048,2047,2060,2125,2087,2060,2023
2041,2036,2040,2053,2097,2092,2058,2021
2059,2033,2034,2028,1951,2063,2040,2023
2057,2030,2017,2009,1910,2046,2039,2017
2036,2007,2020,2027,1982,2027,2066,2056
2058,1995,2033,2044,1999,1994,2068,2086
2091,1998,2031,2044,1968,1987,2062,2093
2088,1999,2030,2065,1983,2018,2082,2110
2078,2008,2031,2065,1982,2029,2084,2105
2031,2000,2026,2070,2027,2058,2029,2062
1998,2001,2040,2084,2105,2102,2028,2050
2030,2021,2040,2083,2115,2148,2023,2067
2058,2028,2044,2053,2038,2162,2041,2085
2069,2035,2029,2006,1938,2096,2019,2078
2076,2058,2047,2030,2050,2081,2031,2042
2051,2058,2056,2031,2052,2032,2018,2021
2047,2060,2060,2028,2142,1979,2007,2028
2032,2076,2071,2042,2145,1978,2030,2051
2032,2092,2074,2045,2059,2017,2048,2063
2038,2088,2073,2052,2083,2051,2061,2056
2044,2087,2075,2069,2110,2062,2044,2044
2051,2091,2072,2078,2100,2048,2034,2028
2045,2084,2072,2072,2081,2041,2018,2015
2038,2073,2061,2049,2029,2046,2016,2008
2034,2065,2053,2040,2023,2062,2020,1997
2030,2044,2036,2039,2096,2083,2025,2001
2028,2037,2034,2038,2126,2085,2028,2006
2037,2031,2026,2039,2101,2033,2032,2010
2050,2040,2043,2047,2109,2019,2063,2026
2082,2071,2063,2065,2117,2049,2071,2035
2078,2066,2053,2061,2068,2053,2044,2018
2069,2061,2056,2053,2059,2048,2050,2009
2057,2060,2064,2054,2048,2035,2034,2014
2040,2051,2061,2043,2025,2023,2054,2030
2041,2049,2051,2042,1986,2017,2043,2044
2042,2048,2044,2037,1924,1999,2030,2042
2038,2037,2039,2037,1957,2003,2002,2022
2016,2035,2053,2055,2086,2018,2028,2017
2026,2025,2053,2047,2095,2019,2029,2041
2049,2024,2042,2061,2054,1997,2024,2072
2051,2014,2024,2056,2052,2011,2042,2078
2045,2005,2021,2030,1994,2025,2034,2076
2039,2018,2036,2031,2049,2063,2029,2049
2006,2020,2042,2065,2181,2096,2016,2045
2000,2027,2061,2104,2204,2123,2052,2065
2024,2058,2073,2086,2081,2126,2029,2060
2033,2065,2073,2068,2044,2107,2043,2058
2050,2075,2080,2049,2018,2042,2041,2062
2053,2089,2084,2058,2032,2015,2053,2069
2053,2081,2083,2076,2077,2036,2060,2061
2056,2072,2071,2082,2109,2068,2062,2063
2065,2060,2059,2072,2126,2068,2070,2073
2064,2055,2052,2053,2091,2053,2052,2050
2057,2046,2045,2059,2108,2064,2037,2051
2066,2059,2051,2071,2108,2089,2031,2044
2057,2045,2045,2070,2068,2090,2015,2004
2031,2022,2037,2063,2045,2061,2019,1993
2026,2016,2042,2059,1990,2039,1994,1978
2027,2036,2062,2067,1998,2043,2017,1976
2023,2034,2063,2082,2037,2012,2030,2001
2040,2046,2077,2101,2100,2022,2055,2018
2046,2061,2089,2110,2093,2012,2061,2011
2041,2058,2091,2116,2090,2015,2067,2010
2034,2057,2117,2125,2069,2027,2062,2026
2049,2051,2125,2148,2120,2062,2027,2021
2063,2046,2119,2167,2183,2087,2024,2041
2083,2039,2116,2183,2245,2114,2067,2046
2091,2041,2112,2200,2297,2129,2075,2034
2072,2037,2083,2201,2308,2125,2076,2031
2081,2043,2070,2178,2275,2082,2067,2056
2089,2033,2043,2140,2161,2035,2031,2052
2057,2024,2036,2137,2076,2041,2047,2036
2006,2022,2019,2133,2043,2044,2046,2037
2003,2029,2001,2110,2011,2031,2045,2037
2013,2037,1975,2076,2019,2033,2030,2045
2021,2030,1965,2067,2071,2038,2017,2049
2026,2027,1961,2064,2115,2039,2034,2074
2049,2039,1981,2069,2146,2055,2042,2077
2057,2044,1980,2044,2145,2035,2032,2073
2046,2036,1973,2015,2168,2024,2017,2065
2034,2030,1971,1983,2126,2002,1996,2060
2033,2020,1989,1951,2066,1995,1995,2043
2017,2021,2014,1933,1952,1980,2005,2026
2015,2023,2034,1928,1979,1994,2026,2024
2020,2035,2046,1960,2044,2037,2049,2032
2042,2068,2073,2006,2068,2078,2071,2045
2058,2072,2086,1996,1900,2065,2054,2053
2066,2071,2089,2028,1996,2081,2066,2050
2063,2049,2064,2048,2058,2083,2092,2039
2060,2039,2050,2057,2052,2075,2085,2026
2055,2029,2035,2056,2050,2069,2059,2025
2051,2031,2025,2060,2052,2057,2041,2021
2045,2033,2024,2076,2064,2057,2040,2001
2048,2074,2044,2093,2090,2068,2066,2022
2057,2070,2020,2091,2110,2083,2067,2025
2063,2058,2006,2114,2127,2088,2078,2027
2075,2055,2004,2140,2131,2091,2061,2026
2075,2042,1993,2144,2116,2076,2023,2015
2060,2031,1997,2139,2079,2071,2021,2025
2048,2032,2013,2137,2031,2048,2036,2016
2048,2033,2011,2122,2002,2042,2049,2014
2029,2024,2014,2113,2018,2052,2039,2025
2030,2020,2006,2101,2038,2050,2045,2043
2027,2001,2002,2080,2018,2037,2041,2046
2029,1998,2003,2050,1974,2023,2048,2054
2043,2016,2030,2042,1965,2033,2038,2062
2053,2053,2071,2052,1991,2032,2039,2057
2041,2057,2092,2067,2045,2029,2009,2036
2020,2054,2120,2069,2062,2028,2016,2046
2036,2076,2160,2066,2030,2064,2024,2045
2052,2111,2185,2061,2008,2084,2031,2052
2051,2114,2161,2047,2034,2079,2042,2061
2046,2078,2109,2004,2018,2044,2029,2056
2039,2065,2083,1990,2057,2002,2022,2058
2016,2058,2095,1999,2055,1942,2025,2050
2003,2052,2105,2011,2081,1965,2041,2056
2024,2065,2115,2033,2119,2019,2061,2057
2043,2071,2126,2028,2005,2042,2061,2051
2048,2068,2125,2051,2102,2060,2077,2046
2049,2062,2102,2066,2132,2062,2078,2040
2057,2060,2092,2067,2082,2051,2072,2042
2068,2055,2084,2066,2046,2042,2062,2031
2076,2049,2068,2063,2064,2049,2072,2027
2083,2031,2036,2055,2033,2041,2054,2009
2061,1989,2013,2066,2072,2044,2049,1992
2050,1985,2023,2082,2106,2067,2049,2005
2057,2010,2015,2083,2114,2073,2047,2005
2052,2034,2024,2098,2125,2092,2047,2028
2058,2058,2027,2138,2182,2106,2056,2012
2028,2091,2023,2175,2208,2057,2025,2009
2015,2074,1971,2153,2129,2013,2041,2033
2035,2049,1917,2123,2038,2011,2053,2032
2033,2035,1902,2131,2161,2073,2062,2031
2038,2022,1907,2126,2214,2126,2080,2031
2042,2027,1948,2147,2201,2141,2078,2041
2043,2026,1965,2150,2192,2133,2061,2052
2052,2025,1970,2128,2100,2082,2052,2064
2054,2021,1980,2088,1966,2011,2052,2072
2030,2010,1970,2060,1928,2007,2055,2065
2021,1991,1968,2015,1974,2002,2029,2068
2024,2001,1980,1972,1956,1980,2027,2059
2023,2019,2009,1973,1932,1998,2038,2044
2027,2043,2069,1992,1947,2012,2031,2042
2040,2068,2112,2009,2011,2003,2031,2035
2045,2076,2117,2018,2031,1997,2021,2028
2044,2062,2086,2018,2034,2008,2032,2043
2048,2043,2051,2009,2042,2015,2035,2053
2059,2040,2056,2003,2036,2027,2051,2048
2062,2044,2057,1977,2014,2019,2041,2031
2048,2026,2048,1950,2007,2012,2038,2012
2029,2023,2058,1968,2034,2024,2032,2016
2024,2052,2091,1991,2062,2041,2065,2033
2077,2086,2106,2024,2077,2059,2067,2049
2106,2095,2111,2029,2078,2057,2061,2041
2091,2083,2099,2026,2078,2059,2070,2025
2067,2075,2075,2020,2068,2053,2062,2011
2022,2048,2039,2002,2054,2041,2060,2002
2022,2032,2018,1999,2069,2058,2075,2002
2027,2036,2021,1999,2067,2051,2062,2008
2027,2044,2037,1981,2059,2052,2074,2017
2038,2064,2061,1973,2045,2046,2064,1992
2047,2082,2075,1979,2036,2043,2045,1987
2067,2083,2082,1990,2035,2029,2044,1994
2060,2074,2075,1993,2032,2020,2036,2020
2078,2083,2100,2013,2035,2031,2047,2048
2091,2087,2102,2030,2049,2052,2057,2054
2079,2061,2089,2032,2050,2052,2085,2056
2065,2047,2092,2046,2039,2047,2083,2072
2062,2056,2113,2052,2023,2025,2056,2083
2045,2064,2144,2069,2018,2015,2056,2074
2037,2066,2161,2084,2030,2018,2055,2087
2055,2074,2164,2103,2048,2020,2042,2077
2059,2058,2149,2113,2070,2030,2039,2074
2060,2071,2137,2119,2080,2055,2059,2087
2063,2092,2146,2129,2093,2069,2067,2076
2074,2120,2155,2127,2096,2066,2068,2064
2062,2119,2142,2125,2086,2061,2055,2073
2056,2087,2105,2119,2078,2052,2039,2063
2070,2074,2065,2111,2070,2033,2043,2057
2076,2079,2040,2124,2084,2043,2033,2048
2074,2085,2031,2138,2076,2055,2053,2042
2076,2085,2026,2132,2075,2051,2057,2042
2076,2066,2014,2119,2068,2049,2052,2030
2067,2038,1999,2087,2052,2031,2031,2008
2059,2023,1976,2049,2022,2008,2025,1993
2056,2009,1963,2028,1983,2000,2020,1996
2052,2006,1963,2036,2000,2000,2016,1979
2031,2033,2001,2078,2049,2022,2032,1978
2012,2072,2048,2112,2084,2046,2044,2004
2014,2086,2085,2115,2097,2071,2072,2040
2049,2109,2105,2095,2081,2068,2062,2033
2063,2105,2097,2063,2063,2054,2045,2017
2054,2076,2078,2042,2039,2040,2022,2019
2048,2055,2067,2050,2056,2030,2026,2025
2053,2058,2064,2051,2074,2016,2045,2041
2053,2058,2057,2034,2076,2035,2057,2045
2047,2058,2064,2018,2065,2053,2050,2037
2033,2053,2071,2012,2071,2064,2055,2044
2028,2056,2083,2017,2076,2077,2067,2056
2035,2062,2092,2013,2063,2086,2062,2072
2039,2060,2090,2009,2064,2086,2075,2068
2037,2056,2096,2018,2052,2069,2076,2071
2045,2064,2097,2021,2040,2015,2049,2080
2038,2046,2077,2024,2034,2000,2031,2069
2031,2031,2055,2017,2028,1998,2041,2064
2030,2025,2046,2021,2023,2030,2051,2075
2051,2025,2037,2008,1994,2062,2062,2092
2074,2026,2018,1987,1946,2054,2027,2070
2041,2025,2009,1986,1933,2058,2038,2032
2023,2034,2014,1997,1938,2056,2024,2046
2053,2018,2006,2008,1966,1982,2052,2053
2082,2029,2014,2033,2001,1952,2046,2037
2081,2039,2021,2041,2004,1965,2039,2046
2092,2043,2011,2037,1982,1957,2037,2039
2066,2037,2013,2038,1978,1971,2025,2023
2046,2033,2013,2021,2009,2002,2024,2033
2045,2039,2009,2048,2101,2039,2035,2019
2036,2050,2009,2068,2148,2051,2026,2014
2033,2056,2024,2080,2157,2072,2058,2010
2043,2063,2025,2070,2143,2078,2049,2003
2042,2047,2016,2058,2104,2057,2029,2002
2033,2046,2025,2055,2079,2048,2042,2004
2036,2059,2054,2057,2078,2064,2047,2004
2033,2062,2062,2063,2070,2069,2066,2025
2049,2069,2070,2062,2078,2071,2071,2034
2051,2078,2084,2070,2079,2064,2046,2028
2047,2091,2107,2093,2087,2063,2067,2025
2049,2089,2101,2091,2090,2052,2062,2032
2043,2072,2075,2083,2077,2046,2060,2030
2039,2065,2072,2089,2082,2057,2064,2032
2050,2074,2094,2111,2094,2059,2053,2031
2028,2068,2082,2102,2069,2031,2042,2034
2012,2043,2057,2090,2037,2015,2035,2056
2033,2047,2033,2080,2026,2013,2037,2071
2042,2054,2037,2078,2034,2022,2035,2059
2039,2046,2034,2082,2053,2034,2040,2060
2036,2038,2057,2109,2090,2051,2070,2074
2045,2047,2084,2130,2118,2066,2070,2081
2049,2058,2098,2155,2118,2067,2064,2079
2057,2062,2107,2168,2107,2062,2038,2068
2042,2051,2087,2164,2091,2050,2035,2064
2040,2052,2083,2155,2079,2053,2054,2062
2058,2066,2086,2143,2043,2060,2071,2078
2070,2070,2069,2113,2024,2048,2045,2063
2067,2053,2050,2095,2021,2040,2037,2058
2053,2058,2040,2077,2028,2033,2048,2025
2034,2054,2042,2073,2030,2032,2064,2017
2028,2062,2044,2063,2035,2041,2068,2017
2033,2077,2059,2057,2036,2045,2068,2022
2047,2085,2061,2041,2027,2039,2065,2012
2056,2081,2072,2021,2023,2038,2066,2022
2059,2080,2083,2005,2029,2045,2072,2028
2057,2064,2074,1980,2022,2043,2076,2022
2053,2044,2045,1968,2021,2050,2075,2023
2062,2039,2039,1970,2028,2068,2082,2020
2067,2030,2030,1968,2005,2074,2081,2008
2062,2029,2030,1964,1983,2066,2072,2009
2034,2025,2007,1974,1977,2063,2060,2006
2025,2022,1999,1991,1979,2061,2062,2013
2036,2037,1991,2013,2010,2032,2057,2031
2044,2049,1993,2049,2061,2017,2075,2038
2059,2049,1993,2067,2092,2024,2075,2035
2038,2032,1987,2068,2097,2039,2081,2040
2035,2033,1984,2066,2100,2050,2073,2024
2020,2024,1984,2072,2085,2066,2061,2049
2019,2004,1972,2073,2073,2067,2060,2061
2035,2004,1986,2087,2080,2081,2074,2069
2045,2040,2049,2125,2096,2090,2081,2076
2045,2020,2048,2131,2077,2064,2070,2066
2036,1997,2042,2134,2069,2052,2052,2062
2040,2019,2060,2153,2078,2055,2050,2065
2051,2049,2075,2175,2091,2056,2062,2059
2058,2056,2072,2168,2077,2032,2068,2057
2053,2041,2030,2138,2059,2012,2068,2049
2037,2028,2003,2112,2038,1996,2043,2046
2022,2026,1991,2092,2027,1990,2037,2037
2028,2056,2017,2105,2034,1994,2058,2041
2040,2089,2037,2114,2043,1996,2049,2040
2054,2110,2049,2097,2043,2018,2062,2048
2074,2119,2036,2073,2036,2030,2053,2042
2073,2099,2009,2045,2017,2035,2056,2034
2065,2090,2005,2019,2004,2028,2041,2037
2057,2083,2006,1991,1994,2030,2037,2031
2049,2062,1993,1949,1983,2015,2045,2020
2039,2040,1994,1920,1971,2007,2024,2009
2033,2037,2021,1927,1973,2014,2038,2010
2046,2075,2080,1965,2002,2023,2024,2030
2061,2109,2132,2012,2028,2042,2034,2034
2071,2114,2161,2050,2048,2062,2037,2031
2073,2112,2173,2058,2055,2069,2037,2041
2070,2110,2160,2064,2056,2076,2069,2052
2070,2106,2144,2065,2065,2077,2074,2060
2061,2095,2134,2063,2061,2069,2076,2066
2063,2086,2120,2062,2066,2062,2054,2060
2062,2080,2113,2063,2062,2060,2046,2068
2059,2075,2102,2061,2054,2052,2056,2083
2064,2075,2094,2052,2052,2041,2072,2091
2069,2066,2082,2023,2030,2037,2045,2097
2065,2048,2058,2004,2016,2020,2051,2092
2071,2044,2055,1992,2003,2014,2050,2096
2089,2049,2051,2000,1994,2005,2031,2073
2074,2040,2040,2023,1994,2004,2021,2062
2050,2050,2052,2040,2015,2021,2032,2066
2054,2069,2086,2064,2031,2043,2045,2067
2034,2061,2092,2057,2030,2036,2033,2072
2039,2070,2092,2050,2017,2026,2033,2060
2022,2078,2096,2047,2007,2022,2050,2053
2023,2077,2092,2052,2009,2041,2056,2065
2052,2078,2084,2058,2019,2055,2066,2059
2065,2070,2073,2054,2010,2056,2070,2061
2071,2055,2057,2051,2000,2044,2058,2032
2061,2051,2032,2040,2007,2033,2054,2029
2060,2048,2018,2042,2034,2022,2059,2053
2062,2042,2009,2055,2057,1986,2059,2038
2035,2041,2005,2062,2060,1988,2051,2040
2032,2046,2012,2061,2051,1989,2042,2041
2035,2061,2005,2056,2016,2012,2056,2030
2035,2047,1995,2048,2023,2022,2054,2015
2047,2043,1997,2034,2017,2027,2057,2016
2048,2036,1983,2028,1994,2032,2056,2018
2044,2030,1985,2022,1997,2040,2059,2022
2075,2057,2008,2035,2032,2081,2085,2036
2075,2073,2020,2046,2059,2115,2074,2035
2062,2062,2014,2041,2065,2112,2055,2034
2054,2053,2027,2033,2078,2092,2043,2022
2043,2055,2050,2031,2094,2082,2035,2013
2024,2056,2067,2045,2061,2072,2017,2017
2027,2061,2097,2047,2024,2052,2018,2028
2030,2071,2110,2055,2022,2044,2022,2043
2041,2073,2100,2055,2037,2061,2052,2075
2061,2068,2090,2058,2038,2069,2056,2083
2053,2065,2091,2052,2028,2054,2050,2088
2049,2075,2094,2054,2016,2014,2050,2089
2054,2068,2081,2039,2010,1994,2030,2086
2048,2070,2075,2040,2025,1999,2047,2084
2043,2074,2075,2057,2075,2009,2035,2078
2048,2079,2073,2064,2107,2024,2047,2086
2049,2077,2071,2071,2122,2030,2047,2079
2042,2078,2073,2080,2138,2038,2034,2080
2044,2080,2068,2076,2103,2040,2026,2073
2056,2083,2072,2068,2089,2034,2038,2063
2057,2082,2059,2058,2028,2032,2058,2057
2055,2074,2059,2040,1972,2021,2049,2046
2057,2076,2058,2037,1908,2006,2059,2045
2065,2085,2064,2037,1918,2005,2062,2047
2067,2080,2060,2039,1936,2006,2048,2034
2065,2072,2053,2037,1955,2023,2041,2016
2050,2064,2050,2036,1962,2042,2037,2009
2047,2063,2056,2036,1962,2045,2050,2012
2046,2066,2056,2044,1968,2051,2057,2011
2050,2062,2046,2043,1994,2069,2059,2022
2065,2071,2035,2054,2010,2089,2050,2013
2059,2063,2040,2057,2023,2107,2057,2013
2058,2068,2042,2080,2054,2124,2062,2022
2064,2072,2054,2091,2085,2155,2066,2026
2054,2064,2050,2104,2131,2196,2079,2036
2057,2062,2048,2107,2145,2216,2081,2040
2048,2048,2033,2101,2166,2188,2080,2040
2052,2047,2024,2081,2116,2034,2076,2031
2049,2043,2013,2042,2002,1894,2059,2043
2050,2045,2004,2056,2011,1924,2062,2055
2063,2048,2009,2071,2018,1982,2075,2077
2065,2044,2020,2088,2046,2029,2071,2087
2070,2041,2034,2122,2114,2047,2069,2082
2068,2046,2053,2129,2099,2030,2063,2067
2034,2022,2039,2117,2080,2030,2061,2059
2039,2021,2035,2096,2063,2037,2064,2063
2059,2031,2033,2090,2039,2024,2058,2061
2039,2005,2010,2050,1928,2014,2057,2067
2047,2006,1998,2032,1883,2020,2056,2052
2039,2017,2006,2047,1981,2039,2059,2058
2061,2056,2035,2079,2052,2049,2072,2066
2040,2066,2054,2074,2049,2046,2052,2030
2009,2048,2049,2043,1997,2038,2063,2032
2031,2039,2033,2015,1990,2041,2064,2038
2053,2032,2029,2029,2046,2038,2072,2055
2055,2047,2037,2041,2078,2021,2057,2037
2039,2040,2038,2027,2044,2017,2047,2008
2017,2044,2066,2028,2010,2026,2055,2015
2048,2077,2098,2033,2023,2046,2064,2018
2064,2101,2103,2024,2029,2056,2048,2012
2056,2081,2062,1997,2041,2052,2056,2016
2042,2070,2044,1997,2058,2060,2076,2029
2066,2092,2058,2019,2078,2070,2066,2034
2056,2086,2064,2032,2089,2074,2073,2034
2052,2078,2058,2030,2099,2056,2055,2024
2044,2062,2038,2018,2084,2030,2048,2027
2050,2053,2036,2014,2038,2002,2039,2040
2063,2062,2049,2026,1987,2000,2050,2049
2061,2049,2043,2025,1952,1997,2045,2049
2059,2050,2043,2029,1966,2017,2055,2062
2060,2064,2062,2045,1983,2039,2070,2078
2072,2092,2086,2055,2007,2042,2081,2090
2069,2080,2072,2039,2005,2043,2078,2082
2042,2065,2053,2032,2005,2028,2039,2065
2018,2057,2045,2040,2018,2028,2032,2068
2038,2043,2051,2050,2026,2035,2030,2079
2054,2032,2040,2050,2010,2016,2032,2082
2056,2017,2043,2054,2011,2025,2047,2093
2038,2017,2050,2056,2017,2026,2051,2086
2033,2024,2046,2061,2019,2037,2051,2082
2038,2016,2034,2065,2014,2033,2038,2066
2042,2023,2029,2078,2032,2051,2048,2074
2087,2064,2061,2100,2040,2055,2057,2069
2097,2069,2057,2103,2042,2051,2054,2052
2084,2077,2059,2103,2044,2051,2051,2066
2062,2062,2044,2091,2027,2036,2061,2059
2027,2052,2018,2074,2027,2036,2057,2056
2037,2060,2020,2059,2025,2049,2053,2033
2037,2054,2028,2062,2031,2070,2030,2024
2042,2054,2031,2046,2033,2063,2028,2028
2048,2048,2025,2030,2021,2040,2027,2027
2055,2053,2030,2031,2019,2036,2044,2021
2060,2049,2022,2027,2023,2033,2032,2016
2050,2038,2015,2023,2007,2030,2032,2015
2045,2057,2033,2038,2029,2032,2048,2021
2050,2058,2044,2038,2028,2028,2047,2018
2031,2051,2035,2029,2013,2038,2045,2023
2029,2050,2035,2021,2008,2044,2037,2039
2043,2060,2054,2030,2021,2057,2056,2052
2060,2080,2080,2046,2047,2051,2051,2060
2059,2089,2095,2038,1970,2045,2049,2071
2068,2089,2092,2009,1903,2032,2041,2081
2074,2085,2088,2019,1984,2026,2049,2091
2081,2076,2085,2038,2045,2016,2058,2084
2069,2058,2072,2040,2044,2016,2044,2083
2041,2042,2065,2051,2024,2034,2051,2076
2045,2039,2068,2058,2007,2036,2043,2071
2025,2031,2056,2060,2039,2054,2036,2052
2015,2019,2054,2070,2060,2063,2015,2072
2036,2023,2056,2068,2059,2068,2012,2073
2026,2024,2058,2067,2057,2069,2037,2075
2025,2031,2065,2071,2068,2080,2042,2098
2040,2047,2070,2075,2094,2084,2061,2081
2038,2052,2071,2070,2086,2077,2056,2080
2043,2039,2049,2066,2053,2033,2036,2077
2061,2039,2042,2050,2036,1990,2018,2065
2056,2031,2034,2042,2027,1990,2001,2032
2039,2039,2040,2062,2049,2018,2007,2022
2064,2043,2048,2069,2050,2039,2047,2046
2075,2024,2042,2069,2048,2034,2051,2040
2070,2026,2042,2068,2037,2038,2049,2043
2055,2029,2038,2061,2040,2058,2059,2038
2056,2035,2028,2058,2049,2070,2040,2034
2065,2056,2033,2062,2036,2073,2037,2005
2051,2043,2024,2063,2038,2062,2051,1985
2035,2023,2008,2052,2029,2035,2061,1996
2050,2026,2000,2062,2048,2025,2072,2017
2042,2033,1993,2058,2050,2034,2070,2018
2023,2047,1993,2052,2043,2030,2052,2015
2015,2056,2002,2060,2034,2023,2035,2019
2026,2058,2010,2049,2006,2006,2045,2033
2044,2064,2014,2042,1985,2001,2019,2031
2042,2062,2017,2035,1978,2005,2012,2032
2037,2058,2031,2025,1978,1996,2005,2032
2022,2044,2036,2022,2004,2013,2018,2042
2037,2062,2058,2041,2044,2037,2050,2065
2056,2078,2084,2054,2080,2058,2063,2090
2062,2088,2098,2052,2086,2060,2058,2084
2066,2081,2094,2049,2066,2046,2058,2086
2056,2068,2084,2044,2049,2042,2045,2086
2042,2058,2081,2040,2021,2048,2011,2084
2032,2046,2070,2035,2018,2054,2013,2078
2038,2053,2070,2041,2005,2062,2016,2083
2040,2056,2057,2036,1989,2048,2031,2081
2038,2046,2047,2033,1974,2034,2021,2080
2040,2046,2050,2032,2004,2033,2040,2072
2046,2054,2058,2046,2023,2052,2020,2061
2052,2052,2053,2041,2024,2061,2021,2054
2050,2063,2073,2059,2066,2061,2039,2065
2073,2082,2099,2093,2104,2022,2069,2067
2075,2082,2090,2088,2103,2027,2064,2057
2064,2070,2078,2078,2083,2051,2068,2046
2064,2058,2067,2061,2037,2063,2048,2039
2060,2054,2061,2047,1977,2074,2033,2033
2049,2052,2049,2021,1920,2058,2031,2012
2032,2037,2043,2011,1889,2043,2034,2009
2036,2040,2038,2008,1891,2012,2023,2017
2035,2039,2047,2024,1947,1952,2031,2031
2047,2049,2056,2049,2044,1961,2062,2043
2051,2046,2052,2068,2102,1990,2078,2041
2059,2047,2054,2080,2140,2026,2057,2043
2044,2044,2057,2083,2125,2040,2064,2042
2051,2038,2043,2073,2092,2046,2076,2046
2054,2044,2046,2069,2072,2063,2087,2051
2064,2051,2053,2067,2061,2071,2090,2051
2070,2060,2057,2073,2050,2066,2065,2056
2073,2043,2052,2058,2031,2043,2046,2061
2059,2038,2047,2046,2021,2029,2045,2068
2053,2036,2047,2058,2019,2046,2061,2075
2050,2035,2051,2059,2031,2069,2069,2081
2049,2043,2049,2064,2046,2064,2053,2078
2048,2032,2038,2077,2058,2072,2053,2079
2042,2033,2041,2090,2089,2082,2050,2072
2026,2037,2044,2099,2088,2088,2040,2076
2017,2040,2047,2101,2104,2090,2032,2075
2041,2045,2046,2094,2102,2090,2032,2074
2051,2042,2043,2083,2083,2072,2039,2073
2058,2051,2050,2074,2061,2053,2034,2073
2067,2050,2048,2066,2057,2032,2049,2059
2052,2039,2042,2059,2047,2007,2041,2038
2038,2029,2045,2055,2046,1999,2038,2037
2033,2031,2046,2044,2042,1997,2046,2039
2043,2038,2053,2053,2040,1976,2028,2041
2049,2049,2054,2058,2031,1983,2035,2044
2057,2052,2058,2053,2027,2006,2028,2043
2052,2048,2047,2039,2026,2020,2033,2031
2046,2036,2036,2029,2028,2041,2051,2021
2043,2032,2026,2022,2019,2040,2042,2020
2039,2030,2019,2021,2002,2034,2040,2019
2040,2025,2019,2021,1990,2043,2040,2022
2045,2028,2026,2024,2034,2058,2060,2027
2042,2037,2026,2030,2074,2079,2052,2028
2050,2046,2042,2051,2124,2103,2057,2041
2055,2042,2045,2061,2133,2101,2077,2048
2052,2050,2044,2060,2136,2098,2075,2054
2054,2049,2041,2056,2158,2114,2072,2058
2050,2049,2043,2063,2132,2107,2072,2050
2058,2059,2045,2060,2089,2098,2060,2057
2063,2066,2044,2049,1984,2083,2068,2069
2070,2065,2035,2040,1926,2068,2057,2073
2067,2062,2041,2045,1959,2077,2066,2078
2052,2051,2042,2057,1999,2054,2053,2090
2059,2064,2053,2065,2022,2052,2068,2097
2067,2070,2054,2042,1954,2065,2077,2105
2058,2052,2032,2006,1908,2076,2069,2091
2036,2001,1997,1984,1953,2053,2051,2080
2031,1987,1988,1999,2041,2023,2054,2086
2043,2018,2021,2062,2130,2060,2065,2083
2047,2033,2048,2098,2215,2099,2082,2080
2046,2042,2063,2111,2236,2111,2071,2068
2040,2045,2075,2096,2158,2075,2072,2053
2042,2047,2073,2081,2138,2050,2055,2041
2051,2053,2064,2060,2078,2015,2045,2049
2055,2042,2046,2068,2126,2037,2039,2048
2068,2036,2048,2068,2199,2064,2052,2032
2056,2031,2057,2079,2202,2089,2036,2037
2066,2057,2088,2093,2193,2113,2032,2043
2040,2075,2094,2052,1867,2062,2032,2028
2036,2072,2085,1968,1548,1948,1992,2018
2034,2054,2050,1931,1564,1895,1991,1999
2037,2037,2037,1973,1784,1934,1992,2002
2034,2028,2034,2026,1951,1939,2004,2008
2028,2020,2026,2059,2056,1958,2020,2008
2040,2023,2027,2070,2095,1978,2039,2025
2045,2022,2017,2055,2082,1992,2046,2013
2035,2026,2025,2058,2077,2004,2047,2008
2032,2031,2033,2044,2071,2015,2044,2025
2031,2019,2021,2042,2041,2019,2046,2036
2045,2014,2031,2042,2029,2022,2033,2042
2056,2021,2031,2050,2018,2009,2043,2048
2056,2011,2027,2040,2015,1983,2025,2038
2044,2006,2013,2037,2014,1983,2024,2045
2032,1996,2007,2037,2019,2022,2040,2045
2030,2001,2006,2040,2036,2047,2029,2047
2025,2015,2010,2042,2059,2060,2039,2054
2039,2041,2031,2055,2060,2069,2052,2091
2070,2074,2045,2058,2084,2092,2057,2098
2042,2054,2027,2045,2076,2080,2056,2083
2019,2041,2027,2045,2093,2088,2049,2084
2030,2043,2040,2058,2087,2100,2069,2090
2056,2055,2042,2054,2039,2106,2060,2087
2058,2056,2047,2036,1964,2108,2062,2085
2054,2052,2047,2025,1889,2115,2063,2069
2056,2047,2038,1999,1840,2102,2041,2048
2048,2045,2035,1987,1796,2064,2032,2037
2044,2057,2052,2002,1789,1990,2023,2050
2060,2079,2088,2036,1808,1929,2010,2069
2075,2095,2111,2076,1902,1907,2020,2070
2076,2088,2094,2098,2029,1954,2025,2062
2076,2085,2095,2143,2211,2054,2051,2064
2076,2081,2091,2156,2229,2139,2057,2037
2058,2057,2064,2114,2135,2165,2042,2023
2041,2027,2035,2100,2137,2154,2054,2007
2030,2012,2018,2097,2146,2077,2026,1992
2023,2002,2002,2089,2124,2005,2028,2008
2030,2013,2006,2077,2067,2045,2035,2013
2045,2034,2018,2052,1975,2072,2045,2005
2044,2040,2017,2050,1952,2085,2040,2003
2042,2041,2016,2046,1947,2072,2020,2005
2046,2040,2016,2038,1984,2035,2006,2027
2052,2038,2014,2044,2092,2020,2052,2063
2071,2026,2005,2017,2099,2076,2056,2063
2058,2020,2000,1973,2001,2091,2022,2035
2038,2023,2006,1965,1976,2096,2014,2014
2032,2035,2004,1979,1940,2078,2007,2013
2020,2012,2006,1994,1973,2005,2017,2048
2023,2023,2020,2039,2080,1968,2062,2091
2048,2055,2057,2079,2144,1988,2051,2108
2073,2069,2079,2080,2146,2012,2052,2107
2071,2060,2072,2050,2088,1973,2035,2099
2055,2046,2064,2039,2096,1959,2046,2100
2059,2046,2070,2048,2102,1970,2054,2102
2072,2057,2072,2025,2039,2001,2060,2094
2071,2057,2071,2032,2042,2034,2064,2092
2061,2051,2087,2072,2087,2066,2081,2086
2067,2059,2097,2091,2102,2084,2089,2078
2067,2071,2105,2112,2143,2117,2088,2068
2070,2053,2085,2105,2128,2112,2081,2060
2051,2022,2058,2077,2091,2092,2061,2046
2038,2004,2051,2055,2049,2099,2055,2036
2049,2017,2058,2045,2085,2089,2074,2028
2057,2034,2066,2056,2081,2067,2056,2035
2051,2051,2070,2081,2084,2072,2074,2039
2052,2050,2073,2096,2042,2054,2078,2044
2059,2070,2066,2068,1942,2095,2096,2043
2068,2073,2046,2038,1981,2143,2110,2037
2057,2051,2020,2009,1972,2143,2090,2028
2049,2031,2008,1994,1948,2143,2084,2029
2048,2029,2008,1988,1942,2121,2075,2022
2048,2018,1991,1971,1946,2027,2038,2015
2043,2000,1983,1948,1989,1965,2016,2011
2027,2001,1996,1972,2096,2014,2040,2009
2048,2020,2028,2026,2179,2057,2071,2044
2064,2043,2045,2042,2172,2042,2086,2050
2061,2046,2041,2041,2145,2041,2066,2039
2052,2052,2068,2064,2168,2070,2071,2045
2056,2062,2075,2076,2181,2074,2063,2064
2067,2056,2070,2069,2122,2041,2068,2083
2068,2056,2074,2077,2073,2022,2072,2090
2060,2049,2072,2080,2084,2038,2051,2082
2044,2031,2050,2055,2053,2054,2067,2072
2039,2022,2034,2040,1936,2075,2070,2085
2041,2038,2055,2080,2060,2076,2066,2096
2041,2045,2046,2099,2049,2047,2057,2087
2048,2042,2043,2113,2120,2061,2048,2066
2045,2038,2038,2137,2192,2072,2052,2060
2035,2020,2030,2111,2099,2046,2036,2067
2033,2013,2026,2064,1879,2005,2038,2054
2040,2031,2036,2040,1844,2017,2049,2049
2046,2035,2039,2047,2012,2032,2059,2042
2048,2047,2041,2090,2169,2053,2062,2046
2061,2053,2048,2095,2152,2043,2065,2042
2066,2053,2032,2067,2044,2015,2056,2038
2066,2039,2010,2039,1966,1993,2036,2018
2047,2021,1999,2033,1963,1997,2037,2006
2048,2014,2012,2044,1993,2013,2049,2016
2065,2025,2021,2038,2034,2024,2042,2023
2069,2019,2019,2018,2045,2015,2017,2006
2038,1987,1993,1983,2019,1983,2011,1987
2025,1978,1992,1971,1998,1992,2021,1992
2045,2013,2037,1984,2008,2021,2048,2025
2056,2048,2074,2004,2038,2059,2051,2039
2065,2064,2101,2031,2067,2078,2072,2040
2051,2069,2091,2033,2067,2073,2081,2032
2002,2045,2076,2041,2076,2086,2069,2038
2020,2062,2077,2064,2110,2101,2085,2055
2067,2086,2096,2086,2122,2102,2078,2065
2085,2095,2109,2085,2113,2104,2087,2064
2064,2074,2082,2061,2082,2078,2079,2061
2043,2069,2057,2044,2030,2029,2058,2066
2041,2074,2054,2040,1957,2001,2053,2078
2043,2054,2050,2040,1918,1976,2059,2097
2052,2052,2055,2060,1948,2004,2083,2091
2052,2037,2053,2067,1987,2064,2098,2088
2054,2026,2046,2060,2076,2093,2089,2097
2054,2021,2034,2056,2147,2076,2079,2114
2057,2008,2011,2038,2171,2024,2060,2116
2050,2012,2020,2048,2182,2008,2055,2104
2050,2030,2044,2055,2161,2035,2058,2069
2042,2040,2068,2037,2102,2039,2052,2035
2038,2051,2073,2035,2083,2044,2052,2036
2042,2048,2063,2037,2089,2056,2045,2025
2041,2046,2051,2035,2013,2089,2041,2017
2034,2049,2045,2056,2050,2113,2056,2002
2037,2040,2036,2050,1998,2117,2045,2010
2039,2031,2034,2036,1964,2047,2008,2009
2043,2034,2028,2041,1963,1988,2008,1996
2041,2021,2015,2039,2000,2006,2004,1999
2033,2021,2010,2040,2010,2063,2029,2001
2039,2030,2015,2040,2018,2079,2034,1988
2028,2026,2014,2034,2011,2061,2032,1987
2024,2027,2018,2033,2025,2057,2026,1990
2044,2048,2017,2034,2038,2060,2052,2008
2059,2053,2020,2035,2038,2050,2051,2018
2070,2049,2021,2023,2002,2057,2048,2016
2075,2043,2034,2026,1969,2063,2033,2006
2072,2043,2040,2038,1959,2058,2044,2009
2070,2035,2043,2048,1956,2018,2046,2013
2052,2004,2038,2057,1996,1973,2054,2047
2050,1996,2029,2056,2052,2005,2064,2073
2042,1993,2037,2065,2063,2027,2059,2061
2028,2036,2074,2091,2088,2064,2061,2066
2056,2075,2113,2117,2084,2077,2065,2077
2060,2076,2120,2121,2057,2072,2065,2077
2051,2070,2115,2117,2049,2077,2065,2092
2056,2077,2098,2110,2042,2083,2072,2108
2061,2070,2072,2094,2040,2073,2051,2096
2043,2035,2044,2064,2019,2044,2028,2061
2020,2035,2048,2047,2017,2044,2030,2059
2018,2041,2049,2056,2075,2070,2036,2075
2036,2049,2044,2066,2130,2088,2033,2072
2056,2053,2035,2056,2123,2091,2027,2063
2046,2032,2023,2054,2098,2084,2031,2039
2017,2029,2026,2052,2066,2056,2047,2040
2014,2030,2041,2042,2020,2034,2041,2037
2021,2028,2050,2033,1999,2034,2043,2029
2024,2022,2035,2036,1998,2054,2041,2017
2031,2016,2037,2036,2008,2053,2041,2002
2021,2002,2042,2054,2037,2031,2037,2006
2041,2029,2076,2086,2088,2031,2057,2009
2060,2055,2087,2102,2114,2060,2063,2016
2068,2059,2087,2103,2102,2071,2069,2020
2052,2056,2075,2103,2081,2071,2063,2017
2035,2050,2057,2094,2057,2048,2050,2012
2039,2051,2045,2084,2046,2038,2036,2011
2036,2049,2022,2073,2051,2042,2039,2018
2033,2031,2008,2052,2045,2052,2038,2022
2034,2038,2014,2042,2048,2052,2056,2020
2049,2053,2026,2035,2047,2061,2053,2024
2060,2068,2048,2042,2056,2071,2055,2042
2067,2085,2079,2044,2070,2075,2066,2042
2066,2087,2081,2030,2054,2047,2067,2054
2058,2089,2082,2018,2051,2053,2069,2064
2064,2080,2072,2003,2034,2054,2062,2077
2065,2074,2056,1991,2024,2064,2053,2085
2068,2070,2051,1993,2041,2090,2058,2095
2077,2065,2045,2002,2041,2091,2055,2096
2069,2048,2031,2013,2040,2070,2028,2083
2038,2032,2005,2006,2039,2016,2019,2065
2017,2017,1995,2013,2039,1991,2041,2076
2031,2023,2003,2017,2039,1999,2042,2089
2046,2034,2007,2028,2036,2018,2040,2078
2042,2041,2008,2038,2053,2033,2052,2073
2052,2040,2015,2038,2048,2037,2055,2064
2060,2045,2007,2036,2047,2038,2050,2066
2061,2047,2000,2035,2046,2032,2044,2052
2054,2040,1998,2030,2041,2031,2049,2049
2047,2037,1993,2025,2034,2026,2028,2043
2044,2035,2005,2035,2040,2030,2032,2034
2041,2035,2034,2044,2044,2035,2038,2028
2043,2046,2049,2042,2043,2042,2044,2021
2046,2048,2063,2041,2035,2047,2046,2027
2057,2056,2077,2044,2040,2047,2055,2022
2065,2066,2096,2045,2043,2055,2055,2024
2070,2074,2102,2044,2047,2061,2052,2020
2068,2059,2092,2046,2048,2067,2067,2019
2056,2045,2070,2044,2052,2071,2066,2018
2037,2040,2061,2043,2063,2075,2043,2032
2058,2059,2066,2052,2064,2089,2064,2049
2080,2075,2057,2053,2071,2085,2076,2058
2094,2067,2036,2044,2061,2085,2045,2053
2085,2050,2022,2032,2053,2050,2036,2041
2077,2044,2030,2039,2042,2018,2054,2047
2064,2052,2049,2063,2073,2030,2045,2049
2046,2047,2064,2078,2139,2037,2067,2063
2051,2050,2068,2089,2143,2033,2062,2070
2051,2043,2066,2090,2094,2021,2062,2073
2047,2039,2065,2087,2053,2007,2026,2077
2043,2030,2059,2080,2009,1982,2021,2068
2040,2030,2055,2078,1968,1974,2039,2092
2053,2048,2052,2085,1957,1980,2043,2097
2056,2050,2046,2054,1844,1978,2013,2086
2048,2047,2040,2035,1774,2023,2029,2086
2059,2049,2054,2067,1913,2063,2062,2084
2066,2046,2060,2074,1987,2054,2050,2078
2057,2037,2046,2064,2058,2055,2042,2058
2049,2019,2032,2040,2092,2033,2026,2039
2032,2004,2016,2021,2111,2018,2022,2045
2029,2006,2010,2012,2109,2027,2040,2046
2026,2016,2015,2005,2104,2046,2054,2042
2024,2049,2037,2010,2096,2059,2054,2042
2049,2060,2044,2007,2101,2077,2054,2043
2060,2057,2054,2014,2106,2091,2056,2031
2058,2060,2052,2019,2108,2084,2052,2025
2050,2053,2051,2016,2095,2067,2065,2014
2054,2054,2051,2012,2046,2029,2040,2016
2053,2060,2064,2021,1975,2018,2025,2010
2045,2059,2068,2036,1989,2038,2047,2002
2053,2068,2080,2065,2028,2062,2063,2029
2064,2066,2079,2066,2054,2054,2062,2025
2063,2065,2087,2066,2075,2051,2064,2027
2066,2073,2095,2075,2096,2059,2074,2028
2067,2072,2091,2082,2094,2073,2067,2029
2062,2069,2086,2082,2080,2096,2066,2022
2056,2069,2085,2083,2076,2108,2052,2029
2052,2059,2076,2082,2076,2102,2082,2040
2048,2053,2073,2080,2069,2099,2078,2058
2052,2058,2068,2080,2065,2094,2073,2075
2058,2060,2059,2081,2060,2098,2065,2076
2048,2058,2054,2071,2044,2096,2064,2082
2044,2053,2048,2049,2036,2082,2068,2071
2043,2039,2040,2040,2036,2079,2058,2076
2035,2028,2036,2019,1991,2063,2045,2079
2031,2023,2031,2010,1968,2051,2047,2091
2036,2025,2032,2007,1936,2048,2059,2087
2042,2023,2018,1983,1912,2015,2054,2092
2042,2022,2013,1982,1939,1998,2065,2098
2043,2032,2049,2007,2003,2030,2077,2092
2045,2064,2075,2029,2022,2066,2072,2072
2060,2077,2083,2039,2058,2103,2068,2082
2089,2051,2056,2044,2029,2111,2066,2090
2095,2025,2021,2025,1981,2087,2065,2081
2077,2008,1986,1994,1954,2059,2025,2044
2060,2004,1984,1981,1951,2047,2027,2019
2072,2028,2008,2009,2090,2079,2030,1998
2073,2053,2039,2044,2117,2089,2048,1998
2064,2056,2042,2046,2146,2057,2038,2001
2031,2048,2038,2039,2171,2040,2039,2012
2019,2032,2029,2039,2153,2044,2045,2017
2009,2027,2023,2046,2142,2056,2033,2030
2025,2046,2020,2056,2146,2054,2041,2022
2022,2051,2017,2058,2139,2042,2041,2021
2031,2043,2022,2062,2138,2051,2043,2017
2029,2034,2014,2048,2103,2043,2047,2030
2035,2031,2011,2039,2087,2045,2054,2041
2047,2054,2020,2048,2081,2063,2048,2046
2062,2074,2031,2045,2077,2062,2049,2049
2063,2064,2039,2033,2038,2039,2048,2053
2049,2054,2037,2029,2013,2014,2037,2047
2043,2044,2040,2029,2014,2021,2052,2047
2034,2041,2057,2049,2035,2049,2055,2057
2032,2043,2059,2048,2051,2066,2059,2066
2031,2038,2060,2046,2065,2078,2063,2078
2038,2053,2069,2054,2064,2078,2062,2079
2047,2058,2086,2058,2063,2070,2043,2077
2050,2068,2088,2055,2060,2069,2053,2096
2069,2074,2091,2042,2035,2076,2056,2100
2075,2069,2095,2026,1998,2064,2045,2093
2049,2052,2088,2025,1998,2057,2028,2074
2044,2041,2084,2046,2026,2056,2031,2069
2054,2040,2074,2059,2048,2032,2035,2069
2063,2043,2078,2067,2054,1966,2037,2068
2067,2050,2093,2077,2043,1971,2014,2063
2058,2046,2100,2078,2011,2003,2019,2055
2050,2040,2090,2067,1989,2030,2015,2026
2016,2023,2072,2058,1971,2046,2002,2017
2023,2047,2085,2049,1998,2039,2035,2028
2056,2077,2100,2083,2076,2040,2044,2039
2081,2084,2106,2103,2122,2058,2053,2037
2067,2070,2095,2099,2126,2093,2053,2032
2052,2058,2081,2108,2125,2110,2053,2021
2047,2048,2068,2109,2111,2104,2054,2022
2050,2046,2063,2110,2105,2100,2053,2037
2064,2059,2058,2113,2096,2091,2047,2029
2050,2056,2059,2108,2085,2082,2048,2021
2056,2060,2054,2094,2075,2082,2047,2019
2051,2063,2048,2091,2081,2079,2038,2023
2052,2063,2050,2073,2082,2058,2026,2019
2049,2055,2042,2060,2064,2072,2026,2020
2051,2054,2038,2047,2065,2046,2025,2033
2043,2036,2030,2031,2068,2007,1996,2034
2036,2029,2015,2010,2059,2019,2017,2050
2035,2028,2027,2002,2066,2035,2034,2059
2050,2053,2063,2029,2085,2042,2038,2073
2059,2069,2092,2034,2075,2031,2051,2090
2056,2072,2098,2033,2066,2043,2058,2102
2063,2070,2089,2019,2044,2034,2039,2103
2055,2060,2062,2014,2011,2010,2008,2096
2051,2043,2048,2003,1982,1997,2021,2096
2068,2053,2053,2008,1957,2002,2035,2099
2056,2056,2051,2013,1960,1972,2013,2093
2052,2044,2046,2011,1985,1969,2022,2077
2054,2045,2049,2017,2023,1986,2029,2081
2065,2061,2059,2032,2051,1993,2030,2078
2072,2067,2064,2047,2077,2021,2048,2073
2059,2056,2053,2053,2113,2064,2032,2049
2041,2045,2044,2044,2106,2088,2051,2038
2025,2054,2046,2041,2075,2112,2051,2043
2022,2060,2045,2036,2062,2110,2048,2056
2047,2064,2041,2028,2045,2102,2047,2045
2065,2057,2030,2026,2047,2093,2045,2033
2060,2045,2029,2036,2045,2089,2059,2030
2051,2035,2030,2035,2045,2095,2044,2032
2043,2045,2029,2036,2044,2105,2030,2024
2037,2044,2028,2031,2045,2129,2035,2022
2036,2043,2033,2034,2057,2157,2038,2018
2038,2038,2026,2026,2046,2153,2046,2010
2027,2028,2016,2020,2014,2064,2016,2006
2024,2022,2014,2007,1994,1989,2008,2001
2024,2026,2014,2011,1992,2005,2005,2006
2039,2030,2025,2028,1994,2005,2002,2028
2050,2043,2044,2052,2055,1993,2020,2065
2063,2050,2047,2069,2119,2031,2062,2067
2069,2062,2056,2081,2137,2073,2078,2068
2077,2069,2060,2081,2144,2093,2076,2065
2068,2062,2049,2075,2120,2084,2060,2059
2059,2056,2054,2065,2095,2080,2046,2072
2057,2062,2052,2055,2066,2079,2044,2071
2043,2059,2049,2051,2056,2084,2038,2082
2047,2048,2046,2052,2052,2076,2051,2083
2045,2040,2038,2041,2037,2053,2025,2083
2039,2042,2040,2045,2017,2043,2032,2088
2049,2045,2041,2043,2033,2046,2034,2080
2043,2045,2039,2044,2037,2042,2035,2072
2041,2049,2047,2051,2039,2049,2025,2070
2043,2054,2055,2058,2022,2053,2035,2069
2046,2052,2058,2060,2035,2063,2041,2056
2058,2055,2061,2056,2070,2069,2054,2055
2047,2053,2060,2066,2082,2082,2052,2051
2044,2055,2066,2074,2084,2084,2054,2038
2050,2063,2072,2073,2083,2097,2060,2045
2050,2054,2077,2070,2100,2107,2051,2041
2050,2058,2069,2068,2097,2089,2038,2039
2053,2055,2057,2060,2093,2077,2034,2027
2066,2065,2064,2068,2110,2088,2036,2029
2075,2065,2064,2070,2096,2094,2033,2022
2075,2053,2048,2057,2058,2044,1997,2012
2061,2025,2029,2030,2016,2005,2011,1997
2039,2011,2026,2006,2011,2023,2040,2008
2052,2036,2049,2020,2034,2049,2046,2012
2040,2042,2063,2036,2050,2065,2042,2013
2030,2051,2066,2041,2051,2039,2042,2038
2055,2060,2068,2047,2047,2004,2047,2056
2075,2059,2062,2052,2051,2006,2049,2061
2081,2056,2057,2043,2044,2017,2056,2055
2069,2059,2060,2043,2044,2048,2056,2029
2060,2064,2064,2051,2056,2067,2049,2023
2043,2057,2066,2044,2061,2071,2048,2043
2041,2047,2061,2046,2062,2076,2072,2064
2042,2050,2053,2044,2062,2077,2068,2081
2049,2056,2059,2052,2059,2074,2071,2092
2069,2063,2061,2056,2061,2074,2063,2095
2066,2062,2067,2053,2065,2069,2051,2081
2050,2053,2054,2045,2074,2065,2046,2085
2046,2046,2062,2053,2096,2066,2045,2089
2055,2056,2069,2056,2078,2066,2051,2081
2056,2046,2063,2054,2089,2066,2060,2081
2055,2038,2053,2053,2074,2060,2059,2072
2043,2023,2040,2041,2043,2045,2044,2051
2038,2040,2055,2046,2033,2054,2049,2056
2042,2055,2066,2052,2041,2054,2047,2054
2049,2051,2061,2047,2038,2036,2031,2050
2055,2056,2060,2052,2045,2018,2021,2021
2036,2050,2054,2062,2045,2026,2026,2031
2050,2053,2058,2063,2052,2033,2038,2052
2079,2047,2052,2055,2036,2026,2032,2050
2076,2052,2051,2056,2051,2020,2039,2028
2069,2061,2065,2059,2077,2020,2031,2004
2056,2064,2066,2050,2078,2027,2034,1996
2042,2042,2041,2032,2091,2032,2029,2000
2033,2036,2047,2040,2097,2059,2052,2018
2035,2056,2059,2054,2080,2078,2059,2024
2040,2066,2071,2058,2085,2088,2070,2027
2054,2071,2063,2065,2086,2079,2066,2035
2052,2064,2059,2052,1985,2055,2051,2030
2062,2062,2050,2034,1952,2032,2056,2033
2061,2053,2044,2038,1969,2025,2071,2042
2059,2056,2045,2038,1990,2028,2061,2051
2068,2054,2037,2023,1999,2020,2056,2042
2059,2047,2037,2026,2016,2041,2064,2046
2060,2053,2044,2052,2042,2055,2059,2050
2048,2043,2039,2054,2041,2042,2063,2072
2043,2038,2039,2054,2039,2060,2064,2078
2056,2050,2045,2061,2033,2068,2058,2083
2047,2046,2035,2064,2069,2069,2038,2076
2021,2029,2019,2067,2102,2067,2042,2063
2022,2019,2021,2064,2089,2051,2043,2070
2029,2020,2034,2073,2077,2021,2036,2076
2042,2034,2033,2080,2108,2012,2058,2072
2047,2044,2038,2093,2159,2038,2043,2072
2042,2049,2037,2096,2158,2060,2060,2077
2053,2046,2036,2099,2122,2066,2064,2071
2055,2045,2023,2072,1975,2053,2060,2075
2063,2045,2012,2031,1851,2045,2059,2074
2074,2059,2027,2059,1993,2064,2053,2057
2079,2062,2034,2071,2074,2062,2048,2046
2072,2062,2028,2059,2072,2039,2061,2032
2053,2049,2031,2039,2004,2037,2056,2017
2040,2041,2033,2033,1969,2048,2061,2004
2039,2040,2039,2021,1931,2051,2046,2010
2042,2034,2031,1996,1936,2049,2046,2003
2039,2030,2029,1987,1971,2035,2042,2003
2044,2025,2031,1996,2038,2009,2046,2005
2047,2017,2040,2026,2112,2022,2063,2008
2056,2039,2062,2059,2125,2042,2042,2015
2052,2049,2076,2065,2120,2072,2048,2009
2049,2046,2083,2074,2125,2086,2039,2007
2046,2040,2096,2077,2130,2083,2034,2022
2051,2049,2109,2082,2110,2081,2038,2017
2061,2044,2102,2081,2096,2084,2053,2032
2062,2042,2082,2076,2093,2077,2064,2038
2060,2042,2072,2073,2084,2078,2068,2043
2051,2048,2069,2070,2051,2059,2060,2051
2052,2043,2058,2067,2032,2048,2055,2050
2050,2046,2050,2068,2054,2050,2051,2054
2045,2050,2037,2062,2047,2039,2042,2061
2042,2040,2017,2044,2045,2043,2033,2064
2045,2030,2006,2030,2047,2053,2046,2083
2062,2047,2015,2038,2051,2060,2042,2077
2065,2040,2018,2029,2036,2060,2035,2072
2058,2023,2008,2015,2012,2052,2023,2075
2052,2016,1997,2006,1982,2043,2036,2087
2053,2021,1992,1992,1956,2034,2028,2082
2058,2027,2008,1994,1939,2013,2034,2077
2051,2037,2023,2006,1944,1974,2024,2069
2052,2038,2030,2020,1996,1989,2032,2049
2034,2030,2040,2041,2097,2043,2055,2050
2024,2041,2054,2072,2186,2086,2066,2052
2013,2041,2061,2081,2207,2100,2064,2056
2024,2050,2067,2095,2214,2104,2062,2053
2042,2054,2079,2093,2177,2102,2060,2050
2057,2065,2079,2095,2162,2091,2064,2042
2060,2061,2078,2091,2136,2086,2040,2018
2044,2045,2073,2071,2081,2083,2027,2013
2029,2037,2081,2046,1963,2071,2018,2009
2031,2038,2105,2031,1801,2050,2032,2009
2039,2047,2116,2035,1818,2027,2046,2018
2047,2054,2120,2055,1927,1959,2033,2044
2061,2065,2120,2092,1998,1916,2043,2053
2063,2057,2118,2127,2067,1951,2047,2043
2062,2057,2107,2138,2112,2018,2082,2041
2077,2060,2093,2133,2154,2065,2067,2039
2069,2062,2077,2128,2159,2081,2069,2040
2061,2062,2074,2113,2136,2085,2070,2053
2060,2071,2071,2105,2120,2080,2072,2049
2063,2082,2086,2103,2109,2065,2069,2049
2056,2079,2076,2080,2092,2049,2052,2056
2052,2073,2046,2055,2072,2029,2054,2059
2059,2069,2021,2023,2067,2036,2052,2060
2062,2060,2005,2000,2070,2049,2049,2062
2062,2048,1998,1997,2065,2053,2043,2066
2056,2055,2010,2001,2075,2062,2047,2079
2050,2057,2018,2002,2077,2068,2035,2081
2043,2055,2015,2004,2077,2064,2049,2086
2048,2064,2021,2013,2073,2046,2052,2093
2052,2074,2039,2022,2067,2037,2052,2088
2051,2076,2050,2038,2064,2038,2038,2082
2048,2084,2060,2039,2065,2040,2027,2080
2057,2076,2063,2036,2059,2044,2045,2071
2055,2064,2047,2034,2049,2055,2037,2057
2056,2057,2049,2026,2052,2057,2054,2050
2045,2055,2049,2038,2049,2061,2045,2033
2053,2050,2050,2041,2046,2062,2060,2038
2057,2056,2061,2048,2053,2067,2070,2031
2065,2065,2062,2040,2048,2057,2075,2042
2057,2057,2054,2035,2034,2052,2061,2030
2048,2031,2028,2027,2021,2059,2041,2019
2028,2013,2012,2022,2020,2056,2036,2000
2041,2025,2026,2020,2026,2047,2048,2009
2047,2044,2030,2013,2013,2030,2026,2012
2055,2033,2016,2010,2016,1998,2014,2018
2049,2048,2032,2029,2040,1963,2023,2040
2062,2067,2047,2046,2059,1955,2043,2038
2055,2070,2056,2052,2065,1981,2054,2016
2043,2070,2060,2058,2067,1998,2049,2014
2051,2066,2054,2046,2061,2020,2039,2021
2052,2064,2047,2044,2063,2027,2036,2019
2052,2062,2052,2040,2061,2030,2044,2017
2053,2057,2058,2041,2062,2017,2041,2029
2051,2054,2050,2051,2064,2014,2035,2044
2048,2050,2053,2052,2063,2033,2060,2056
2050,2051,2056,2055,2064,2054,2058,2073
2055,2050,2050,2058,2069,2076,2061,2075
2056,2040,2050,2051,2064,2077,2056,2069
2050,2046,2060,2052,2064,2073,2044,2078
2046,2041,2058,2054,2052,2094,2046,2079
2042,2032,2056,2046,2032,2101,2072,2078
2030,2024,2052,2044,2049,2101,2041,2086
2033,2030,2061,2054,2038,2094,2065,2087
2048,2052,2077,2066,2036,2085,2064,2084
2061,2073,2086,2067,2006,2075,2052,2068
2058,2071,2081,2064,2025,2052,2040,2063
2062,2061,2056,2061,2034,2022,2043,2072
2067,2051,2045,2055,2042,2018,2024,2062
2065,2043,2039,2055,2038,2016,2027,2045
2052,2039,2039,2049,2053,2019,2039,2034
2038,2035,2038,2050,2054,2029,2037,2024
2037,2034,2023,2035,2044,2034,2034,2019
2036,2035,2018,2019,2065,2034,2043,2020
2042,2037,2024,2020,2091,2036,2042,2019
2042,2039,2023,2031,2085,2040,2043,2019
2038,2044,2030,2037,2071,2043,2053,2016
2052,2056,2038,2033,2064,2043,2051,2021
2051,2041,2028,2032,2050,2034,2042,2015
2041,2042,2028,2034,2055,2040,2042,2014
2049,2045,2039,2041,2065,2058,2054,2022
2057,2042,2039,2043,2069,2056,2056,2029
2058,2040,2039,2046,2078,2053,2044,2025
2065,2038,2038,2046,2077,2055,2065,2034
2068,2045,2050,2053,2087,2062,2051,2034
2072,2057,2057,2054,2092,2061,2064,2043
2077,2050,2051,2054,2080,2057,2057,2046
2057,2045,2054,2052,2084,2057,2062,2046
2056,2039,2060,2057,2078,2058,2048,2055
2043,2033,2049,2047,2076,2050,2062,2061
2030,2018,2037,2035,2064,2045,2052,2072
2034,2017,2040,2039,2071,2042,2044,2080
2041,2023,2045,2040,2073,2027,2031,2077
