CH1,CH2,CH3,CH4,CH5,CH6,CH7,CH8
2040,2050,2029,2043,2023,2050,2057,2086
2047,2050,2022,2030,2026,2069,2053,2091
2045,2047,2020,2012,2028,2079,2075,2088
2053,2047,2013,2003,2031,2069,2072,2082
2046,2044,2025,2001,2032,2068,2066,2077
2046,2047,2024,2003,2030,2064,2054,2086
2037,2044,2020,2009,2031,2062,2043,2079
2036,2033,2024,2006,2030,2056,2049,2079
2039,2034,2044,2019,2023,2062,2052,2080
2046,2056,2073,2034,2037,2084,2060,2086
2050,2061,2071,2038,2039,2086,2070,2091
2054,2061,2067,2042,2043,2090,2062,2082
2058,2065,2059,2046,2053,2087,2056,2082
2052,2061,2053,2049,2051,2083,2049,2079
2048,2060,2051,2046,2044,2078,2045,2068
2055,2060,2051,2049,2031,2059,2040,2062
2055,2053,2044,2046,2022,2038,2032,2057
2047,2049,2040,2036,2026,2040,2035,2045
2046,2045,2033,2039,2052,2060,2022,2034
2046,2049,2038,2055,2067,2076,2034,2029
2046,2043,2033,2054,2064,2085,2033,2022
2039,2041,2030,2052,2063,2077,2042,2021
2042,2041,2037,2055,2062,2039,2045,2016
2034,2044,2035,2047,2038,2012,2035,2017
2025,2038,2037,2052,2042,1993,2036,2028
2037,2055,2041,2059,2046,2024,2056,2039
2043,2056,2047,2046,2032,2040,2064,2042
2049,2051,2037,2040,2017,2032,2051,2038
2047,2045,2030,2026,1991,2020,2045,2044
2045,2049,2040,2030,1998,2022,2036,2049
2054,2059,2052,2043,2033,2029,2027,2056
2055,2058,2049,2049,2061,2029,2023,2069
2049,2054,2045,2053,2060,2024,2037,2072
2049,2057,2050,2058,2043,2028,2033,2076
2054,2060,2054,2056,2068,2035,2005,2075
2056,2053,2041,2035,2052,2033,2022,2069
2042,2049,2035,2009,2026,2031,2004,2064
2042,2052,2044,2019,2027,2038,2029,2074
2046,2059,2066,2035,2047,2043,2048,2082
2046,2058,2073,2033,2057,2042,2030,2082
2037,2052,2065,2033,2052,2037,2036,2080
2042,2062,2066,2046,2037,2039,2047,2084
2046,2063,2069,2044,2028,2034,2046,2085
2046,2062,2069,2037,2026,2034,2053,2085
2053,2065,2064,2034,2030,2043,2031,2077
2050,2058,2064,2039,2041,2052,2050,2081
2047,2046,2053,2045,2069,2063,2054,2075
2044,2046,2056,2044,2067,2065,2069,2076
2040,2043,2059,2044,2060,2063,2076,2067
2053,2050,2060,2043,2044,2066,2065,2053
2046,2048,2058,2049,2055,2064,2062,2048
2042,2045,2058,2043,2064,2057,2041,2039
2038,2049,2056,2044,2061,2054,2055,2036
2037,2049,2064,2036,2035,2051,2051,2033
2041,2050,2066,2041,2004,2035,2041,2031
2044,2048,2064,2033,1989,2020,2028,2016
2038,2040,2048,2035,1987,2010,2029,2008
2033,2045,2064,2039,1993,2013,2029,2021
2040,2043,2069,2035,2005,2012,2016,2022
2034,2040,2059,2032,2005,2036,2017,2024
2036,2041,2061,2038,2016,2072,2022,2032
2039,2040,2061,2046,2054,2086,2025,2039
2033,2038,2056,2055,2079,2095,2037,2046
2033,2032,2055,2060,2093,2106,2057,2062
2041,2037,2063,2072,2106,2052,2019,2079
2048,2043,2071,2081,2110,2011,2040,2080
2053,2051,2071,2084,2098,2030,2034,2081
2051,2053,2065,2070,2080,2056,2024,2072
2051,2044,2049,2055,2065,2058,2025,2066
2044,2034,2038,2051,2067,2064,2050,2072
2040,2038,2040,2053,2063,2069,2059,2073
2039,2030,2035,2045,2047,2054,2031,2073
2031,2026,2027,2033,2049,2051,2010,2073
2039,2019,2027,2030,2050,2057,2037,2081
2048,2039,2035,2022,2060,2061,2056,2083
2051,2043,2029,2027,2068,2064,2046,2077
2056,2048,2045,2032,2074,2065,2065,2078
2056,2048,2046,2040,2074,2061,2062,2072
2050,2039,2040,2045,2073,2062,2055,2071
2044,2042,2044,2051,2083,2063,2064,2068
2041,2039,2042,2048,2086,2067,2058,2060
2036,2034,2040,2048,2080,2076,2049,2048
2036,2033,2041,2041,2059,2084,2028,2049
2036,2034,2037,2041,2060,2088,2048,2034
2034,2030,2047,2046,2065,2099,2049,2026
2036,2033,2056,2055,2038,2072,2030,2018
2031,2038,2068,2057,2015,2031,2043,2014
2038,2043,2079,2074,2048,2036,2036,2015
2038,2038,2072,2084,2078,2028,2039,2021
2045,2039,2065,2086,2080,2012,2050,2036
2047,2048,2058,2085,2112,2008,2048,2040
2048,2037,2052,2059,2094,2018,2042,2043
2044,2040,2060,2042,2065,2026,2041,2043
2048,2047,2067,2043,2052,2032,2037,2047
2040,2051,2069,2037,2032,2033,2048,2053
2048,2047,2056,2032,2035,2040,2049,2054
2055,2060,2056,2033,2055,2047,2049,2061
2056,2068,2062,2029,2068,2044,2055,2068
2059,2071,2062,2024,2035,2029,2051,2076
2057,2068,2055,2011,1988,2028,2053,2075
2064,2069,2049,2016,1964,2038,2044,2076
2063,2065,2043,2037,1996,2041,2055,2079
2060,2058,2043,2046,2027,2042,2057,2075
2053,2055,2039,2046,2050,2042,2047,2074
2039,2033,2018,2033,2041,2033,2031,2067
2029,2027,2019,2027,2024,2039,2035,2071
2044,2037,2032,2039,2016,2041,2038,2069
2039,2042,2042,2033,1996,2042,2050,2076
2040,2043,2050,2037,1995,2040,2026,2075
2042,2037,2056,2034,2001,2041,2042,2070
2041,2045,2067,2032,2002,2043,2054,2068
2042,2047,2082,2036,2008,2044,2052,2064
2044,2049,2090,2040,2007,2042,2066,2057
2044,2055,2092,2044,2024,2045,2081,2058
2047,2058,2091,2043,2027,2041,2070,2051
2053,2058,2081,2045,2032,2036,2057,2042
2043,2056,2074,2044,2039,2038,2050,2039
2041,2049,2068,2039,2051,2038,2041,2026
2041,2051,2074,2053,2073,2040,2050,2029
2050,2056,2080,2065,2091,2043,2052,2024
2054,2057,2074,2059,2098,2043,2040,2021
2036,2039,2052,2052,2072,2038,2058,2018
2036,2050,2054,2050,2064,2046,2054,2022
2044,2043,2049,2045,2055,2044,2047,2029
2046,2052,2060,2047,2060,2046,2060,2034
2042,2048,2068,2047,2053,2050,2052,2043
2049,2048,2071,2045,2050,2057,2042,2048
2049,2044,2062,2039,2046,2058,2051,2049
2051,2048,2058,2034,2038,2063,2051,2054
2058,2045,2059,2043,2035,2072,2055,2059
2057,2049,2056,2045,2046,2067,2053,2068
2046,2044,2055,2045,2040,2063,2048,2067
2052,2045,2061,2042,2039,2056,2051,2071
2051,2052,2059,2042,2038,2054,2037,2070
2054,2051,2055,2046,2044,2056,2045,2073
2050,2045,2058,2044,2049,2055,2053,2070
2047,2049,2055,2045,2054,2057,2045,2072
2040,2040,2046,2037,2060,2049,2043,2072
2043,2042,2045,2044,2068,2052,2054,2076
2052,2053,2051,2052,2061,2050,2052,2078
2049,2048,2048,2047,2057,2052,2052,2077
2046,2046,2046,2045,2055,2050,2051,2073
2048,2048,2040,2045,2059,2052,2055,2068
2046,2038,2041,2044,2060,2053,2043,2070
2048,2043,2037,2051,2059,2053,2046,2064
2045,2041,2043,2044,2057,2053,2056,2060
2045,2041,2042,2049,2060,2062,2063,2042
2043,2040,2042,2066,2057,2058,2058,2040
2043,2033,2052,2067,2061,2053,2057,2033
2043,2037,2054,2069,2060,2051,2053,2026
2039,2038,2060,2066,2056,2049,2054,2022
2046,2046,2057,2075,2052,2044,2041,2024
2045,2048,2058,2069,2043,2048,2047,2019
2036,2041,2054,2059,2041,2037,2041,2020
2034,2036,2052,2061,2034,2048,2035,2021
2045,2048,2060,2064,2045,2058,2060,2036
2042,2053,2059,2060,2049,2054,2060,2039
2046,2055,2062,2053,2042,2044,2045,2040
2050,2055,2058,2049,2043,2042,2044,2048
2049,2052,2052,2052,2046,2050,2044,2040
2040,2044,2045,2052,2051,2050,2029,2047
2041,2035,2042,2058,2044,2048,2035,2051
2040,2038,2031,2047,2048,2049,2039,2061
2041,2042,2018,2049,2047,2050,2050,2067
2046,2040,2015,2051,2046,2049,2040,2064
2045,2042,2013,2072,2042,2051,2046,2066
2040,2035,2018,2078,2047,2051,2040,2069
2039,2031,2022,2081,2045,2058,2043,2067
2041,2031,2015,2083,2045,2061,2049,2061
2038,2026,2004,2081,2040,2059,2043,2058
2035,2013,2002,2081,2043,2063,2032,2061
2036,2024,2014,2085,2050,2072,2065,2072
2038,2035,2015,2071,2046,2066,2045,2073
2046,2036,2011,2056,2046,2059,2025,2070
2051,2043,2015,2040,2043,2053,2040,2076
2044,2047,2035,2032,2037,2046,2036,2069
2055,2051,2050,2013,2037,2042,2039,2071
2059,2050,2069,2011,2036,2040,2053,2067
2058,2053,2083,2003,2025,2028,2033,2063
2055,2055,2097,2003,2034,2028,2030,2065
2057,2063,2093,2013,2038,2039,2039,2064
2060,2071,2080,2011,2047,2058,2045,2057
2060,2070,2073,2018,2048,2067,2045,2043
2057,2066,2068,2024,2046,2068,2056,2036
2059,2063,2072,2034,2049,2058,2053,2025
2052,2059,2080,2038,2042,2056,2043,2023
2047,2047,2069,2033,2036,2056,2046,2016
2049,2046,2059,2028,2040,2057,2038,2031
2048,2052,2066,2038,2037,2059,2060,2034
2045,2048,2065,2043,2042,2063,2060,2043
2047,2054,2070,2043,2043,2056,2056,2046
2049,2057,2076,2046,2031,2057,2064,2050
2053,2054,2078,2045,2025,2053,2054,2054
2049,2048,2064,2039,2023,2061,2054,2056
2047,2044,2060,2041,2035,2065,2067,2059
2046,2045,2061,2043,2047,2062,2074,2061
2050,2046,2060,2045,2064,2067,2073,2070
2052,2045,2067,2043,2068,2062,2057,2070
2050,2044,2069,2048,2062,2056,2060,2074
2043,2043,2065,2047,2062,2054,2049,2070
2051,2036,2058,2050,2050,2056,2050,2070
2046,2038,2056,2040,2047,2056,2071,2074
2050,2038,2050,2038,2044,2050,2048,2075
2040,2023,2045,2044,2045,2060,2055,2070
2038,2030,2051,2049,2056,2072,2045,2076
2045,2038,2057,2056,2064,2071,2062,2065
2042,2037,2047,2059,2070,2074,2055,2068
2050,2043,2048,2056,2061,2066,2050,2062
2045,2044,2044,2052,2060,2055,2041,2065
2044,2043,2044,2054,2059,2053,2042,2059
2041,2036,2043,2049,2052,2052,2055,2063
2041,2046,2045,2044,2050,2051,2053,2054
2046,2049,2049,2056,2041,2050,2048,2055
2054,2054,2053,2049,2032,2038,2054,2052
2045,2048,2043,2040,2026,2035,2051,2041
2040,2043,2035,2042,2035,2045,2047,2033
2040,2045,2044,2055,2070,2060,2047,2031
2044,2052,2055,2069,2086,2060,2059,2030
2049,2050,2060,2061,2072,2061,2065,2029
2041,2036,2051,2055,2058,2062,2049,2031
2041,2036,2045,2050,2058,2055,2046,2028
2040,2045,2050,2054,2042,2039,2046,2034
2047,2051,2059,2054,2031,2038,2035,2036
2045,2050,2067,2059,2030,2034,2037,2040
2041,2053,2078,2059,2029,2028,2041,2049
2047,2053,2068,2066,2033,2036,2052,2050
2048,2046,2064,2059,2036,2040,2043,2050
2045,2039,2054,2063,2038,2048,2047,2052
2042,2040,2058,2065,2045,2066,2032,2056
2043,2035,2070,2068,2042,2064,2037,2056
2040,2041,2072,2066,2035,2053,2022,2063
2052,2039,2074,2073,2031,2040,2012,2066
2051,2041,2076,2082,2035,2022,2042,2064
2051,2038,2072,2082,2031,2029,2027,2070
2047,2032,2063,2082,2036,2032,2041,2076
2041,2031,2067,2083,2030,2032,2037,2063
2028,2023,2057,2080,2026,2027,2016,2064
2034,2019,2049,2075,2036,2024,2014,2074
2044,2038,2051,2082,2041,2033,2040,2074
2049,2035,2040,2080,2047,2039,2048,2068
2040,2039,2043,2074,2041,2042,2040,2065
2036,2032,2037,2070,2046,2039,2039,2068
2040,2030,2032,2052,2064,2034,2036,2061
2038,2026,2031,2040,2080,2039,2063,2064
2042,2034,2035,2038,2100,2044,2046,2057
2049,2036,2035,2034,2108,2059,2034,2041
2045,2031,2036,2022,2115,2080,2036,2034
2037,2027,2024,2019,2117,2098,2014,2029
2040,2029,2018,2009,2109,2112,2059,2027
2046,2031,2022,2007,2092,2111,2072,2024
2037,2030,2027,2009,2077,2078,2055,2026
2041,2025,2029,2017,2061,2049,2062,2026
2044,2031,2045,2017,1973,2047,2043,2016
2032,2023,2045,2022,1920,2062,2052,2022
2030,2031,2053,2037,1975,2084,2069,2031
2045,2040,2060,2048,2027,2089,2071,2037
2042,2044,2052,2051,2055,2047,2063,2033
2049,2045,2047,2046,2059,2030,2062,2042
2048,2046,2047,2050,2060,2041,2060,2045
2049,2050,2056,2046,2051,2050,2071,2053
2049,2052,2056,2050,2039,2055,2050,2053
2054,2050,2060,2045,2043,2056,2070,2063
2057,2053,2059,2045,2048,2054,2060,2068
2055,2053,2063,2043,2040,2047,2054,2070
2054,2058,2056,2048,2045,2044,2064,2074
2053,2051,2060,2046,2041,2044,2028,2073
2049,2046,2053,2041,2035,2039,2021,2061
2042,2041,2041,2035,2032,2031,2043,2069
2039,2041,2041,2040,2037,2033,2029,2066
2044,2029,2035,2036,2032,2045,2030,2062
2035,2025,2038,2045,2042,2055,2016,2072
2042,2035,2044,2051,2046,2053,2041,2073
2046,2038,2042,2050,2050,2044,2040,2072
2047,2034,2047,2055,2051,2046,2045,2067
2049,2032,2047,2057,2058,2053,2064,2068
2054,2040,2051,2055,2065,2053,2057,2067
2048,2042,2050,2056,2061,2042,2050,2058
2037,2043,2051,2054,2062,2041,2056,2058
2049,2048,2062,2059,2058,2041,2062,2054
2057,2061,2072,2068,2064,2054,2060,2049
2056,2060,2069,2061,2059,2046,2058,2047
2052,2052,2062,2060,2062,2034,2060,2033
2048,2049,2058,2060,2051,2035,2041,2032
2049,2049,2065,2055,2046,2048,2049,2027
2053,2049,2057,2052,2051,2049,2048,2014
2056,2051,2053,2049,2040,2045,2052,2015
2046,2040,2050,2046,2036,2045,2055,2016
2044,2038,2055,2050,2043,2055,2052,2022
2056,2051,2058,2060,2038,2056,2052,2022
2061,2053,2060,2055,2036,2049,2029,2028
2064,2051,2058,2051,2044,2037,2042,2025
2055,2055,2056,2051,2044,2028,2032,2035
2056,2057,2053,2046,2041,2017,2017,2033
2054,2060,2049,2054,2045,2032,2034,2041
2054,2051,2049,2050,2048,2038,2053,2043
2052,2048,2048,2047,2046,2038,2024,2050
2057,2048,2047,2054,2046,2044,2058,2052
2059,2046,2045,2052,2055,2044,2058,2058
2058,2047,2046,2054,2051,2044,2043,2055
2058,2044,2041,2049,2045,2035,2046,2055
2052,2035,2033,2051,2052,2042,2060,2056
2046,2030,2036,2049,2045,2040,2055,2049
2039,2021,2033,2049,2043,2041,2040,2051
2039,2023,2041,2046,2043,2041,2056,2061
2045,2036,2053,2064,2055,2047,2048,2055
2044,2035,2056,2068,2052,2050,2052,2045
2046,2035,2060,2075,2060,2048,2066,2049
2044,2036,2057,2077,2055,2038,2037,2048
2041,2034,2058,2075,2060,2035,2033,2044
2041,2033,2053,2076,2058,2041,2038,2040
2043,2029,2051,2083,2061,2045,2022,2040
2039,2032,2046,2071,2059,2042,2035,2037
2036,2037,2048,2070,2056,2051,2044,2031
2040,2034,2045,2071,2059,2048,2062,2033
2041,2034,2038,2077,2056,2044,2067,2023
2050,2035,2044,2076,2052,2039,2050,2018
2042,2036,2030,2068,2049,2037,2041,2019
2043,2036,2024,2052,2036,2034,2049,2012
2040,2032,2020,2031,2028,2028,2031,2006
2037,2029,2022,2033,2026,2026,2039,2011
2048,2041,2044,2044,2046,2032,2049,2015
2057,2055,2065,2046,2042,2035,2046,2019
2054,2052,2066,2046,2037,2037,2043,2026
2054,2056,2070,2051,2033,2039,2051,2034
2054,2059,2080,2055,2038,2036,2052,2039
2054,2069,2088,2060,2038,2041,2037,2045
2060,2066,2098,2059,2046,2045,2040,2052
2055,2070,2096,2064,2042,2049,2029,2049
2056,2062,2088,2062,2046,2053,2034,2053
2053,2065,2080,2054,2047,2054,2038,2051
2056,2060,2070,2050,2042,2054,2041,2062
2054,2048,2064,2045,2044,2050,2037,2061
2046,2053,2057,2041,2040,2054,2037,2064
2053,2046,2052,2034,2040,2055,2029,2055
2050,2048,2045,2040,2035,2055,2021,2054
2041,2034,2046,2033,2040,2054,2061,2046
2036,2039,2047,2036,2050,2061,2049,2056
2042,2050,2051,2043,2047,2067,2044,2055
2040,2059,2059,2043,2051,2064,2052,2056
2046,2054,2062,2044,2054,2062,2060,2059
2047,2055,2057,2047,2053,2054,2045,2057
2055,2058,2062,2051,2058,2038,2048,2050
2056,2059,2060,2052,2051,2036,2039,2049
2054,2059,2059,2052,2051,2033,2043,2046
2057,2056,2059,2053,2058,2037,2049,2041
2063,2058,2062,2054,2059,2039,2040,2035
2056,2061,2065,2057,2053,2038,2047,2030
2052,2059,2065,2051,2056,2035,2029,2029
2052,2048,2061,2052,2059,2033,2028,2016
2050,2052,2056,2052,2050,2032,2054,2013
2052,2049,2058,2042,2037,2020,2028,2011
2041,2037,2051,2035,2031,2019,2043,2007
2043,2030,2038,2039,2040,2030,2045,2009
2051,2050,2054,2040,2038,2036,2055,2020
2044,2051,2051,2042,2040,2041,2056,2021
2055,2052,2050,2042,2039,2046,2046,2031
2045,2050,2044,2044,2040,2053,2067,2032
2048,2048,2046,2041,2038,2058,2044,2037
2051,2047,2045,2039,2042,2054,2058,2045
2049,2046,2049,2040,2041,2050,2058,2050
2048,2044,2046,2039,2038,2047,2048,2047
2040,2040,2043,2039,2047,2052,2048,2047
2042,2038,2040,2042,2046,2049,2060,2051
2040,2039,2042,2040,2040,2050,2037,2047
2044,2035,2048,2039,2036,2050,2047,2053
2041,2033,2049,2042,2037,2047,2042,2057
2045,2035,2050,2043,2041,2054,2035,2051
2038,2032,2045,2042,2039,2046,2036,2046
2032,2037,2045,2046,2045,2052,2055,2061
2052,2045,2059,2051,2054,2054,2050,2061
2052,2041,2064,2056,2055,2054,2061,2060
2054,2048,2067,2050,2054,2060,2062,2070
2050,2049,2066,2050,2046,2060,2061,2069
2054,2050,2062,2046,2054,2064,2051,2061
2059,2057,2058,2050,2056,2067,2062,2058
2058,2055,2062,2053,2059,2069,2082,2054
2059,2051,2063,2051,2065,2076,2065,2053
2051,2050,2059,2050,2068,2075,2068,2051
2046,2050,2055,2044,2060,2072,2067,2045
2050,2045,2056,2042,2062,2073,2057,2037
2050,2046,2053,2041,2054,2079,2067,2025
2047,2048,2041,2039,2051,2068,2058,2020
2041,2045,2041,2045,2054,2069,2074,2011
2036,2036,2025,2037,2046,2056,2044,2018
2034,2034,2036,2039,2050,2062,2066,2021
2039,2044,2047,2048,2055,2071,2054,2027
2042,2052,2054,2046,2055,2064,2051,2029
2046,2059,2061,2053,2049,2048,2044,2025
2042,2056,2056,2048,2040,2034,2033,2031
2036,2053,2049,2045,2042,2000,2033,2028
2038,2050,2042,2044,2039,1995,2021,2033
2033,2041,2040,2042,2038,2010,2023,2036
2038,2049,2039,2038,2042,2020,2032,2046
2041,2044,2040,2044,2038,2029,2030,2055
2043,2040,2042,2041,2023,2036,2048,2059
2046,2043,2039,2039,2002,2033,2049,2051
2048,2055,2048,2037,1995,2026,2039,2057
2050,2055,2054,2028,1996,2024,2031,2044
2039,2047,2050,2032,2005,2034,2041,2048
2038,2046,2054,2049,2037,2048,2040,2053
2035,2038,2063,2065,2069,2056,2067,2054
2043,2049,2067,2074,2098,2082,2089,2068
2048,2051,2064,2070,2096,2083,2081,2062
2049,2047,2062,2067,2076,2063,2073,2061
2045,2040,2055,2059,2063,2060,2076,2054
2044,2040,2048,2055,2058,2057,2073,2050
2039,2040,2033,2055,2060,2055,2056,2046
2037,2034,2030,2060,2059,2061,2064,2041
2044,2037,2028,2055,2063,2060,2057,2042
2048,2042,2032,2053,2072,2059,2062,2032
2046,2035,2025,2052,2060,2061,2060,2033
2045,2030,2017,2058,2064,2063,2040,2020
2040,2028,2005,2052,2054,2055,2032,2012
2036,2023,1993,2037,2046,2056,2055,2009
2033,2019,1983,2038,2039,2055,2050,2005
2037,2029,1997,2043,2037,2046,2041,2001
2031,2021,2008,2052,2042,2048,2037,1996
2035,2034,2019,2059,2046,2051,2049,2009
2045,2042,2023,2058,2046,2050,2053,2011
2048,2029,2019,2059,2044,2037,2042,2027
2045,2034,2028,2056,2038,2033,2041,2029
2040,2040,2034,2061,2038,2038,2037,2034
2039,2041,2050,2052,2035,2050,2039,2035
2043,2040,2047,2053,2008,2058,2042,2036
2041,2047,2052,2048,2006,2059,2032,2044
2040,2053,2068,2039,1999,2054,2040,2047
2042,2051,2064,2033,1985,2024,2012,2050
2051,2056,2071,2033,2002,2003,2030,2059
2055,2066,2079,2032,2027,2018,2053,2071
2056,2066,2090,2030,2039,2045,2059,2060
2050,2061,2091,2024,2057,2068,2048,2070
2049,2068,2089,2033,2077,2070,2051,2066
2048,2057,2081,2044,2086,2035,2055,2075
2047,2058,2075,2053,2080,2033,2061,2076
2058,2061,2072,2050,2083,2049,2069,2069
2053,2057,2063,2050,2076,2055,2071,2063
2053,2051,2061,2053,2069,2052,2059,2059
2046,2056,2058,2047,2057,2052,2066,2058
2049,2059,2054,2047,2054,2049,2051,2049
2048,2057,2058,2048,2061,2051,2058,2047
2052,2062,2064,2047,2056,2054,2064,2048
2057,2067,2067,2052,2057,2055,2057,2045
2057,2068,2074,2057,2058,2052,2065,2038
2059,2070,2072,2057,2056,2035,2045,2036
2049,2064,2061,2059,2058,2029,2061,2027
2050,2056,2056,2058,2060,2034,2045,2029
2046,2050,2048,2056,2062,2047,2036,2022
2043,2046,2043,2049,2059,2051,2024,2013
2032,2034,2036,2042,2054,2045,2046,2009
2033,2038,2035,2043,2049,2058,2054,2011
2041,2053,2045,2043,2043,2057,2064,2014
2040,2044,2053,2050,2046,2057,2053,2021
2038,2052,2057,2052,2050,2057,2036,2031
2040,2050,2054,2056,2051,2066,2040,2035
2044,2042,2054,2058,2050,2063,2042,2041
2049,2041,2048,2052,2058,2061,2026,2041
2049,2051,2049,2057,2054,2055,2034,2039
2045,2042,2048,2058,2052,2060,2044,2052
2046,2045,2051,2058,2059,2057,2041,2052
2049,2052,2047,2050,2062,2052,2028,2055
2046,2045,2054,2058,2059,2046,2046,2057
2046,2046,2046,2056,2055,2042,2039,2056
2045,2041,2036,2055,2054,2034,2042,2059
2042,2031,2035,2048,2052,2023,2033,2048
2030,2018,2035,2046,2043,2020,2045,2050
2037,2030,2049,2052,2047,2028,2027,2061
2045,2048,2054,2052,2046,2024,2032,2061
2045,2049,2052,2050,2038,2017,2022,2052
2048,2049,2052,2051,2031,2032,2043,2057
2048,2041,2054,2053,2032,2039,2048,2050
2054,2047,2050,2056,2048,2042,2046,2047
2052,2048,2051,2055,2052,2043,2059,2047
2051,2049,2059,2054,2057,2040,2040,2033
2050,2047,2057,2056,2055,2041,2056,2035
2044,2041,2053,2055,2056,2046,2059,2029
2043,2042,2047,2054,2061,2062,2066,2020
2047,2041,2046,2050,2064,2070,2069,2020
2049,2040,2047,2050,2052,2076,2052,2019
2046,2041,2045,2046,2052,2072,2049,2015
2049,2038,2038,2047,2042,2055,2030,2000
2035,2031,2036,2043,2035,2026,2006,1999
2037,2027,2044,2040,2034,1985,2018,2008
2043,2035,2049,2042,2036,2012,2018,2007
2049,2045,2046,2042,2036,2041,2037,2017
2047,2044,2051,2051,2035,2073,2045,2020
2045,2043,2045,2045,2044,2087,2055,2021
2048,2040,2046,2044,2037,2084,2038,2028
2051,2043,2052,2047,2046,2077,2053,2037
2046,2034,2043,2050,2042,2074,2076,2045
2051,2041,2046,2049,2049,2067,2083,2054
2048,2042,2038,2052,2044,2060,2084,2053
2054,2044,2038,2053,2042,2043,2070,2052
2045,2040,2038,2052,2045,2042,2071,2053
2046,2035,2034,2052,2040,2051,2066,2052
2044,2039,2036,2049,2045,2049,2040,2056
2046,2042,2035,2046,2037,2044,2044,2040
2040,2028,2029,2036,2024,2033,2033,2041
2036,2030,2028,2039,2031,2056,2049,2044
2047,2044,2043,2046,2039,2078,2037,2047
2052,2043,2049,2044,2046,2092,2050,2043
2056,2044,2055,2052,2058,2089,2048,2042
2053,2047,2059,2064,2062,2090,2056,2044
2059,2048,2062,2060,2065,2089,2064,2038
2055,2047,2061,2057,2066,2093,2067,2040
2055,2044,2051,2058,2062,2093,2073,2041
2055,2041,2054,2056,2057,2076,2072,2029
2054,2038,2054,2046,2054,2068,2058,2021
2054,2033,2055,2048,2057,2061,2059,2018
2049,2040,2055,2048,2050,2046,2054,2012
2047,2045,2065,2044,2052,2028,2041,2009
2051,2052,2064,2046,2042,2021,2031,2006
2049,2048,2061,2050,2040,2014,2031,1995
2038,2033,2051,2039,2043,2022,2044,1992
2038,2034,2052,2043,2050,2048,2080,2003
2045,2044,2063,2052,2046,2047,2072,2008
2047,2050,2062,2048,2036,2054,2058,2010
2051,2050,2060,2049,2026,2065,2041,2023
2054,2053,2063,2049,2037,2063,2041,2024
2053,2057,2059,2054,2039,2053,2038,2024
2052,2053,2055,2052,2035,2036,2039,2034
2052,2047,2052,2053,2039,2022,2039,2037
2049,2046,2048,2051,2047,2028,2039,2038
2052,2042,2052,2056,2053,2039,2050,2044
2049,2044,2054,2056,2042,2034,2058,2044
2057,2044,2059,2060,2040,2024,2031,2052
2055,2044,2056,2060,2036,2018,2051,2050
2050,2041,2054,2063,2027,2018,2038,2049
2047,2044,2054,2059,2032,2013,2038,2041
2046,2031,2036,2051,2033,2017,2054,2038
2037,2023,2031,2048,2035,2029,2046,2042
2042,2032,2043,2052,2043,2047,2040,2041
2054,2035,2040,2051,2042,2053,2037,2045
2049,2038,2035,2052,2050,2052,2050,2041
2045,2039,2047,2056,2054,2056,2054,2035
2042,2039,2043,2056,2058,2052,2059,2029
2044,2043,2040,2056,2066,2056,2036,2028
2044,2047,2039,2055,2062,2055,2053,2034
2043,2040,2034,2045,2058,2060,2056,2023
2041,2035,2036,2041,2050,2054,2061,2015
2036,2038,2037,2037,2056,2054,2061,2012
2035,2035,2035,2036,2057,2048,2037,2008
2038,2037,2029,2036,2061,2040,2050,2006
2044,2041,2034,2037,2048,2037,2055,2007
2040,2043,2032,2041,2042,2032,2065,1997
2037,2030,2028,2030,2030,2022,2052,1997
2035,2031,2036,2032,2033,2026,2057,2003
2046,2047,2053,2039,2038,2027,2054,2006
2049,2053,2055,2040,2038,2030,2049,2021
2056,2055,2054,2047,2043,2040,2040,2031
2060,2066,2061,2059,2047,2056,2043,2036
2060,2064,2066,2061,2041,2053,2059,2036
2059,2062,2059,2052,2036,2049,2050,2042
2057,2053,2052,2052,2036,2046,2060,2042
2057,2051,2047,2049,2041,2051,2062,2047
2056,2051,2052,2052,2033,2052,2062,2052
2058,2048,2051,2049,2035,2037,2053,2050
2062,2042,2054,2049,2034,2034,2064,2050
2061,2044,2053,2053,2034,2037,2029,2043
2060,2045,2054,2054,2036,2030,2039,2054
2056,2044,2051,2056,2038,2032,2052,2048
2052,2034,2049,2048,2034,2030,2042,2046
2052,2031,2049,2047,2033,2031,2052,2041
2053,2045,2066,2056,2043,2038,2061,2051
2058,2042,2069,2060,2044,2043,2068,2056
2062,2049,2066,2058,2044,2042,2075,2056
2056,2053,2064,2058,2046,2040,2077,2058
2063,2056,2067,2056,2050,2047,2083,2052
2062,2058,2066,2056,2041,2047,2072,2048
2063,2060,2064,2058,2037,2047,2063,2042
2060,2056,2064,2051,2025,2036,2053,2026
2050,2048,2061,2050,2015,2032,2035,2020
2049,2052,2056,2050,2010,2036,2043,2012
2046,2047,2060,2050,2016,2039,2042,2004
2054,2049,2056,2053,2026,2044,2055,2002
2054,2047,2056,2047,2027,2047,2054,1998
2051,2046,2053,2042,2030,2051,2061,1993
2047,2041,2044,2037,2026,2036,2042,1981
2038,2031,2037,2035,2029,2029,2038,1986
2044,2034,2043,2039,2035,2025,2043,1994
2039,2039,2043,2042,2042,2029,2038,1995
2046,2042,2046,2045,2044,2040,2057,2000
2053,2037,2043,2053,2049,2052,2046,2008
2047,2041,2042,2052,2070,2056,2037,2009
2043,2039,2038,2056,2069,2056,2051,2019
2048,2035,2044,2054,2065,2054,2060,2025
2049,2043,2044,2050,2059,2052,2055,2031
2044,2035,2042,2050,2049,2049,2064,2035
2052,2037,2042,2049,2045,2046,2043,2035
2050,2040,2040,2052,2044,2036,2039,2035
2053,2039,2052,2049,2035,2031,2039,2038
2053,2043,2047,2046,2040,2036,2031,2034
2048,2037,2044,2043,2040,2032,2041,2032
2049,2047,2044,2050,2047,2031,2041,2034
2049,2034,2035,2047,2043,2033,2036,2040
2041,2028,2034,2045,2046,2044,2049,2047
2051,2042,2041,2054,2056,2050,2062,2040
2050,2038,2046,2054,2053,2051,2050,2040
2052,2045,2046,2055,2047,2053,2052,2028
2043,2043,2042,2051,2050,2048,2064,2023
2043,2035,2038,2052,2049,2044,2043,2018
2040,2036,2038,2044,2061,2044,2052,2020
2043,2034,2042,2051,2066,2054,2060,2024
2046,2037,2036,2059,2066,2061,2074,2027
2052,2046,2040,2055,2065,2056,2071,2015
2055,2047,2043,2051,2055,2049,2062,2015
2057,2050,2046,2056,2054,2024,2040,2012
2051,2045,2046,2054,2052,1998,2038,2005
2046,2037,2043,2054,2050,1994,2033,1997
2045,2029,2031,2047,2043,2001,2055,1993
2044,2021,2028,2044,2046,2004,2044,1992
2036,2019,2030,2042,2041,2020,2038,1995
2040,2037,2045,2054,2049,2026,2034,1993
2047,2046,2044,2054,2043,2020,2037,1997
2046,2040,2041,2050,2042,2020,2038,2000
2043,2038,2039,2045,2037,2030,2032,1995
2038,2033,2039,2047,2032,2066,2032,2001
2043,2040,2039,2042,2029,2097,2045,2014
2044,2041,2041,2038,2015,2110,2046,2008
2047,2039,2046,2032,2003,2088,2049,2012
2046,2046,2037,2027,1987,2050,2041,2021
2056,2049,2039,2033,1991,2002,2048,2032
2058,2047,2042,2032,1996,1996,2038,2033
2047,2043,2032,2024,1984,2002,2019,2029
2052,2047,2037,2042,2011,2012,2033,2035
2056,2049,2053,2057,2035,2011,2044,2046
2055,2047,2052,2056,2067,2035,2033,2034
2042,2033,2043,2052,2094,2056,2023,2032
2046,2038,2046,2064,2107,2062,2027,2042
2059,2054,2057,2072,2105,2051,2034,2049
2058,2059,2064,2069,2081,2049,2033,2045
2062,2057,2059,2065,2077,2038,2033,2053
2062,2054,2059,2065,2072,2041,2050,2041
2059,2056,2059,2067,2069,2046,2041,2040
2062,2057,2056,2063,2066,2042,2054,2034
2058,2051,2055,2060,2059,2037,2052,2025
2053,2050,2055,2058,2057,2031,2051,2018
2052,2047,2052,2054,2056,2036,2044,2011
2044,2045,2051,2055,2061,2042,2051,2005
2049,2041,2054,2056,2062,2051,2076,2011
2048,2043,2051,2054,2059,2052,2078,2005
2047,2035,2046,2048,2062,2047,2054,2002
2041,2033,2036,2047,2051,2043,2053,1997
2041,2033,2030,2032,2040,2041,2063,1978
2033,2017,2017,2028,2022,2048,2058,1973
2023,2012,2014,2024,2000,2055,2058,1976
2031,2019,2015,2022,1988,2054,2049,1981
2027,2022,2008,2022,1978,2047,2052,1976
2028,2020,2003,2023,1989,2022,2040,1984
2027,2021,2002,2032,2027,2021,2050,1995
2037,2030,2007,2053,2068,2033,2052,2013
2046,2036,2004,2058,2077,2066,2052,2012
2052,2036,2001,2059,2092,2087,2049,2018
2045,2031,2010,2060,2099,2075,2038,2020
2046,2025,2006,2053,2088,2069,2041,2025
2056,2031,2004,2051,2070,2072,2046,2032
2055,2038,2016,2045,2061,2057,2044,2037
2052,2042,2021,2039,2048,2019,2053,2039
2055,2042,2028,2049,2037,1972,2048,2041
2051,2034,2023,2040,2040,1964,2048,2039
2043,2022,2017,2033,2031,1979,2020,2032
2038,2026,2015,2031,2038,2006,2019,2038
2051,2050,2036,2040,2048,2027,2049,2046
2055,2056,2038,2051,2040,2034,2053,2036
2061,2055,2036,2039,2046,2034,2053,2035
2060,2046,2036,2034,2038,2015,2051,2033
2057,2045,2059,2043,2034,1954,2027,2029
2055,2050,2074,2044,2036,1950,2021,2024
2053,2059,2080,2047,2041,1988,2029,2024
2057,2060,2072,2048,2052,2033,2057,2024
2064,2057,2067,2058,2100,2062,2054,2019
2061,2058,2058,2055,2125,2074,2063,2012
2060,2058,2061,2050,2132,2093,2077,1995
2063,2053,2051,2050,2120,2097,2078,1995
2058,2049,2043,2043,2113,2089,2078,1992
2052,2048,2040,2041,2110,2093,2060,1993
2053,2042,2042,2043,2094,2077,2051,1987
2042,2034,2045,2044,2079,2074,2041,1989
2052,2051,2063,2054,2070,2071,2058,1995
2059,2053,2075,2061,2046,2060,2064,1997
2055,2058,2085,2053,1954,2043,2063,1989
2061,2060,2074,2034,1902,2041,2057,2002
2050,2057,2068,2033,1930,2047,2038,2009
2052,2052,2063,2037,1963,2045,2050,2005
2050,2057,2067,2040,1983,2042,2045,2016
2052,2056,2068,2046,2006,2061,2062,2025
2055,2058,2067,2045,2017,2074,2055,2023
2056,2061,2063,2045,2028,2068,2050,2031
2061,2056,2056,2056,2043,2065,2056,2033
2057,2056,2060,2055,2063,2056,2042,2038
2061,2057,2060,2058,2071,2058,2058,2038
2057,2058,2052,2056,2066,2054,2062,2039
2056,2056,2056,2047,2054,2032,2048,2030
2046,2044,2047,2043,2044,2020,2051,2032
2049,2052,2056,2050,2043,2020,2054,2034
2060,2055,2063,2070,2042,2023,2046,2044
2059,2066,2070,2066,2038,2045,2037,2037
2068,2068,2065,2064,2030,2073,2022,2034
2061,2066,2061,2065,2034,2075,2044,2024
2057,2059,2061,2062,2030,2049,2042,2021
2051,2054,2061,2062,2027,2044,2061,2013
2051,2055,2060,2060,2025,2040,2051,2015
2048,2058,2063,2059,2039,2038,2057,2014
2051,2056,2054,2052,2045,2038,2064,2011
2053,2053,2050,2050,2040,2025,2060,2010
2051,2050,2051,2047,2045,2018,2080,2006
2050,2049,2045,2048,2049,2012,2078,2000
2053,2043,2041,2047,2046,2006,2079,1997
2050,2050,2035,2046,2041,2005,2071,1993
2038,2041,2037,2040,2042,2006,2072,1989
2043,2042,2045,2045,2047,2022,2086,1994
2050,2062,2059,2055,2049,2043,2084,1998
2051,2063,2054,2048,2049,2048,2071,1994
2050,2059,2059,2037,2030,2069,2068,1999
2052,2058,2060,2046,2057,2114,2065,2010
2053,2053,2055,2056,2104,2165,2090,2014
2058,2059,2058,2068,2122,2192,2083,2022
2056,2058,2056,2069,2111,2170,2066,2020
2052,2062,2056,2067,2087,2107,2030,2015
2047,2056,2051,2062,2040,2039,2022,2021
2041,2059,2049,2059,1997,2051,2050,2024
2047,2056,2050,2050,1988,2091,2049,2033
2055,2057,2050,2053,1971,2110,2059,2036
2052,2060,2047,2038,1922,2106,2054,2041
2046,2056,2043,2017,1860,2070,2034,2034
2043,2050,2038,2023,1871,2046,2038,2036
2048,2052,2043,2029,1913,2008,2041,2037
2056,2066,2046,2032,1952,1924,2039,2030
2048,2063,2036,2030,1974,1940,2030,2033
2045,2056,2029,2034,2016,1986,2024,2028
2037,2044,2026,2044,2057,2006,2031,2016
2035,2044,2020,2045,2068,2012,2042,2006
2031,2036,2018,2040,2051,2027,2056,2011
2024,2033,2017,2036,2038,2035,2062,2007
2017,2028,2012,2023,2010,2030,2025,1991
2024,2037,2015,2018,1990,2038,2028,1992
2032,2045,2028,2035,2037,2040,2047,1997
2043,2049,2037,2044,2090,2061,2071,2006
2053,2054,2042,2049,2124,2069,2096,1999
2046,2052,2044,2044,2111,2052,2070,1992
2035,2049,2040,2032,2072,2012,2051,1983
2026,2034,2032,2019,2050,2001,2027,1987
2021,2036,2038,2022,2051,2012,2035,1985
2032,2061,2059,2031,2075,2031,2041,1981
2034,2070,2071,2040,2093,2036,2042,1992
2037,2063,2074,2043,2090,2028,2037,1994
2042,2066,2069,2047,2089,2035,2050,2009
2044,2066,2059,2047,2075,2033,2055,2009
2047,2058,2058,2043,2062,2044,2041,2014
2041,2055,2045,2037,2055,2049,2039,2015
2032,2045,2046,2038,2063,2064,2036,2023
2030,2041,2045,2040,2059,2076,2051,2029
2034,2048,2036,2040,2059,2060,2056,2030
2038,2050,2035,2043,2064,2012,2051,2037
2037,2048,2037,2052,2074,2009,2070,2037
2037,2050,2037,2049,2073,2019,2066,2044
2036,2045,2033,2045,2063,2031,2066,2040
2029,2028,2022,2033,2043,2035,2043,2041
2028,2026,2023,2033,2030,2035,2045,2044
2035,2046,2038,2044,2041,2054,2054,2044
2042,2043,2037,2044,2059,2073,2052,2047
2036,2045,2035,2047,2061,2097,2053,2039
2038,2044,2029,2049,2083,2132,2084,2035
2034,2042,2045,2071,2107,2145,2094,2042
2043,2047,2055,2079,2103,2130,2066,2034
2044,2049,2064,2083,2100,2115,2070,2034
2042,2054,2069,2090,2106,2087,2080,2024
2043,2055,2057,2080,2090,2042,2065,2005
2033,2044,2038,2057,2072,2004,2019,1993
2032,2041,2023,2044,2088,2011,2021,1988
2025,2030,2027,2047,2076,2001,2029,1978
2028,2034,2022,2042,2045,2007,2034,1978
2029,2045,2049,2057,2058,2033,2040,1987
2032,2036,2044,2053,2059,2060,2050,1985
2032,2037,2040,2051,2058,2092,2075,1990
2038,2045,2041,2042,2060,2100,2073,1986
2034,2044,2039,2039,2057,2080,2053,1987
2037,2048,2042,2038,2054,2020,2044,1993
2038,2046,2050,2028,2048,2003,2049,2005
2042,2058,2051,2022,2049,2017,2053,2019
2045,2050,2036,2017,2056,2028,2048,2035
2046,2050,2026,2017,2061,2025,2050,2044
2046,2046,2033,2016,2069,2031,2057,2060
2054,2051,2050,2031,2066,2027,2070,2056
2058,2057,2065,2044,2065,2033,2064,2057
2063,2059,2076,2049,2069,2025,2070,2065
2069,2063,2073,2051,2071,2019,2074,2064
2072,2065,2075,2048,2061,2014,2058,2058
2070,2070,2075,2052,2073,2022,2061,2061
2070,2072,2072,2048,2066,2014,2053,2057
2070,2074,2066,2041,2058,2008,2060,2065
2085,2092,2076,2054,2066,2013,2056,2068
2082,2091,2082,2062,2098,2011,2052,2058
2073,2089,2082,2067,2115,2024,2032,2036
2054,2076,2073,2064,2125,2042,2030,2028
2044,2057,2058,2061,2155,2056,2025,2017
2034,2051,2057,2057,2196,2075,2033,2017
2029,2045,2049,2057,2202,2076,2049,2014
2028,2038,2036,2044,2162,2074,2053,2020
2019,2035,2036,2037,2073,2074,2029,2021
2021,2033,2027,2021,2011,2072,2040,2013
2025,2033,2021,2009,1983,2062,2038,2002
2025,2034,2014,2005,1914,2045,2033,1985
2008,2024,2002,1986,1826,2008,2008,1980
2008,2025,2002,1981,1861,1984,2024,1990
2011,2021,2006,1998,1964,1984,2042,1999
2023,2027,2011,2031,2042,2004,2045,2002
2028,2043,2016,2041,2093,2034,2054,2005
2033,2040,2017,2047,2112,2054,2062,2011
2032,2045,2019,2043,2091,2054,2068,2023
2040,2048,2022,2046,2068,2058,2065,2028
2040,2045,2027,2052,2049,2064,2056,2031
2046,2048,2028,2054,2033,2072,2065,2039
2038,2047,2035,2057,2037,2073,2065,2035
2035,2042,2040,2056,1999,2062,2071,2032
2030,2041,2047,2066,2014,2074,2075,2033
2034,2042,2065,2076,2064,2103,2076,2033
2033,2046,2077,2071,2080,2095,2072,2028
2024,2042,2078,2055,2080,2065,2036,2028
2030,2041,2080,2038,2068,2037,2026,2041
2042,2051,2079,2041,2062,2036,2034,2043
2042,2040,2066,2032,2042,2032,2036,2056
2036,2037,2049,2024,2061,2022,2041,2060
2046,2048,2056,2041,2131,2047,2057,2061
2055,2055,2062,2051,2155,2071,2053,2054
2050,2052,2057,2056,2138,2077,2059,2054
2042,2047,2048,2053,2115,2065,2060,2049
2040,2047,2047,2048,2104,2054,2055,2051
2036,2037,2048,2040,2071,2038,2061,2048
2032,2041,2044,2042,2044,2033,2062,2041
2035,2038,2046,2034,2025,2029,2053,2038
2037,2039,2051,2029,2007,2047,2064,2042
2039,2040,2051,2022,2014,2055,2063,2037
2040,2038,2048,2021,2022,2047,2076,2024
2038,2037,2047,2019,2036,2041,2059,2007
2028,2038,2040,2017,2029,2071,2052,2001
2027,2037,2043,2027,2032,2094,2049,1999
2025,2028,2033,2017,2042,2084,2051,1998
2016,2023,2027,2013,2046,2080,2049,1989
2022,2035,2042,2017,2056,2076,2035,2026
2042,2051,2053,2032,2107,2028,2044,2041
2046,2055,2058,2042,2131,2054,2052,2045
2050,2049,2050,2039,2127,2092,2067,2045
2055,2055,2055,2044,2113,2101,2053,2056
2056,2056,2052,2037,2064,2084,2051,2048
2050,2052,2052,2033,2016,2047,2037,2054
2050,2054,2061,2042,2010,1994,2042,2057
2049,2060,2060,2045,2013,1982,2043,2059
2045,2052,2050,2043,2004,2027,2070,2059
2041,2042,2048,2051,2045,2039,2070,2058
2037,2040,2045,2050,2041,2008,2033,2052
2025,2038,2051,2049,2044,2027,2052,2065
2035,2044,2062,2066,2096,2064,2064,2068
2040,2039,2052,2056,2116,2072,2062,2065
2037,2028,2044,2047,2106,2071,2043,2062
2040,2031,2043,2049,2119,2091,2081,2068
2042,2031,2031,2044,2151,2109,2065,2058
2036,2027,2028,2034,2133,2148,2061,2059
2038,2021,2021,2025,2086,2186,2054,2051
2028,2018,2024,2039,2062,2175,2058,2043
2031,2018,2027,2048,2063,2089,2028,2044
2035,2019,2025,2049,2066,1994,2038,2040
2028,2019,2020,2048,2091,1992,2036,2046
2039,2031,2034,2070,2141,2002,2048,2059
2056,2037,2046,2082,2180,2038,2062,2044
2054,2040,2041,2077,2176,2065,2070,2034
2052,2036,2037,2068,2146,2061,2070,2021
2039,2027,2031,2044,2108,1999,2063,2020
2027,2021,2018,2026,2085,1943,2034,2007
2013,2010,2010,2002,1959,1892,1993,2007
2010,2007,2013,1990,1843,1871,1990,2007
2023,2027,2035,2016,1913,1910,2024,2026
2034,2037,2035,2021,1962,1956,2042,2030
2034,2031,2020,2009,2004,2009,2042,2036
2038,2038,2031,2040,2102,2065,2071,2055
2053,2061,2054,2079,2182,2092,2078,2061
2060,2056,2050,2085,2209,2098,2081,2065
2046,2050,2055,2083,2235,2102,2070,2069
2041,2044,2052,2063,2181,2082,2067,2068
2039,2041,2051,2043,2094,2058,2067,2069
2039,2038,2048,2025,1913,2032,2046,2068
2042,2035,2048,2011,1832,2016,2043,2072
2044,2039,2056,2019,1933,2026,2050,2076
2036,2039,2060,2035,1985,2035,2042,2075
2046,2041,2061,2037,2002,2036,2032,2066
2040,2030,2050,2027,1968,2013,2030,2059
2035,2028,2051,2016,1935,2008,2047,2066
2040,2032,2057,2016,1929,2029,2061,2067
2045,2034,2054,2011,1935,2020,2048,2066
2039,2028,2042,1997,1945,2009,2060,2067
2045,2031,2041,2008,2008,2025,2044,2067
2036,2029,2037,2021,2103,2035,2057,2069
2042,2030,2042,2034,2164,2057,2060,2068
2044,2034,2041,2042,2164,2056,2048,2062
2042,2031,2041,2051,2121,2047,2052,2054
2037,2033,2044,2051,2120,2046,2045,2050
2042,2031,2043,2041,2104,2044,2032,2043
2039,2024,2038,2033,2092,2041,2039,2035
2038,2026,2035,2034,2092,2041,2030,2028
2031,2028,2036,2042,2108,2048,2047,2025
2033,2012,2027,2038,2102,2052,2063,2029
2022,2000,2001,2033,2086,2048,2056,2020
2021,1990,1988,2032,2071,2056,2056,2024
2028,1994,1985,2039,2066,2065,2063,2022
2032,2000,1981,2041,2059,2060,2060,2027
2032,2002,1982,2040,2045,2049,2037,2034
2040,2003,1983,2045,2034,2000,2037,2050
2037,2006,1995,2065,2054,1987,2044,2061
2032,2007,2005,2069,2059,1996,2045,2067
2032,2013,2009,2073,2056,2011,2059,2075
2036,2010,2004,2066,2034,1997,2054,2084
2046,2010,2016,2069,2049,2002,2049,2083
2044,2026,2025,2071,2074,2014,2061,2087
2036,2027,2027,2067,2094,2037,2049,2079
2033,2018,2016,2070,2110,2052,2064,2088
2028,2016,2016,2058,2111,2063,2064,2089
2027,2013,2018,2033,2079,2050,2070,2086
2026,2010,2036,2019,2041,2066,2061,2092
2036,2031,2075,2039,2045,2102,2056,2100
2056,2061,2127,2070,2036,2135,2081,2105
2058,2078,2134,2057,2026,2115,2068,2105
2052,2070,2116,2014,1995,2102,2071,2101
2047,2063,2104,1998,1974,2088,2077,2100
2052,2067,2092,1984,1951,2067,2062,2093
2047,2059,2086,1983,1949,2064,2050,2087
2048,2061,2084,1973,1977,2087,2059,2089
2057,2066,2073,1984,1991,2066,2060,2082
2061,2068,2067,1991,2015,2041,2070,2077
2050,2061,2063,2009,2063,2038,2058,2074
2048,2057,2062,2019,2090,2041,2041,2066
2053,2058,2065,2035,2138,2016,2035,2062
2052,2055,2068,2047,2160,2032,2052,2064
2052,2060,2069,2051,2164,2062,2033,2065
2049,2047,2060,2043,2169,2075,2052,2050
2027,2033,2048,2048,2149,2080,2035,2046
2036,2051,2055,2059,2157,2074,2048,2055
2034,2055,2060,2068,2184,2067,2039,2064
2034,2053,2057,2078,2210,2065,2046,2069
2039,2051,2054,2083,2225,2070,2036,2080
2039,2049,2050,2076,2190,2061,2034,2083
2045,2054,2051,2071,2121,2059,2038,2089
2043,2047,2056,2064,2094,2044,2054,2097
2042,2046,2057,2064,2125,2046,2049,2094
2036,2042,2053,2059,2124,2052,2059,2099
2041,2040,2048,2062,2088,2064,2062,2094
2036,2040,2053,2058,2047,2067,2058,2098
2031,2028,2037,2028,2026,2073,2060,2103
2032,2017,2027,2004,1972,2039,2057,2111
2037,2011,2025,2002,1949,2003,2069,2122
2041,2024,2027,2011,1971,2016,2082,2116
2042,2025,2027,2021,2033,2052,2071,2114
2044,2037,2034,2030,2128,2105,2087,2115
2046,2038,2033,2056,2220,2125,2091,2104
2036,2030,2034,2061,2253,2125,2065,2097
2028,2030,2034,2055,2259,2113,2068,2086
2031,2027,2034,2045,2217,2088,2069,2094
2035,2031,2039,2034,2143,2075,2075,2092
2034,2031,2032,2029,2077,2054,2068,2090
2032,2025,2025,2021,2039,2028,2054,2080
2029,2014,2017,2016,2051,2019,2058,2074
2031,2004,2009,1998,1995,2010,2051,2066
2022,1994,1998,1995,1950,2016,2049,2057
2022,1998,2003,2021,1963,2027,2052,2055
2027,2012,2022,2052,2022,2054,2057,2055
2033,2032,2038,2060,2072,2059,2028,2058
2025,2024,2031,2035,2066,2054,2028,2050
2029,2015,2023,2034,2100,2053,2055,2052
2025,2018,2030,2036,2085,2070,2071,2055
2030,2027,2028,2025,2036,2062,2061,2063
2029,2024,2029,2022,2019,2057,2063,2067
2030,2025,2032,2015,1996,2057,2062,2082
2037,2028,2033,1999,1952,2042,2068,2088
2043,2033,2028,1990,1937,2038,2069,2106
2048,2039,2034,2004,1944,2043,2064,2118
2053,2057,2047,2019,1937,2039,2075,2124
2060,2069,2062,2016,1863,2030,2059,2124
2056,2060,2054,2004,1843,2010,2053,2117
2046,2050,2037,2005,1922,1998,2054,2106
2047,2045,2025,2007,2000,2000,2052,2115
2046,2043,2033,2026,2075,2008,2048,2120
2047,2041,2040,2031,2098,2014,2055,2118
2047,2044,2049,2022,2083,2021,2061,2120
2040,2045,2046,2009,2044,2021,2058,2122
2040,2042,2040,2004,2029,2027,2064,2123
2049,2047,2044,2000,2030,2026,2057,2120
2052,2047,2045,2017,2068,2035,2053,2111
2050,2042,2047,2038,2117,2053,2059,2097
2038,2032,2038,2041,2130,2073,2059,2099
2034,2033,2032,2045,2141,2096,2058,2103
2038,2029,2039,2055,2155,2104,2052,2095
2035,2029,2035,2062,2139,2098,2044,2094
2031,2023,2026,2051,2090,2087,2049,2080
2022,2016,2016,2041,2068,2072,2054,2080
2026,2014,2019,2028,2025,2056,2046,2083
2036,2017,2021,2018,1985,2040,2027,2078
2038,2025,2016,2015,1961,2029,2041,2071
2041,2028,2021,2002,1948,2024,2034,2075
2040,2038,2022,2004,1966,2033,2025,2081
2037,2034,2004,2000,1983,2025,2039,2083
2034,2020,2007,2008,2004,2043,2044,2088
2048,2050,2028,2024,2018,2065,2044,2092
2055,2063,2038,2039,2042,2070,2050,2092
2057,2064,2024,2041,2061,2069,2059,2090
2045,2042,2029,2050,2094,2078,2053,2090
2034,2033,2040,2056,2110,2079,2046,2094
2025,2019,2038,2056,2116,2073,2037,2101
2042,2026,2041,2051,2070,2068,2033,2105
2045,2030,2053,2044,2060,2060,2033,2103
2034,2030,2037,2036,2066,2045,2037,2106
2037,2012,2025,2036,2073,2047,2031,2104
2034,2010,2018,2044,2098,2054,2051,2106
2030,2008,2009,2038,2054,2055,2017,2104
2020,2010,2004,2035,2024,2056,2015,2115
2032,2025,2023,2052,2038,2064,2032,2122
2034,2036,2030,2045,2050,2061,2008,2120
2039,2040,2039,2036,2066,2040,2007,2124
2037,2046,2060,2042,2056,2015,2045,2124
2038,2040,2061,2022,2025,2019,2038,2110
2028,2037,2063,2037,2037,2037,2031,2109
2029,2043,2076,2060,2046,2046,2038,2106
2036,2046,2076,2058,2044,2054,2044,2110
2032,2036,2055,2055,2055,2047,2032,2117
2034,2027,2052,2085,2078,2012,2025,2110
2043,2035,2066,2105,2103,2034,2053,2107
2046,2044,2091,2125,2138,2071,2049,2097
2049,2050,2113,2149,2166,2098,2051,2092
2048,2053,2115,2156,2196,2109,2044,2091
2031,2046,2100,2146,2190,2115,2064,2078
2034,2047,2085,2139,2161,2115,2064,2075
2035,2047,2084,2135,2162,2103,2050,2072
2033,2041,2068,2114,2155,2069,2050,2064
2018,2022,2048,2087,2111,2041,2024,2062
2018,2027,2045,2075,2103,2019,2017,2058
2022,2030,2049,2059,2057,2002,2034,2067
2022,2032,2039,2031,1989,1998,2028,2077
2020,2033,2029,1987,1872,2004,2016,2077
2023,2019,2022,1979,1926,2003,1999,2085
2023,2022,2028,1975,1981,1996,2035,2090
2024,2021,2021,1954,1990,2004,2038,2109
2031,2039,2034,1962,2016,2028,2031,2126
2045,2055,2045,1982,2047,2064,2036,2135
2049,2067,2060,2002,2095,2097,2049,2126
2054,2067,2068,2016,2091,2105,2049,2128
2046,2065,2072,2021,2077,2099,2054,2122
2041,2068,2078,2029,2076,2063,2041,2136
2053,2075,2098,2057,2101,2046,2038,2148
2051,2077,2091,2056,2098,2052,2025,2145
2044,2071,2085,2062,2096,2062,2026,2136
2042,2066,2085,2069,2127,2085,2039,2141
2051,2067,2082,2051,2120,2088,2059,2138
2049,2072,2077,2034,2040,2075,2067,2137
2049,2066,2074,2015,1980,2073,2053,2122
2047,2062,2062,2009,2040,2105,2057,2126
2044,2054,2053,2009,2079,2111,2056,2116
2050,2054,2045,2014,2074,2126,2070,2120
2040,2051,2041,2031,2052,2118,2064,2124
2043,2053,2045,2050,2057,2079,2072,2119
2041,2053,2051,2065,2093,2029,2054,2105
2037,2050,2045,2061,2078,2028,2062,2084
2025,2046,2038,2054,2091,2034,2040,2082
2037,2049,2035,2048,2111,2053,2062,2091
2039,2045,2026,2028,2072,2047,2046,2080
2027,2037,2009,2010,2098,2024,2033,2069
2025,2030,2007,2020,2184,2024,2038,2078
2032,2056,2021,2031,2167,2032,2050,2089
2048,2058,2026,2014,2056,2044,2043,2089
2037,2045,2014,1985,1981,2055,2037,2088
2036,2046,2010,1978,2015,2072,2036,2082
2041,2046,2031,1994,2047,2060,2030,2097
2038,2053,2057,2017,2077,2020,2034,2099
2038,2058,2074,2027,2080,1997,2027,2106
2029,2061,2088,2038,1977,1994,2024,2117
2022,2058,2104,2046,1958,2018,2043,2128
2033,2064,2106,2068,2033,2056,2076,2138
2042,2068,2097,2078,2057,2073,2083,2142
2042,2063,2090,2067,2055,2065,2084,2138
2034,2058,2072,2050,1994,2060,2050,2136
2032,2053,2068,2055,2024,2062,2050,2134
2032,2043,2055,2042,2056,2050,2043,2135
2030,2038,2051,2045,2051,2049,2050,2135
2037,2046,2050,2045,2020,2047,2064,2132
2032,2044,2044,2028,2027,2040,2042,2130
2028,2031,2021,2022,2041,2047,2066,2133
2029,2040,2029,2018,2035,2067,2076,2134
2046,2060,2035,2031,2030,2076,2070,2128
2051,2056,2028,2027,2059,2076,2035,2124
2046,2048,2016,2025,2078,2084,2064,2124
2041,2043,2011,2045,2082,2092,2073,2116
2041,2032,2021,2058,2065,2090,2057,2108
2039,2027,2020,2064,2052,2085,2037,2099
2031,2028,2015,2073,2093,2066,2031,2090
2031,2028,2018,2079,2109,2037,2025,2076
2031,2035,2020,2066,2077,2027,2041,2075
2031,2044,2004,2054,2074,2038,2009,2068
2026,2029,1987,2052,2088,2027,2010,2057
2015,2020,1984,2055,2084,2032,1991,2061
2020,2026,1997,2071,2074,2036,2032,2080
2032,2043,2004,2066,2065,2042,2049,2096
2041,2045,2001,2041,2034,2040,2038,2093
2025,2034,1996,2017,1970,2033,2022,2089
2023,2032,2004,1999,1984,2030,2023,2090
2023,2038,2020,1978,2005,2034,2033,2095
2028,2049,2047,1970,2019,2032,2025,2106
2034,2056,2068,1971,2030,2042,2025,2119
2044,2060,2084,1988,2028,2045,2043,2119
2049,2067,2088,2002,2032,2050,2034,2137
2060,2066,2084,2012,2043,2062,2070,2137
2058,2066,2081,2016,2044,2066,2054,2144
2058,2059,2070,2028,2049,2060,2053,2142
2055,2054,2060,2029,2037,2059,2022,2140
2049,2036,2040,2029,2026,2051,2010,2125
2042,2033,2035,2031,2032,2052,2014,2114
2030,2040,2038,2037,2034,2060,2031,2127
2041,2047,2035,2045,2035,2064,2040,2140
2047,2049,2043,2043,2036,2064,2036,2135
2053,2054,2044,2039,2035,2060,2036,2135
2052,2053,2043,2025,2032,2061,2053,2131
2048,2049,2037,2039,2048,2055,2045,2118
2045,2043,2051,2048,2070,2057,2042,2111
2044,2052,2063,2055,2070,2059,2046,2112
2045,2055,2068,2053,2060,2055,2036,2100
2044,2055,2077,2047,2041,2054,2044,2088
2035,2045,2094,2045,2037,2056,2024,2080
2026,2045,2096,2039,2042,2052,2009,2079
2026,2046,2104,2046,2063,2058,2037,2080
2033,2054,2100,2046,2057,2056,2044,2079
2032,2050,2087,2040,2024,2048,2036,2076
2027,2054,2078,2051,2016,2047,2033,2076
2029,2061,2078,2070,2026,2057,2038,2076
2039,2064,2064,2074,2024,2063,2040,2082
2042,2063,2061,2076,2023,2054,2039,2092
2044,2071,2053,2075,2024,2049,2051,2106
2048,2059,2042,2067,2035,2046,2037,2105
2052,2049,2028,2046,2015,2048,2024,2112
2054,2048,2017,2026,2022,2058,2038,2123
2062,2048,2009,2023,2060,2064,2041,2131
2066,2042,1994,2035,2077,2066,2050,2121
2061,2028,1979,2036,2047,2065,2026,2115
2046,2038,1993,2046,2039,2068,2050,2122
2044,2045,1998,2043,2022,2063,2040,2127
2044,2048,1998,2035,2021,2062,2033,2128
2050,2049,1990,2035,2032,2054,2042,2134
2052,2045,1989,2034,2029,2039,2036,2117
2048,2041,1984,2025,2026,2024,2024,2118
2054,2032,1976,2027,2050,2031,2025,2126
2046,2034,1975,2036,2073,2052,2033,2129
2045,2042,1981,2047,2104,2057,2042,2120
2050,2038,1979,2039,2094,2056,2023,2116
2043,2033,1982,2025,2084,2061,2030,2107
2038,2037,2022,2030,2080,2064,2033,2108
2040,2045,2065,2047,2072,2053,2040,2107
2042,2060,2095,2050,2075,2049,2032,2104
2040,2065,2105,2045,2076,2050,2045,2094
2043,2073,2134,2047,2069,2054,2048,2087
2050,2073,2140,2050,2069,2059,2055,2084
2049,2072,2124,2049,2065,2062,2051,2084
2057,2066,2096,2033,2070,2065,2062,2079
2050,2057,2070,2023,2064,2065,2055,2080
2052,2045,2059,2018,2059,2061,2027,2076
2044,2035,2048,2021,2049,2058,2016,2067
2043,2040,2045,2027,2052,2059,2028,2066
2043,2040,2037,2039,2059,2061,2051,2074
2042,2040,2028,2039,2057,2056,2030,2077
2037,2041,2023,2042,2056,2061,2045,2076
2043,2046,2023,2052,2043,2040,2041,2089
2040,2048,2029,2060,2017,2028,2035,2093
2040,2048,2031,2061,1995,2012,2024,2094
2040,2045,2029,2057,2002,2008,2023,2106
2042,2052,2050,2068,2024,2026,2028,2113
2049,2066,2089,2097,2070,2054,2046,2120
2054,2067,2108,2103,2100,2068,2054,2131
2058,2066,2088,2096,2118,2081,2057,2121
2049,2060,2072,2081,2110,2080,2046,2114
2044,2050,2065,2069,2082,2070,2055,2121
2054,2051,2054,2054,2059,2057,2040,2124
2048,2034,2056,2050,2043,2042,2018,2127
2051,2046,2066,2058,2051,2061,2059,2129
2058,2052,2061,2059,2062,2078,2073,2126
2059,2056,2054,2062,2068,2104,2081,2120
2051,2047,2056,2056,2075,2126,2068,2115
2051,2056,2059,2045,2058,2119,2065,2117
2052,2063,2074,2042,2062,2099,2036,2112
2063,2077,2084,2037,2056,2044,2035,2104
2062,2082,2084,2040,2052,2000,2049,2102
2067,2072,2066,2044,2065,2018,2050,2104
2064,2066,2051,2052,2069,2038,2027,2101
2062,2054,2049,2071,2074,2059,2039,2093
2055,2051,2047,2065,2072,2071,2049,2079
2057,2043,2043,2069,2066,2073,2062,2067
2050,2036,2029,2061,2061,2079,2064,2062
2047,2031,2006,2045,2052,2065,2031,2063
2043,2022,2006,2052,2049,2059,2028,2059
2054,2047,2020,2061,2056,2060,2029,2061
2055,2046,2012,2064,2058,2048,2040,2059
2049,2039,2013,2072,2061,2040,2037,2058
2042,2036,2025,2069,2058,2027,2030,2059
2035,2043,2031,2077,2058,2034,2027,2066
2041,2050,2053,2081,2059,2041,2037,2074
2045,2058,2061,2083,2065,2041,2049,2099
2056,2060,2072,2082,2058,2036,2047,2099
2056,2058,2075,2075,2047,2033,2053,2101
2049,2059,2069,2076,2048,2053,2060,2100
2057,2057,2067,2084,2056,2060,2069,2105
2054,2058,2066,2085,2056,2059,2063,2095
2048,2049,2059,2082,2059,2052,2059,2095
2043,2043,2060,2081,2056,2048,2035,2099
2046,2039,2056,2074,2041,2058,2033,2090
2039,2034,2048,2060,2023,2065,2027,2091
2049,2037,2035,2034,2033,2080,2028,2101
2040,2031,2027,2010,2019,2072,2036,2100
2040,2038,2034,2016,2009,2070,2041,2109
2040,2048,2050,2038,2034,2041,2054,2117
2050,2053,2043,2040,2044,2039,2056,2112
2058,2052,2033,2029,2051,2052,2061,2108
2061,2043,2028,2025,2042,2052,2060,2097
2061,2049,2044,2031,2039,2053,2054,2094
2067,2069,2056,2029,2030,2050,2050,2091
2067,2080,2075,2040,2027,2049,2042,2078
2068,2085,2082,2052,2038,2056,2036,2075
2052,2078,2076,2056,2048,2051,2039,2060
2049,2067,2067,2052,2049,2053,2054,2061
2042,2061,2057,2049,2056,2067,2046,2063
2041,2060,2065,2048,2041,2071,2040,2056
2035,2059,2068,2059,2032,2068,2040,2066
2052,2070,2088,2062,2022,2068,2047,2069
2060,2076,2095,2076,2026,2026,2037,2081
2064,2087,2101,2078,2034,2017,2047,2081
2070,2081,2094,2074,2037,2032,2045,2087
2054,2071,2078,2068,2037,2058,2037,2085
2053,2068,2072,2061,2036,2081,2035,2089
2051,2067,2060,2066,2044,2091,2058,2094
2056,2068,2062,2065,2034,2095,2029,2101
2056,2064,2055,2065,2039,2094,2059,2102
2055,2058,2052,2060,2041,2093,2053,2105
2058,2065,2052,2063,2050,2092,2044,2101
2060,2076,2058,2061,2049,2092,2043,2108
2060,2065,2042,2064,2076,2080,2045,2112
2055,2059,2032,2074,2095,2057,2052,2111
2051,2048,2023,2082,2075,2036,2037,2104
2047,2045,2035,2096,2061,2020,2032,2114
2052,2064,2060,2114,2064,2024,2060,2114
2056,2060,2073,2119,2056,2016,2050,2104
2056,2058,2073,2119,2055,2028,2045,2093
2051,2058,2077,2113,2053,2062,2052,2097
2056,2057,2078,2112,2042,2071,2043,2088
2060,2061,2071,2109,2034,2069,2044,2068
2050,2061,2066,2100,2027,2059,2027,2070
2042,2055,2063,2106,2014,2061,2043,2067
2043,2054,2047,2094,1975,2040,2027,2068
2052,2055,2046,2075,1957,2019,2024,2062
2045,2048,2032,2047,1963,2022,2020,2050
2042,2049,2024,2035,1976,2034,2019,2056
2048,2052,2024,2026,2014,2010,2037,2064
2064,2052,2009,2008,2039,1998,2041,2060
2059,2057,2002,2001,2064,2021,2042,2065
2066,2069,2013,2003,2079,2045,2026,2073
2076,2081,2010,2010,2082,2058,2019,2076
2081,2088,2008,2014,2093,2064,2049,2086
2083,2088,2016,2026,2098,2063,2037,2083
2082,2081,2024,2037,2112,2063,2043,2074
2070,2072,2031,2044,2105,2056,2029,2079
2071,2071,2037,2048,2092,2041,2044,2090
2068,2062,2036,2047,2089,2034,2014,2101
2072,2063,2039,2057,2096,2025,2028,2105
2061,2057,2029,2065,2073,2016,2020,2095
2059,2059,2024,2066,2053,2014,2028,2096
2063,2063,2033,2075,2062,2028,2040,2111
2068,2066,2044,2063,2058,2035,2048,2113
2067,2067,2053,2044,1987,2023,2032,2109
2064,2064,2056,2031,1944,2003,2019,2101
2060,2050,2041,2032,1979,2015,2041,2112
2061,2056,2050,2052,2053,2035,2048,2111
2073,2066,2064,2057,2065,2054,2058,2123
2077,2080,2075,2058,2052,2046,2045,2117
2071,2074,2066,2059,2044,2035,2051,2114
2064,2063,2061,2065,2047,2040,2033,2107
2065,2067,2057,2069,2052,2045,2038,2102
2067,2065,2062,2080,2066,2054,2046,2105
2071,2069,2059,2093,2065,2050,2050,2105
2071,2074,2068,2097,2060,2045,2049,2102
2070,2069,2064,2094,2063,2072,2064,2100
2066,2062,2054,2086,2051,2069,2052,2087
2056,2054,2041,2085,2049,2059,2050,2073
2060,2058,2038,2084,2046,2066,2042,2069
2058,2058,2041,2091,2039,2057,2043,2062
2052,2050,2042,2082,2028,2041,2029,2056
2050,2046,2035,2073,2001,2029,2023,2056
2051,2051,2048,2071,2001,2043,2030,2049
2058,2064,2068,2080,2038,2064,2044,2050
2059,2065,2063,2082,2038,2045,2035,2056
2060,2062,2065,2076,2030,2034,2040,2064
2065,2066,2077,2079,2045,2034,2034,2073
2066,2066,2080,2083,2044,2042,2046,2077
2066,2073,2075,2077,2042,2044,2032,2086
2067,2064,2054,2060,2028,2052,2021,2090
2066,2060,2038,2045,2003,2058,2029,2085
2062,2063,2023,2038,2000,2054,2041,2090
2061,2058,2015,2034,1993,2046,2034,2098
2067,2052,2004,2033,1987,2019,2035,2103
2068,2054,2002,2026,2011,1992,2045,2109
2076,2059,2001,2028,2047,2000,2022,2118
2080,2062,2002,2040,2060,2021,2052,2119
2079,2056,1997,2033,2066,2043,2055,2115
2073,2046,1990,2025,2055,2068,2057,2116
2073,2051,1998,2030,2050,2101,2042,2123
2082,2059,2001,2039,2036,2088,2056,2117
2076,2060,2002,2039,2036,2061,2026,2099
2064,2049,1989,2041,2021,2048,2007,2096
2048,2048,1999,2048,2011,2044,2008,2093
2050,2064,2040,2068,2023,2056,2033,2097
2068,2086,2089,2085,2034,2072,2075,2104
2082,2092,2093,2082,2040,2081,2080,2094
2078,2089,2084,2080,2047,2083,2079,2089
2077,2083,2077,2069,2042,2077,2071,2080
2083,2068,2056,2065,2056,2081,2051,2072
2077,2068,2041,2063,2060,2078,2061,2062
2075,2069,2042,2068,2062,2061,2056,2064
2076,2070,2043,2073,2055,2043,2041,2057
2064,2056,2035,2053,2042,2023,2009,2062
2061,2052,2031,2040,2028,2022,2020,2058
2068,2062,2048,2037,2024,2035,2023,2061
2079,2068,2062,2043,2027,2050,2014,2065
2078,2073,2078,2046,2031,2060,2029,2067
2078,2076,2090,2046,2029,2068,2022,2066
2074,2073,2083,2050,2030,2051,2026,2071
2070,2067,2072,2050,2025,2036,2015,2085
2068,2068,2067,2051,2024,2040,2020,2087
2073,2078,2078,2063,2031,2045,2028,2102
2082,2081,2080,2073,2037,2053,2029,2108
2075,2083,2081,2075,2046,2054,2021,2101
2071,2080,2071,2069,2047,2047,2035,2106
2075,2074,2067,2065,2049,2049,2011,2109
2074,2072,2069,2064,2045,2049,2040,2108
2072,2068,2063,2058,2040,2044,2031,2116
2066,2056,2051,2054,2030,2035,2026,2113
2065,2057,2054,2057,2043,2046,2043,2111
2075,2073,2061,2075,2050,2048,2035,2113
2080,2065,2056,2079,2047,2046,2034,2106
2081,2064,2060,2082,2048,2058,2038,2108
2077,2073,2066,2080,2044,2050,2015,2112
2075,2076,2066,2078,2041,2051,2039,2096
2065,2067,2066,2081,2049,2060,2043,2083
2066,2078,2062,2082,2047,2062,2020,2078
2064,2074,2057,2081,2038,2063,2052,2077
2063,2062,2054,2077,2041,2058,2048,2076
2061,2062,2053,2072,2040,2065,2045,2067
2056,2055,2057,2075,2042,2067,2054,2060
2054,2056,2053,2079,2041,2056,2040,2056
2057,2061,2050,2085,2036,2059,2044,2054
2066,2065,2052,2081,2030,2051,2040,2051
2054,2058,2041,2059,2022,2043,2026,2046
2056,2046,2032,2046,2016,2041,2033,2055
2061,2062,2049,2050,2024,2051,2044,2049
2061,2068,2058,2054,2032,2049,2025,2050
2056,2065,2050,2053,2026,2049,2049,2056
2059,2071,2046,2059,2027,2046,2012,2064
2063,2069,2046,2066,2026,2048,2027,2081
2065,2063,2041,2068,2031,2054,2035,2084
2067,2055,2031,2071,2034,2054,2041,2092
2061,2048,2024,2072,2028,2050,2017,2093
2064,2044,2021,2066,2029,2051,2042,2095
2064,2036,2020,2062,2032,2051,2047,2096
2063,2034,2015,2053,2028,2046,2045,2102
2061,2038,2009,2050,2034,2042,2018,2099
2062,2033,2004,2046,2034,2040,2032,2102
2064,2034,1993,2046,2034,2044,2029,2099
2060,2023,1988,2039,2031,2045,2045,2088
2064,2027,2005,2039,2036,2041,2042,2096
2067,2036,2032,2056,2042,2049,2050,2101
2070,2042,2053,2053,2046,2053,2038,2096
2068,2049,2061,2054,2049,2052,2041,2093
2076,2065,2072,2060,2058,2058,2056,2090
2070,2065,2068,2070,2053,2060,2042,2089
2065,2061,2056,2083,2051,2057,2049,2085
2067,2061,2042,2089,2052,2058,2037,2076
2067,2055,2031,2097,2054,2055,2058,2071
2060,2047,2029,2098,2060,2062,2024,2065
2061,2049,2036,2097,2054,2055,2042,2058
2051,2038,2047,2085,2041,2047,2036,2047
2053,2037,2047,2070,2033,2039,2037,2044
2057,2041,2045,2056,2022,2040,2030,2041
2060,2045,2041,2056,2023,2037,2028,2037
2063,2040,2029,2041,2012,2038,2018,2042
2071,2058,2033,2041,2028,2046,2035,2050
2078,2084,2043,2045,2030,2045,2037,2053
2079,2076,2026,2029,2019,2040,2040,2053
2079,2064,2013,2021,2010,2034,2031,2058
2077,2061,2018,2020,2009,2040,2034,2064
2078,2065,2024,2018,2008,2039,2049,2077
2078,2066,2024,2019,2015,2039,2025,2080
2076,2068,2049,2030,2032,2038,2030,2085
2078,2086,2099,2059,2041,2047,2035,2084
2083,2094,2114,2082,2066,2056,2048,2084
2080,2086,2106,2098,2087,2051,2050,2082
2069,2069,2098,2088,2063,2058,2028,2086
2068,2062,2084,2092,2061,2057,2040,2092
2068,2060,2083,2089,2038,2056,2034,2090
2069,2065,2089,2096,2033,2060,2047,2094
2074,2064,2089,2091,2041,2052,2015,2092
2066,2061,2106,2092,2033,2055,2036,2092
2070,2073,2102,2071,2008,2041,2044,2092
2081,2066,2089,2057,2002,2039,2045,2089
2076,2064,2076,2058,2017,2042,2032,2088
2070,2069,2082,2054,2029,2046,2036,2079
2077,2078,2092,2055,2080,2044,2051,2086
2069,2080,2104,2056,2106,2041,2046,2086
2076,2077,2102,2051,2102,2044,2033,2079
2075,2077,2089,2045,2105,2053,2055,2072
2076,2081,2082,2050,2110,2062,2050,2073
2079,2075,2078,2053,2080,2073,2051,2062
2077,2066,2073,2056,2079,2082,2069,2051
2073,2065,2068,2063,2079,2093,2055,2049
2062,2061,2063,2064,2071,2105,2034,2044
2066,2059,2064,2060,1982,2101,2045,2036
2054,2043,2056,2043,1921,2091,2046,2028
2053,2047,2055,2053,1972,2061,2048,2032
2065,2056,2056,2052,2006,2049,2045,2038
2059,2053,2044,2041,2018,2050,2050,2042
2058,2047,2039,2036,2004,2048,2041,2046
2059,2046,2033,2032,2017,2030,2037,2053
2059,2047,2032,2030,2027,2028,2012,2058
2072,2055,2036,2037,2031,2033,2018,2059
2065,2051,2039,2042,2028,2035,2033,2061
2061,2049,2036,2045,2025,2028,2025,2066
2068,2045,2043,2052,2024,2035,2030,2072
2068,2047,2042,2050,2033,2049,2046,2070
2069,2049,2045,2051,2038,2049,2057,2071
2064,2048,2037,2052,2036,2052,2063,2077
2061,2041,2032,2046,2045,2051,2056,2076
2060,2048,2034,2049,2047,2051,2040,2082
2054,2036,2029,2048,2045,2043,2045,2079
2065,2035,2037,2060,2045,2054,2030,2079
2070,2049,2053,2071,2049,2057,2038,2082
2065,2050,2062,2074,2040,2053,2022,2077
2068,2052,2069,2080,2034,2062,2037,2078
2065,2057,2064,2074,2033,2058,2058,2075
2078,2056,2057,2069,2035,2054,2038,2069
2074,2055,2051,2063,2025,2042,2063,2064
2079,2057,2048,2063,2024,2033,2041,2061
2074,2061,2060,2066,2022,2049,2043,2058
2074,2062,2058,2077,2037,2048,2043,2045
2070,2059,2057,2070,2043,2044,2043,2033
2065,2052,2042,2061,2040,2045,2040,2024
2064,2050,2044,2053,2031,2042,2049,2025
2060,2049,2039,2047,2031,2044,2038,2029
2055,2058,2044,2037,2040,2055,2034,2035
2057,2056,2049,2034,2032,2043,2027,2027
2057,2049,2046,2023,2029,2038,2006,2031
2067,2062,2031,2023,2027,2036,2025,2031
2072,2053,2027,2027,2029,2027,2048,2037
2072,2059,2040,2033,2031,2024,2035,2044
2072,2056,2049,2043,2033,2027,2041,2045
2071,2059,2052,2047,2038,2037,2032,2047
2069,2055,2047,2045,2034,2043,2024,2049
2072,2057,2046,2045,2037,2046,2045,2054
2069,2056,2047,2043,2029,2044,2029,2059
2072,2054,2047,2050,2027,2045,2035,2066
2074,2058,2056,2050,2028,2038,2033,2069
2076,2055,2068,2050,2032,2031,2047,2075
2071,2062,2081,2060,2035,2045,2056,2076
2084,2064,2082,2054,2035,2055,2049,2078
2068,2054,2081,2047,2044,2056,2065,2075
2069,2052,2064,2045,2042,2052,2048,2076
2066,2040,2050,2042,2036,2046,2046,2076
2060,2040,2043,2049,2040,2050,2067,2082
2076,2057,2048,2061,2042,2054,2069,2075
2070,2054,2041,2058,2037,2054,2052,2080
2076,2060,2050,2059,2023,2044,2066,2075
2072,2058,2050,2051,1986,2027,2054,2062
2075,2062,2046,2052,1980,2021,2030,2060
2068,2058,2044,2051,1966,2016,2012,2041
2069,2053,2036,2042,1974,2039,2041,2040
2060,2054,2038,2050,2014,2082,2052,2043
2067,2057,2048,2062,2050,2092,2048,2042
2071,2055,2046,2064,2071,2087,2042,2036
2069,2050,2051,2070,2080,2097,2060,2029
2060,2054,2051,2059,2070,2088,2046,2021
2064,2055,2043,2054,2051,2068,2034,2011
2066,2057,2050,2047,2052,2049,2062,2001
2049,2037,2037,2044,2065,2029,2032,2000
2044,2034,2031,2044,2081,2004,2038,2003
2046,2039,2029,2044,2080,2013,2035,2006
2047,2039,2030,2038,2067,2052,2038,2004
2045,2040,2041,2041,2064,2073,2040,2018
2055,2049,2047,2048,2040,2066,2040,2021
2058,2049,2043,2041,2017,2054,2034,2036
2061,2048,2040,2042,2008,2027,2048,2049
2066,2048,2036,2044,2026,2011,2050,2054
2063,2049,2026,2036,2039,1996,2030,2062
2063,2049,2026,2050,2061,2004,2040,2060
2075,2054,2040,2056,2067,2014,2051,2061
2076,2060,2036,2056,2065,2025,2038,2053
2058,2055,2042,2063,2086,2048,2041,2049
2055,2046,2038,2056,2093,2071,2058,2049
2044,2032,2034,2049,2075,2070,2060,2041
2040,2020,2021,2035,2042,2041,2052,2034
2036,2014,2023,2036,2022,2028,2030,2033
2049,2032,2041,2051,2034,2041,2042,2044
2056,2041,2039,2048,2046,2030,2036,2054
2059,2039,2034,2044,2054,2028,2038,2051
2061,2047,2044,2044,2071,2027,2056,2046
2063,2057,2067,2054,2066,2045,2040,2046
2066,2065,2091,2050,2012,2053,2047,2043
2081,2078,2100,2057,1994,2068,2054,2044
2078,2077,2096,2075,2034,2078,2060,2046
2082,2064,2081,2080,2044,2085,2055,2032
2067,2053,2071,2077,2056,2078,2039,2027
2060,2046,2063,2076,2072,2078,2051,2026
2058,2046,2059,2070,2065,2076,2039,2013
2058,2042,2057,2066,2051,2065,2021,2007
2049,2042,2054,2052,2038,2051,2020,2004
2056,2050,2062,2047,2038,2047,2006,2002
2058,2040,2052,2033,2013,2027,2007,1998
2048,2038,2043,2030,2017,2034,2033,2012
2061,2053,2061,2038,2035,2033,2039,2010
2072,2061,2064,2042,2045,2025,2045,2016
2075,2066,2061,2042,2047,1984,2046,2031
2081,2060,2049,2043,2050,1985,2041,2034
2075,2054,2044,2050,2052,2003,2037,2029
2076,2052,2043,2045,2057,2019,2047,2039
2073,2052,2045,2049,2056,2033,2040,2046
2074,2050,2042,2041,2043,2036,2048,2042
2062,2038,2042,2042,2038,2040,2036,2037
2067,2038,2044,2042,2031,2033,2029,2040
2059,2036,2041,2041,2024,2031,2023,2042
2058,2041,2045,2043,2026,2033,2040,2052
2056,2036,2037,2048,2036,2045,2027,2044
2050,2034,2033,2041,2029,2051,2041,2042
2041,2029,2033,2032,2023,2044,2032,2041
2037,2027,2028,2033,2023,2046,2047,2044
2039,2037,2048,2040,2037,2046,2059,2054
2058,2057,2060,2050,2037,2047,2054,2053
2064,2064,2064,2053,2040,2053,2067,2058
2074,2061,2064,2050,2041,2053,2080,2056
2073,2064,2058,2052,2040,2046,2082,2052
2076,2062,2057,2048,2034,2046,2084,2056
2067,2062,2058,2049,2045,2048,2060,2046
2069,2055,2060,2046,2046,2047,2070,2043
2064,2057,2060,2047,2046,2061,2070,2041
2073,2059,2058,2048,2045,2062,2078,2034
2075,2061,2064,2051,2044,2060,2069,2030
2069,2060,2063,2050,2048,2061,2077,2011
2063,2053,2056,2053,2042,2047,2081,2005
2061,2051,2055,2050,2034,2036,2071,2001
2057,2050,2053,2048,2037,2041,2069,1995
2052,2037,2045,2048,2035,2044,2060,1988
2040,2039,2029,2047,2042,2050,2040,1987
2048,2044,2039,2055,2049,2056,2052,1995
2054,2050,2034,2065,2057,2063,2051,1990
2059,2055,2034,2078,2058,2061,2048,1997
2056,2046,2036,2083,2053,2043,2049,2000
2050,2043,2042,2082,2047,2030,2046,2002
2055,2044,2037,2077,2046,2027,2055,2014
2056,2035,2033,2073,2048,2032,2032,2025
2062,2040,2035,2067,2041,2035,2053,2029
2059,2041,2033,2058,2038,2034,2067,2026
2062,2044,2038,2061,2042,2029,2050,2028
2056,2047,2028,2062,2029,2029,2050,2034
2057,2045,2014,2057,2040,2023,2061,2035
2054,2045,2011,2048,2031,2021,2061,2040
2053,2037,2006,2032,2024,2012,2042,2040
2052,2033,1998,2014,2022,2001,2047,2040
2047,2025,1996,2013,2017,1997,2062,2041
2047,2032,2009,2018,2030,2000,2071,2046
2057,2061,2034,2030,2038,2009,2074,2043
2060,2063,2043,2026,2042,2008,2067,2034
2060,2062,2042,2016,2045,2008,2061,2038
2059,2060,2039,2019,2044,2014,2037,2028
2067,2059,2052,2024,2043,2014,2071,2027
2060,2057,2063,2032,2044,2029,2070,2027
2058,2062,2073,2030,2050,2049,2071,2016
2055,2057,2072,2039,2044,2078,2063,2009
2047,2056,2079,2039,2042,2096,2068,2004
2052,2056,2078,2037,2032,2091,2057,2003
2056,2053,2080,2036,2029,2074,2056,1992
2051,2057,2069,2035,2028,2057,2059,1988
2056,2061,2068,2028,2037,2063,2064,1997
2057,2059,2082,2030,2042,2067,2064,1992
2060,2064,2091,2031,2036,2062,2062,1982
2053,2063,2094,2027,2040,2063,2057,1988
2063,2067,2093,2038,2048,2067,2065,2003
2064,2071,2083,2036,2056,2068,2050,2004
2064,2058,2077,2044,2046,2067,2045,2003
2066,2053,2074,2041,2034,2064,2042,2002
2070,2056,2062,2038,2032,2056,2036,2012
2063,2057,2062,2032,2032,2049,2048,2022
2064,2056,2056,2033,2041,2049,2064,2018
2058,2054,2053,2038,2048,2057,2064,2018
2059,2049,2042,2032,2046,2054,2062,2021
2056,2047,2036,2038,2040,2048,2057,2026
2053,2036,2031,2033,2042,2044,2055,2020
2049,2041,2028,2035,2042,2046,2067,2030
2046,2044,2035,2046,2043,2053,2058,2040
2056,2043,2037,2045,2041,2046,2055,2037
2056,2051,2046,2050,2040,2051,2057,2034
2048,2043,2042,2046,2040,2049,2053,2029
2049,2039,2039,2048,2047,2056,2044,2036
2055,2046,2047,2048,2045,2065,2046,2031
2054,2047,2043,2047,2033,2082,2068,2026
2057,2046,2044,2050,2028,2081,2071,2034
2055,2047,2052,2056,2026,2081,2046,2024
2056,2037,2053,2064,2026,2073,2040,2015
2054,2041,2068,2074,2045,2036,2057,2014
2054,2038,2076,2089,2079,2024,2051,2014
2055,2045,2087,2094,2092,2030,2070,2013
2056,2056,2090,2095,2102,2039,2056,2003
2058,2055,2084,2085,2126,2052,2074,2002
2057,2053,2057,2066,2131,2057,2058,1997
2053,2041,2034,2044,2106,2054,2067,1991
2051,2034,2027,2028,2065,2042,2055,1991
2050,2032,2035,2030,1994,2042,2050,1987
2056,2026,2038,2026,1975,2029,2034,1989
2049,2029,2043,2027,1999,2028,2043,1983
2054,2045,2049,2031,2008,2032,2040,1987
2056,2035,2044,2020,1974,2017,2042,1995
2051,2044,2052,2020,1979,2020,2056,2003
2067,2060,2080,2040,2006,2034,2064,2012
2068,2080,2100,2049,2014,2032,2072,2015
2070,2078,2088,2053,2020,2033,2060,2024
2066,2072,2083,2054,2025,2042,2058,2031
2068,2077,2084,2053,2039,2048,2078,2033
2061,2068,2078,2054,2068,2047,2063,2041
2066,2067,2074,2043,2090,2046,2072,2045
2066,2066,2072,2036,2101,2051,2079,2046
2067,2067,2068,2037,2100,2042,2078,2047
2071,2069,2063,2034,2097,2048,2074,2054
2068,2066,2059,2026,2104,2052,2077,2054
2069,2059,2047,2018,2097,2051,2072,2046
2059,2055,2047,2038,2090,2048,2061,2042
2056,2056,2062,2049,2076,2054,2068,2048
2069,2066,2065,2049,2052,2053,2074,2043
2064,2072,2068,2052,1972,2043,2070,2040
2067,2070,2067,2044,1926,2037,2059,2046
2064,2059,2056,2043,1965,2040,2058,2029
2061,2056,2056,2046,1991,2038,2051,2028
2054,2052,2060,2048,2016,2043,2063,2022
2055,2051,2062,2052,2039,2048,2065,2013
2047,2050,2064,2044,2030,2040,2041,2012
2049,2049,2062,2049,2025,2042,2044,2008
2044,2048,2056,2048,2021,2040,2059,1995
2043,2047,2053,2046,2019,2046,2057,1984
2043,2042,2053,2047,2031,2055,2064,1982
2043,2044,2052,2049,2039,2062,2063,1985
2035,2035,2048,2043,2039,2063,2057,1980
2038,2028,2040,2046,2034,2080,2063,1983
2038,2028,2049,2048,2041,2093,2076,1989
2046,2042,2059,2054,2032,2093,2074,1988
2043,2039,2068,2059,2027,2093,2068,1996
2052,2050,2072,2060,2022,2070,2058,2002
2046,2044,2071,2056,2014,1996,2021,2005
2045,2044,2061,2059,1997,1962,2024,2017
2044,2046,2058,2065,1999,1985,2037,2020
2043,2043,2053,2068,2014,2008,2057,2024
2048,2045,2040,2059,2011,2022,2054,2035
2049,2046,2031,2059,2014,2022,2038,2036
2046,2044,2032,2055,2005,2021,2037,2034
2049,2041,2027,2054,1994,2023,2036,2040
2057,2036,2020,2044,1984,2038,2050,2036
2050,2035,2008,2028,1977,2043,2048,2042
2045,2038,2021,2031,1961,2050,2041,2037
2045,2034,2029,2029,1964,2064,2050,2039
2047,2046,2043,2039,1998,2088,2059,2044
2058,2061,2050,2048,2052,2103,2073,2047
2061,2068,2058,2067,2082,2052,2074,2046
2058,2072,2069,2065,2049,1973,2058,2033
2055,2063,2071,2067,2024,1982,2062,2030
2044,2056,2067,2058,2029,2046,2066,2025
2038,2045,2068,2058,2027,2077,2066,2016
2040,2035,2062,2050,2030,2075,2081,2015
2039,2040,2076,2058,2045,2068,2073,2003
2041,2057,2088,2061,2065,2058,2078,2009
2042,2054,2081,2060,2080,2059,2041,2003
2049,2046,2067,2063,2086,2049,2048,1996
2045,2046,2056,2057,2053,2034,2040,1994
2040,2046,2055,2051,2025,2020,2036,1988
2041,2044,2053,2056,2054,2024,2029,1985
2033,2032,2041,2047,2082,2015,2020,1981
2029,2022,2036,2037,2100,1995,2024,1973
2034,2037,2053,2035,2107,1996,2028,1979
2036,2032,2054,2028,2092,2003,2024,1980
2028,2033,2053,2026,2054,2009,2027,1988
2039,2030,2050,2040,2049,2015,2022,2001
2045,2036,2049,2035,2014,2000,2007,2012
2041,2034,2044,2032,1983,1991,2021,2013
2033,2033,2041,2028,1954,1985,2032,2013
2033,2028,2039,2020,1954,1990,2004,2015
2032,2032,2042,2038,1985,2013,2029,2015
2031,2036,2054,2047,2014,2043,2043,2024
2038,2045,2054,2046,2016,2065,2051,2033
2043,2043,2053,2046,2040,2083,2067,2043
2047,2047,2055,2047,2032,2082,2066,2048
2053,2045,2048,2046,2016,2073,2071,2052
2050,2037,2050,2043,2016,2059,2049,2042
2035,2027,2042,2040,2024,2058,2062,2040
2041,2039,2049,2054,2050,2067,2063,2044
2044,2045,2050,2060,2090,2065,2063,2043
2044,2043,2053,2058,2121,2076,2077,2040
2047,2049,2049,2065,2140,2081,2068,2045
2059,2056,2041,2066,2129,2087,2085,2047
2058,2052,2037,2059,2096,2088,2077,2035
2053,2052,2034,2058,2071,2071,2074,2036
2055,2048,2034,2050,2065,2058,2070,2023
2050,2043,2031,2040,2055,2020,2052,2011
2045,2044,2039,2032,2008,1990,2021,2007
2055,2045,2043,2040,2040,2002,2030,2003
2058,2051,2058,2053,2069,2026,2063,1998
2053,2054,2056,2063,2087,2033,2070,1999
2055,2054,2042,2066,2082,2047,2077,1996
2049,2036,2024,2057,2079,2036,2063,1996
2043,2034,2026,2059,2105,2051,2060,1996
2054,2050,2041,2060,2140,2076,2069,1999
2053,2049,2052,2064,2138,2093,2062,2002
2058,2049,2056,2076,2150,2123,2070,2016
2057,2055,2055,2073,2146,2134,2074,2024
2059,2046,2040,2055,2091,2098,2067,2022
2050,2043,2029,2027,1936,2075,2044,2025
2044,2032,2031,2029,1978,2088,2034,2022
2045,2028,2026,2044,2090,2081,2057,2022
2047,2027,2037,2040,2078,2043,2047,2027
2040,2027,2046,2033,2003,1997,2040,2019
2042,2035,2049,2024,1943,1973,2028,2020
2041,2020,2049,2017,1923,1971,2027,2018
2042,2018,2046,2030,1976,1999,2021,2022
2038,2024,2059,2043,2040,2029,2020,2032
2038,2029,2056,2046,2038,2030,2024,2030
2041,2025,2052,2047,2017,2020,2017,2034
2052,2035,2054,2054,2010,2014,2026,2031
2046,2039,2040,2050,2005,1998,2023,2025
2044,2030,2036,2052,2009,2009,2054,2028
2044,2033,2039,2069,2031,2027,2041,2026
2052,2035,2046,2077,2043,2038,2041,2024
2051,2032,2047,2091,2051,2039,2060,2012
2056,2027,2049,2091,2050,2037,2064,2024
2054,2022,2050,2092,2055,2040,2054,2019
2059,2025,2051,2086,2089,2037,2052,2013
2049,2026,2050,2087,2105,2033,2048,1993
2041,2025,2052,2082,2110,2036,2047,1986
2034,2028,2063,2081,2104,2036,2046,1977
2033,2037,2072,2076,2113,2039,2055,1983
2043,2036,2070,2064,2103,2036,2046,1981
2060,2040,2067,2050,2083,2029,2047,1974
2049,2031,2062,2051,2066,2057,2052,1977
2047,2043,2079,2062,2038,2082,2045,1988
2050,2041,2069,2040,1986,2086,2048,1990
2046,2041,2062,2022,1892,2073,2026,2000
2048,2060,2073,2020,1927,2088,2024,2014
2051,2060,2072,2025,2004,2111,2044,2015
2051,2056,2056,2019,2067,2130,2025,2016
2053,2045,2037,2008,2096,2139,2044,2019
2042,2038,2036,1999,2064,2121,2043,2009
2042,2024,2037,1996,2001,2089,2044,2023
2037,2026,2040,2010,2004,2051,2042,2030
2040,2035,2062,2038,2024,2032,2054,2043
2050,2045,2063,2054,2042,2000,2053,2047
2054,2049,2063,2058,2057,1989,2054,2037
2051,2047,2064,2053,2046,1988,2042,2031
2046,2040,2061,2043,2026,1994,2039,2029
2034,2022,2050,2028,2005,1998,2038,2031
2034,2025,2044,2021,1999,2018,2048,2037
2043,2041,2046,2024,2003,2034,2054,2034
2052,2046,2049,2024,2010,2030,2062,2042
2052,2048,2053,2018,2020,2029,2059,2036
2048,2051,2061,2019,2028,2034,2057,2026
2046,2054,2067,2029,2039,2045,2055,2032
2054,2061,2068,2029,2053,2049,2051,2032
2065,2056,2064,2031,2044,2049,2061,2027
2059,2047,2060,2034,2049,2049,2061,2026
2059,2046,2052,2032,2053,2054,2053,2015
2053,2046,2046,2038,2046,2053,2056,2008
2050,2041,2046,2048,2040,2036,2048,1998
2049,2036,2053,2056,2034,2029,2042,2001
2048,2038,2054,2062,2032,2033,2022,1991
2053,2037,2049,2062,2028,2034,2039,1986
2036,2031,2031,2050,2024,2032,2035,1984
2037,2024,2037,2046,2024,2036,2046,1996
2049,2042,2037,2050,2020,2041,2055,2004
2049,2041,2039,2052,2030,2034,2046,2005
2053,2034,2028,2051,2019,2029,2043,2009
2043,2030,2032,2059,2021,2029,2046,2018
2040,2028,2030,2056,2026,2030,2061,2032
2040,2027,2022,2045,2027,2039,2050,2032
2056,2036,2042,2041,2025,2039,2055,2033
2058,2043,2062,2034,2021,2025,2045,2032
2053,2037,2058,2023,2013,2018,2042,2034
2047,2037,2047,2009,2010,2014,2038,2038
2050,2035,2032,2010,2018,2013,2021,2041
2046,2027,2027,2012,2037,2014,2026,2043
2050,2026,2031,2033,2037,2007,2020,2041
2042,2027,2034,2040,2022,2006,2003,2034
2027,2012,2020,2027,2005,2016,2004,2036
2026,2012,2008,2019,2003,2038,2001,2032
2034,2025,2018,2019,2014,2043,2018,2034
2039,2027,2025,2024,2014,2039,2045,2037
2046,2034,2030,2020,2021,2038,2040,2044
2044,2039,2026,2021,2026,2055,2041,2046
2047,2044,2030,2023,2031,2050,2028,2045
2041,2037,2022,2025,2029,2045,2045,2036
2046,2037,2019,2028,2039,2038,2059,2037
2038,2038,2022,2028,2042,2043,2053,2036
2044,2027,2020,2032,2042,2030,2050,2025
2036,2036,2024,2039,2054,2032,2055,2017
2041,2044,2047,2054,2066,2035,2054,2011
2049,2062,2070,2066,2092,2029,2052,2013
2059,2058,2067,2069,2086,2026,2042,2006
2048,2056,2067,2064,2068,2018,2025,1993
2043,2044,2067,2054,2054,2018,2022,1997
2046,2048,2079,2057,2053,2035,2034,2002
2052,2061,2088,2060,2053,2061,2024,1998
2057,2061,2092,2062,2062,2090,2004,1995
2058,2063,2081,2067,2062,2088,2009,2007
2052,2056,2070,2064,2055,2065,2028,2013
2051,2051,2061,2059,2056,2044,2042,2019
2044,2041,2053,2056,2052,2049,2035,2024
2041,2044,2047,2055,2055,2052,2055,2036
2047,2047,2049,2052,2053,2055,2043,2036
2044,2045,2048,2054,2057,2056,2025,2041
2041,2051,2041,2054,2062,2057,2047,2037
2042,2047,2032,2053,2061,2056,2032,2044
2045,2041,2023,2046,2058,2059,2039,2045
2046,2040,2022,2054,2064,2059,2046,2041
2043,2036,2021,2049,2051,2043,2050,2035
2032,2025,2015,2041,2056,2035,2023,2042
2031,2025,2019,2052,2060,2046,2045,2040
2039,2026,2018,2051,2059,2046,2053,2041
2036,2026,2025,2044,2053,2063,2042,2043
2041,2032,2036,2044,2035,2072,2052,2039
2039,2032,2039,2044,2022,2075,2049,2030
2041,2033,2043,2047,2022,2073,2030,2033
2043,2032,2043,2044,2013,2058,2047,2035
2040,2034,2047,2047,2031,2036,2040,2035
2050,2038,2054,2059,2063,2039,2044,2030
2052,2043,2060,2062,2077,2048,2035,2028
2042,2038,2051,2058,2060,2059,2044,2030
2038,2040,2057,2051,2055,2056,2032,2016
2042,2042,2067,2064,2044,2045,2045,2004
2040,2045,2063,2063,2036,2046,2047,2003
2032,2033,2045,2049,2025,2040,2038,1996
2021,2017,2024,2043,2026,2037,2039,1998
2022,2015,2025,2038,2026,2035,2023,1998
2029,2022,2030,2043,2032,2028,2028,1999
2029,2026,2036,2045,2036,2034,2011,2004
2030,2026,2040,2046,2054,2030,2015,2017
2031,2029,2036,2051,2067,2028,2040,2019
2033,2026,2039,2048,2061,2036,2046,2022
2041,2025,2042,2053,2054,2047,2044,2029
2033,2025,2048,2058,2050,2048,2024,2035
2043,2028,2064,2062,2047,2042,2039,2035
2039,2036,2067,2063,2037,2049,2045,2043
2038,2038,2057,2064,2033,2049,2056,2045
2040,2041,2056,2069,2029,2049,2070,2054
2046,2050,2057,2071,2043,2060,2076,2056
2051,2058,2056,2074,2056,2064,2064,2053
2046,2046,2043,2076,2068,2064,2056,2050
2029,2042,2036,2079,2074,2072,2060,2052
2038,2046,2041,2080,2076,2083,2045,2063
2049,2052,2049,2072,2062,2082,2049,2057
2058,2060,2054,2070,2061,2084,2064,2062
2057,2053,2058,2053,2044,2080,2073,2060
2052,2057,2062,2039,2044,2076,2075,2054
2060,2061,2081,2041,2031,2080,2066,2050
2060,2064,2092,2044,2063,2068,2074,2051
2052,2057,2091,2045,2072,2048,2066,2042
2049,2055,2081,2053,2079,2034,2064,2038
2053,2058,2074,2060,2091,2039,2065,2032
2053,2052,2065,2065,2077,2039,2064,2025
2050,2052,2062,2067,2059,2028,2054,2017
2050,2051,2058,2065,2095,2027,2054,2009
2040,2040,2055,2066,2114,2032,2063,2004
2042,2030,2046,2050,2075,2025,2061,1992
2032,2018,2042,2033,2033,2013,2053,1994
2036,2035,2061,2040,2030,2010,2055,2004
2045,2048,2082,2051,2066,2029,2067,2010
2048,2050,2082,2064,2119,2045,2078,2020
2050,2053,2072,2068,2145,2060,2069,2025
2046,2046,2066,2073,2178,2082,2068,2034
2048,2046,2060,2072,2188,2091,2067,2034
2049,2043,2054,2064,2104,2084,2072,2039
2044,2048,2054,2040,2013,2078,2061,2044
2048,2046,2056,2046,2028,2043,2049,2045
2051,2048,2057,2050,2053,1992,2058,2049
2051,2040,2067,2059,2055,1995,2061,2041
2044,2037,2065,2054,2029,2015,2056,2034
2046,2033,2067,2059,2029,2028,2055,2042
2043,2031,2069,2074,2045,2032,2056,2055
2050,2028,2064,2075,2036,2026,2050,2050
2042,2021,2056,2055,2009,2022,2037,2045
2041,2033,2053,2049,1976,2034,2058,2050
2052,2040,2061,2056,1981,2049,2060,2060
2050,2036,2054,2057,1991,2048,2049,2047
2054,2038,2060,2054,1995,2046,2070,2049
2048,2041,2053,2061,2006,2048,2068,2043
2035,2042,2047,2063,2019,2056,2073,2032
2028,2043,2041,2059,2028,2060,2071,2034
2036,2047,2041,2050,2044,2063,2060,2040
2036,2047,2037,2033,2039,2049,2063,2032
2034,2040,2028,2020,2044,2046,2070,2019
2036,2040,2024,2012,2045,2049,2055,2016
2036,2035,2022,2005,2045,2047,2048,2010
2038,2046,2027,2003,2045,2049,2056,2010
2043,2051,2036,2007,2045,2045,2051,2018
2045,2052,2044,2004,2034,2028,2042,2001
2034,2043,2038,2007,2021,2019,2042,2006
2041,2050,2051,2026,2037,2019,2044,2020
2042,2052,2056,2037,2040,2019,2059,2014
2043,2059,2052,2032,2036,2025,2060,2025
2045,2052,2051,2033,2035,2038,2055,2035
2044,2050,2042,2031,2052,2037,2042,2035
2045,2049,2038,2031,2085,2034,2051,2040
2049,2050,2038,2029,2117,2029,2054,2046
2055,2050,2043,2041,2111,2033,2048,2052
2054,2058,2047,2056,2117,2043,2061,2064
2055,2050,2043,2058,2136,2057,2062,2061
2047,2048,2042,2054,2124,2052,2074,2059
2044,2043,2045,2043,2076,2047,2067,2059
2034,2040,2050,2040,2025,2036,2058,2054
2028,2038,2039,2021,1988,2032,2056,2049
2025,2035,2044,2023,1922,2039,2066,2046
2025,2029,2040,2039,1944,2057,2074,2057
2036,2031,2052,2060,2013,2078,2077,2063
2043,2042,2063,2067,2055,2086,2069,2067
2041,2055,2078,2069,2064,2094,2058,2062
2045,2060,2072,2068,2067,2100,2074,2054
2042,2060,2065,2056,2064,2101,2081,2055
2041,2053,2049,2042,2059,2094,2077,2051
2041,2045,2044,2030,2052,2067,2065,2049
2044,2047,2047,2028,2042,2033,2037,2038
2042,2050,2046,2021,2028,2013,2027,2031
2041,2051,2050,2029,2028,2020,2043,2035
2037,2053,2048,2030,2037,2028,2061,2023
2037,2041,2032,2024,2045,2048,2064,2018
2033,2041,2033,2037,2077,2062,2086,2021
2041,2050,2047,2056,2094,2071,2072,2019
2049,2055,2050,2051,2092,2064,2058,1999
2032,2051,2053,2051,2083,2059,2066,1999
2040,2054,2056,2058,2068,2057,2067,2006
2037,2047,2055,2056,2053,2047,2051,2008
2040,2045,2066,2062,2056,2041,2036,2020
2041,2050,2069,2071,2069,2051,2024,2025
2046,2065,2087,2082,2075,2058,2034,2039
2055,2076,2092,2085,2069,2057,2047,2040
2054,2070,2081,2081,2036,2035,2027,2045
2053,2054,2077,2081,2033,2033,2034,2037
2047,2051,2074,2082,2050,2026,2039,2041
2036,2053,2073,2078,2059,2013,2027,2044
2041,2051,2061,2074,2056,2022,2047,2050
2036,2045,2057,2067,2055,2031,2041,2051
2030,2040,2053,2054,2038,2036,2042,2048
2035,2041,2038,2042,2030,2045,2041,2049
2038,2040,2028,2033,2030,2054,2043,2054
2035,2036,2016,2023,2033,2060,2051,2053
2038,2048,2016,2020,2033,2056,2056,2057
2050,2048,2011,2013,2016,2035,2057,2055
2048,2047,2020,2009,2042,2035,2055,2061
2051,2042,2011,2008,2047,2040,2046,2051
2044,2040,2008,2000,2051,2042,2045,2040
2039,2036,2015,2000,2041,2033,2039,2043
2041,2033,2018,2002,2046,2037,2042,2035
2041,2040,2021,2012,2062,2035,2052,2031
2038,2037,2022,2013,2060,2030,2059,2033
2042,2040,2033,2020,2046,2022,2028,2021
2036,2043,2037,2026,2044,2020,2053,2015
2034,2038,2028,2026,2047,2015,2059,2011
2030,2034,2039,2031,2046,2017,2052,2014
2031,2042,2045,2033,2047,2021,2046,2005
2037,2041,2052,2041,2054,2012,2046,2005
2028,2032,2049,2037,2043,2018,2042,1995
2027,2032,2056,2036,2043,2027,2031,2008
2046,2050,2065,2048,2059,2040,2039,2015
2050,2054,2063,2044,2054,2048,2058,2024
2047,2059,2063,2048,2051,2047,2034,2022
2057,2060,2060,2044,2042,2047,2029,2029
2051,2058,2063,2044,2029,2048,2035,2028
2043,2058,2056,2042,2002,2057,2021,2031
2047,2054,2057,2044,1992,2081,2024,2038
2045,2053,2064,2050,1991,2094,2059,2043
2046,2045,2058,2039,1991,2098,2045,2046
2044,2045,2059,2045,1984,2091,2033,2048
2046,2049,2059,2049,1979,2052,2041,2054
2053,2055,2062,2052,1986,2011,2042,2066
2056,2055,2062,2057,2000,2012,2063,2063
2053,2055,2062,2052,1995,2028,2047,2062
2044,2048,2043,2039,1994,2029,2037,2059
2039,2038,2032,2041,2018,2035,2041,2060
2043,2044,2043,2051,2063,2040,2047,2060
2041,2049,2044,2054,2098,2050,2063,2058
2039,2046,2036,2056,2124,2052,2052,2054
2046,2053,2029,2050,2113,2047,2036,2051
2037,2053,2042,2038,2074,2041,2027,2044
2031,2053,2050,2028,2059,2041,2029,2040
2044,2054,2057,2024,2077,2055,2049,2047
2052,2059,2062,2040,2097,2073,2065,2047
2055,2068,2072,2047,2109,2078,2068,2042
2057,2066,2069,2045,2100,2066,2061,2034
2052,2063,2058,2044,2096,2063,2054,2026
2058,2056,2050,2046,2081,2060,2061,2018
2051,2048,2043,2043,2070,2050,2058,2013
2045,2050,2041,2039,2057,2043,2020,2008
2044,2051,2036,2040,2052,2038,2019,2000
2036,2039,2024,2033,2054,2028,2031,1999
2035,2043,2019,2031,2055,2029,2020,2002
2041,2049,2027,2034,2059,2029,2025,2013
2043,2051,2030,2042,2064,2031,2027,2013
2037,2048,2030,2036,2062,2038,2043,2019
2043,2052,2033,2043,2060,2045,2045,2032
2046,2055,2046,2043,2057,2046,2014,2034
2051,2058,2055,2049,2053,2045,2025,2041
2049,2058,2054,2051,2062,2051,2039,2050
2051,2058,2056,2048,2055,2049,2051,2049
2054,2063,2058,2054,2057,2050,2042,2049
2051,2059,2061,2057,2050,2042,2050,2052
2043,2059,2061,2054,2045,2040,2054,2055
2047,2054,2059,2049,2036,2036,2062,2050
2045,2057,2062,2048,2030,2041,2059,2056
2042,2057,2054,2043,2018,2033,2045,2051
2043,2047,2053,2033,2013,2022,2051,2054
2038,2042,2047,2030,2004,2021,2024,2055
2038,2044,2059,2045,2027,2042,2026,2056
2048,2062,2067,2053,2068,2046,2043,2058
2046,2061,2067,2058,2072,2051,2050,2055
2054,2059,2061,2064,2074,2052,2065,2059
2053,2056,2052,2058,2070,2066,2063,2058
2048,2056,2055,2053,2076,2069,2059,2049
2046,2053,2045,2060,2098,2065,2060,2051
2043,2056,2051,2063,2107,2064,2048,2049
2041,2052,2057,2061,2100,2051,2055,2041
2045,2052,2053,2043,2050,2027,2031,2032
2041,2056,2058,2042,2022,2023,2047,2023
2051,2058,2076,2054,2047,2038,2046,2022
2052,2064,2083,2058,2060,2067,2068,2017
2048,2058,2079,2056,2084,2084,2058,2018
2044,2056,2074,2055,2112,2109,2056,2012
2039,2044,2056,2055,2113,2114,2040,2013
2034,2036,2052,2053,2100,2114,2058,2008
2038,2050,2058,2064,2112,2088,2055,2019
2048,2051,2069,2084,2155,2038,2070,2036
2052,2061,2073,2096,2231,2028,2062,2045
2056,2060,2069,2098,2258,2052,2072,2047
2053,2058,2063,2089,2252,2090,2071,2041
2053,2053,2054,2062,2204,2093,2065,2040
2043,2053,2043,2030,2129,2072,2038,2048
2039,2044,2044,2019,2061,2057,2041,2046
2037,2041,2045,2022,2020,2055,2021,2046
2035,2047,2047,2050,2045,2055,2031,2050
2039,2042,2050,2049,2014,2046,2040,2046
2042,2046,2051,2048,1966,2045,2053,2046
2046,2048,2049,2037,1868,2021,2048,2056
2044,2043,2042,2030,1879,2008,2049,2059
2043,2044,2028,2030,1937,2000,2032,2059
2038,2030,2023,2029,1964,1984,2020,2053
2034,2032,2021,2030,1980,1983,2030,2062
2041,2048,2028,2031,2003,1992,2058,2062
2047,2052,2030,2032,2016,1990,2049,2060
2046,2051,2035,2039,2019,1997,2058,2051
2043,2051,2043,2050,2028,2014,2053,2053
2047,2042,2044,2055,2026,2030,2043,2046
2038,2037,2034,2058,2033,2043,2061,2040
2033,2032,2033,2062,2035,2049,2053,2032
2034,2032,2042,2073,2037,2044,2045,2025
2026,2035,2040,2076,2041,2049,2047,2020
2032,2036,2040,2081,2040,2047,2066,2027
2036,2036,2040,2078,2042,2048,2067,2024
2034,2031,2027,2082,2037,2037,2068,2019
2029,2039,2032,2078,2041,2032,2057,2014
2030,2041,2041,2080,2043,2029,2050,2005
2028,2040,2039,2077,2030,2028,2055,2000
2021,2023,2031,2075,2025,2029,2036,1999
2018,2022,2031,2070,2028,2035,2039,2003
2027,2034,2039,2063,2034,2041,2052,2017
2032,2038,2041,2061,2034,2048,2047,2018
2030,2039,2043,2056,2034,2052,2039,2023
2032,2037,2041,2045,2031,2053,2055,2034
2037,2042,2036,2017,2021,2045,2052,2047
2043,2046,2034,2014,2021,2045,2073,2052
2045,2052,2044,2024,2033,2045,2063,2063
2053,2045,2045,2032,2032,2048,2064,2062
2050,2044,2043,2028,2037,2054,2066,2063
2043,2044,2036,2025,2033,2045,2057,2052
2038,2040,2024,2018,2032,2045,2059,2056
2037,2040,2024,2018,2031,2047,2054,2062
2038,2042,2039,2021,2027,2038,2061,2065
2041,2049,2047,2019,2028,2032,2037,2067
2049,2045,2051,2022,2020,2024,2051,2061
2044,2055,2058,2034,2028,2032,2044,2067
2044,2072,2067,2051,2037,2046,2064,2078
2051,2075,2055,2047,2046,2063,2062,2076
2059,2069,2047,2056,2054,2070,2066,2072
2053,2067,2040,2056,2058,2066,2059,2072
2059,2064,2051,2055,2059,2057,2057,2064
2056,2069,2059,2055,2057,2055,2042,2054
2048,2068,2062,2058,2060,2058,2059,2046
2055,2060,2055,2052,2052,2060,2056,2043
2045,2060,2056,2053,2056,2060,2061,2041
2049,2060,2054,2057,2060,2061,2059,2033
2055,2063,2053,2055,2060,2060,2060,2030
2050,2057,2048,2053,2060,2056,2060,2020
2047,2055,2046,2051,2062,2058,2061,2014
2044,2069,2046,2056,2065,2055,2057,2003
2047,2065,2042,2054,2049,2035,2047,1998
2035,2044,2033,2047,2040,2020,2035,1997
2032,2030,2024,2042,2031,2027,2039,2001
2037,2045,2034,2047,2038,2027,2043,2015
2040,2044,2036,2058,2038,2019,2045,2024
2048,2044,2035,2053,2041,2023,2056,2023
2045,2051,2038,2055,2039,2029,2060,2031
2048,2042,2042,2049,2043,2024,2062,2029
2044,2040,2040,2056,2044,2020,2053,2040
2046,2031,2045,2054,2043,2019,2036,2054
2053,2042,2042,2062,2046,2017,2052,2055
2049,2043,2045,2062,2049,2023,2045,2058
2049,2045,2050,2075,2049,2021,2054,2055
2050,2053,2054,2076,2055,2031,2060,2052
2053,2049,2062,2089,2057,2041,2057,2056
2060,2052,2067,2103,2057,2068,2058,2063
2067,2058,2078,2109,2057,2087,2052,2056
2064,2060,2073,2100,2039,2103,2030,2052
2042,2037,2056,2087,2027,2098,2036,2049
2033,2032,2046,2091,2040,2083,2036,2059
2037,2049,2044,2094,2045,2066,2043,2061
2040,2050,2042,2089,2041,2005,2047,2056
2047,2052,2040,2083,2030,1976,2039,2056
2047,2053,2042,2077,2021,1988,2042,2043
2042,2061,2048,2070,2030,2018,2069,2053
2051,2067,2057,2072,2040,2042,2057,2050
2058,2065,2063,2064,2047,2042,2074,2054
2063,2066,2063,2057,2052,2043,2077,2050
2060,2065,2055,2042,2060,2048,2058,2043
2052,2056,2034,2020,2055,2061,2067,2028
2041,2047,2026,2016,2044,2083,2063,2019
2044,2052,2040,2015,2041,2084,2057,2017
2047,2057,2049,2025,2022,2066,2063,2016
2052,2054,2050,2035,2026,2046,2041,2014
2049,2051,2042,2032,2007,2023,2036,2005
2048,2043,2039,2034,2003,2019,2022,2010
2042,2041,2038,2042,2004,2032,2031,2013
2058,2057,2041,2048,2029,2045,2054,2021
2055,2052,2036,2052,2053,2058,2045,2014
2050,2050,2031,2058,2037,2051,2039,2015
2047,2056,2034,2049,2007,2031,2035,2016
2044,2056,2035,2032,1972,2012,2021,2025
2048,2056,2039,2033,1945,2001,2022,2034
2048,2059,2047,2033,1941,1987,2020,2040
2046,2056,2045,2029,1969,1994,2034,2049
2051,2056,2039,2032,2003,2021,2042,2059
2054,2062,2048,2034,2034,2048,2049,2062
2051,2064,2042,2044,2061,2066,2056,2067
2054,2063,2036,2047,2086,2079,2058,2075
2053,2057,2029,2035,2083,2086,2069,2078
2056,2060,2034,2040,2086,2086,2065,2081
2049,2059,2034,2044,2082,2067,2065,2070
2040,2049,2030,2039,2073,2057,2052,2069
2047,2055,2031,2041,2082,2053,2054,2073
2051,2055,2027,2035,2064,2044,2055,2062
2039,2046,2018,2023,2046,2051,2057,2057
2042,2049,2024,2035,2066,2063,2064,2058
2048,2058,2031,2051,2093,2069,2064,2056
2056,2057,2030,2055,2105,2072,2066,2067
2054,2057,2030,2058,2100,2067,2061,2050
2056,2056,2026,2050,2089,2064,2058,2039
2051,2044,2018,2046,2084,2061,2063,2041
2056,2045,2018,2048,2078,2059,2079,2030
2048,2049,2018,2048,2078,2052,2064,2027
2050,2047,2016,2041,2070,2050,2056,2023
2051,2045,2014,2036,2071,2040,2046,2016
2047,2043,2014,2036,2065,2033,2052,2016
2048,2038,2015,2034,2061,2023,2037,2012
2038,2033,2010,2036,2052,2017,2036,2011
2034,2035,2028,2038,2047,2030,2035,2009
2046,2050,2042,2043,2053,2036,2046,2019
2052,2053,2040,2044,2045,2036,2029,2027
2054,2048,2040,2046,2040,2044,2024,2035
2054,2046,2046,2049,2046,2048,2041,2036
2058,2049,2051,2042,2044,2055,2040,2038
2061,2054,2057,2050,2046,2053,2053,2048
2056,2052,2061,2055,2047,2061,2047,2046
2050,2051,2055,2060,2051,2067,2044,2057
2057,2047,2058,2060,2048,2076,2032,2059
2058,2049,2047,2064,2058,2074,2064,2064
2054,2041,2047,2059,2062,2070,2044,2065
2043,2045,2046,2063,2066,2069,2036,2070
2049,2049,2051,2066,2063,2071,2035,2069
2056,2056,2060,2067,2060,2064,2032,2066
2050,2047,2062,2061,2061,2058,2026,2059
2041,2029,2043,2054,2051,2049,2035,2060
2039,2027,2039,2059,2051,2058,2050,2059
2047,2049,2051,2064,2060,2070,2056,2065
2044,2052,2056,2065,2054,2066,2074,2060
2052,2060,2055,2053,2061,2069,2067,2064
2050,2056,2047,2048,2054,2060,2061,2058
2050,2051,2042,2040,2043,2039,2053,2052
2037,2047,2032,2028,2044,2007,2033,2045
2046,2053,2031,2025,2043,1997,2047,2046
2053,2046,2021,2019,2051,2024,2044,2050
2050,2052,2021,2029,2049,2039,2048,2050
2056,2053,2019,2032,2048,2041,2062,2045
2059,2056,2029,2034,2050,2056,2072,2035
2052,2056,2036,2034,2045,2069,2058,2031
2056,2061,2042,2035,2046,2087,2060,2028
2052,2072,2059,2045,2042,2109,2062,2028
2060,2072,2061,2050,2080,2137,2042,2025
2051,2063,2059,2050,2101,2164,2058,2021
2057,2070,2056,2055,2100,2149,2061,2036
2060,2074,2058,2055,2088,2065,2039,2031
2060,2072,2058,2052,2064,1969,2013,2023
2056,2068,2059,2053,2036,1951,2015,2032
2051,2064,2062,2053,2036,1980,2012,2039
2054,2065,2058,2054,2039,2008,2019,2049
2053,2069,2053,2050,2026,2004,2018,2050
2049,2061,2050,2038,2010,1996,2027,2052
2052,2056,2053,2039,2021,2008,2024,2054
2048,2053,2057,2047,2028,2022,2029,2058
2046,2047,2058,2051,2032,2033,2026,2058
2044,2052,2059,2050,2032,2038,2024,2063
2045,2055,2063,2055,2032,2049,2039,2061
2055,2061,2064,2059,2043,2050,2032,2069
2050,2061,2058,2056,2045,2049,2025,2068
2044,2043,2051,2049,2041,2041,2014,2062
2045,2040,2039,2050,2054,2044,2012,2069
2052,2056,2045,2057,2061,2058,2056,2071
2056,2059,2044,2057,2059,2057,2042,2065
2051,2062,2044,2055,2059,2046,2044,2063
2052,2060,2031,2047,2055,2043,2044,2063
2055,2050,2018,2042,2053,2047,2040,2054
2049,2042,2014,2049,2048,2049,2049,2046
2043,2047,2006,2051,2045,2050,2046,2046
2040,2041,2005,2060,2046,2040,2051,2040
2035,2039,2004,2059,2033,2030,2050,2033
2035,2039,2011,2060,2032,2024,2057,2036
2046,2046,2016,2072,2037,2037,2048,2036
2043,2049,2020,2083,2056,2047,2041,2029
2042,2049,2019,2092,2063,2049,2048,2016
2045,2040,2018,2089,2061,2043,2045,2014
2038,2039,2023,2083,2069,2043,2048,2015
2024,2033,2036,2073,2062,2036,2024,2012
2028,2036,2061,2088,2061,2040,2041,2016
2036,2055,2074,2096,2062,2044,2055,2021
2036,2049,2066,2091,2054,2046,2054,2025
2034,2043,2072,2081,2049,2041,2059,2033
2035,2041,2082,2072,2040,2041,2044,2029
2041,2054,2093,2074,2041,2045,2050,2034
2047,2064,2096,2071,2043,2044,2058,2041
2053,2064,2092,2069,2051,2049,2040,2056
2047,2067,2083,2064,2044,2046,2049,2058
2052,2058,2069,2048,2040,2044,2042,2063
2048,2052,2044,2026,2033,2044,2036,2063
2034,2046,2042,2012,2020,2037,2034,2063
2041,2053,2037,2008,2021,2048,2041,2064
2043,2059,2047,2020,2035,2046,2045,2068
2046,2063,2053,2020,2044,2047,2040,2072
2044,2053,2036,2005,2036,2037,2048,2064
2044,2037,2019,2005,2026,2026,2041,2059
2038,2036,2024,2012,2031,2037,2044,2067
2045,2049,2033,2020,2033,2033,2057,2075
2049,2050,2025,2020,2044,2033,2051,2070
2052,2050,2016,2023,2027,2034,2054,2062
2044,2049,2014,2029,2021,2036,2040,2065
2046,2053,2026,2036,2022,2043,2012,2056
2052,2052,2040,2042,2040,2050,2041,2051
2058,2063,2048,2047,2051,2053,2040,2050
2052,2066,2055,2049,2062,2055,2026,2044
2052,2059,2042,2050,2064,2054,2044,2040
2049,2055,2034,2046,2070,2060,2055,2029
2045,2049,2029,2056,2077,2056,2056,2030
2043,2046,2031,2052,2088,2049,2036,2026
2040,2044,2037,2065,2125,2052,2038,2028
2048,2053,2058,2072,2146,2064,2043,2022
2050,2053,2072,2066,2146,2052,2035,2016
2041,2059,2077,2064,2133,2049,2031,2015
2045,2062,2073,2061,2120,2060,2053,2027
2048,2065,2069,2053,2066,2057,2054,2026
2048,2060,2063,2044,2054,2051,2041,2030
2046,2058,2063,2047,2057,2058,2015,2032
2049,2052,2051,2043,2034,2079,2020,2037
2047,2056,2046,2046,1996,2087,2029,2056
2052,2052,2046,2036,1909,2071,2037,2052
2052,2051,2049,2037,1910,2066,2025,2060
2052,2049,2046,2045,1967,2034,2015,2060
2047,2050,2042,2060,2023,2014,2032,2070
2045,2050,2043,2060,2060,2019,2043,2065
2047,2046,2045,2054,2054,2027,2062,2070
2047,2045,2044,2062,2056,2037,2044,2074
2046,2047,2052,2078,2070,2052,2038,2075
2050,2054,2070,2091,2063,2041,2039,2067
2048,2047,2069,2085,2040,2024,2054,2066
2045,2044,2066,2081,2027,2041,2044,2070
2043,2052,2068,2084,2030,2066,2060,2066
2042,2051,2059,2081,2036,2080,2057,2059
2038,2047,2054,2081,2033,2076,2040,2054
2036,2048,2057,2081,2032,2089,2044,2052
2041,2045,2056,2079,2005,2105,2038,2051
2040,2049,2053,2068,1986,2096,2038,2048
2040,2048,2050,2060,1972,2078,2028,2049
2035,2047,2049,2060,1965,2061,2039,2051
2041,2051,2039,2053,1972,2034,2032,2044
2044,2049,2034,2058,2012,2011,2038,2048
2042,2047,2046,2073,2063,1995,2061,2041
2039,2048,2035,2076,2104,1993,2053,2038
2037,2045,2021,2065,2144,1988,2053,2033
2039,2043,2015,2063,2184,1999,2035,2029
2035,2039,2018,2060,2176,1998,2016,2014
2025,2024,2007,2047,2136,2004,2007,2000
2018,2020,2004,2036,2109,2016,2000,2009
2024,2022,1999,2020,2095,2019,1979,2010
2021,2022,1995,2008,2089,2039,2011,2025
2032,2031,2003,2016,2095,2064,2025,2031
2041,2032,2013,2023,2103,2074,2043,2035
2045,2044,2018,2032,2119,2075,2045,2047
2050,2056,2027,2047,2112,2083,2045,2056
2050,2056,2050,2061,2102,2089,2054,2065
2047,2059,2065,2062,2066,2081,2038,2073
2053,2063,2070,2051,1989,2061,2040,2075
2048,2065,2073,2041,1939,2055,2041,2069
2049,2067,2073,2041,1945,2056,2029,2075
2054,2064,2072,2039,1967,2067,2047,2074
2054,2068,2062,2045,2008,2073,2042,2072
2047,2067,2053,2050,2032,2075,2038,2068
2045,2057,2043,2050,2050,2070,2031,2067
2043,2044,2039,2055,2056,2056,2018,2069
2039,2047,2035,2062,2065,2010,2026,2071
2043,2044,2030,2061,2082,1994,2039,2064
2037,2045,2032,2054,2073,2007,2036,2063
2033,2040,2030,2040,2053,2027,2022,2064
2036,2036,2020,2035,2041,2036,2042,2061
2039,2045,2028,2038,2052,2040,2037,2065
2047,2057,2040,2040,2036,2045,2042,2060
2052,2053,2040,2037,2020,2053,2060,2050
2056,2047,2034,2034,2013,2049,2052,2049
2051,2047,2040,2030,2018,2044,2054,2039
2047,2048,2038,2035,2027,2044,2046,2036
2042,2040,2038,2036,2014,2040,2042,2032
2044,2044,2039,2035,2026,2040,2037,2028
2047,2041,2043,2041,2051,2043,2040,2031
2046,2046,2052,2050,2070,2046,2047,2030
2047,2033,2041,2052,2084,2057,2040,2030
2040,2035,2037,2049,2093,2057,2044,2037
2057,2051,2057,2064,2075,2057,2049,2036
2052,2058,2062,2066,2042,2043,2042,2035
2056,2062,2066,2062,2053,2040,2041,2041
2055,2057,2054,2055,2068,2040,2042,2038
2055,2053,2050,2041,2034,2038,2042,2038
2053,2050,2043,2041,2023,2056,2023,2049
2051,2050,2041,2041,2032,2085,2035,2055
2048,2046,2033,2038,2025,2092,2052,2060
2052,2052,2032,2033,2050,2078,2049,2060
2049,2056,2040,2046,2069,2066,2034,2064
2047,2053,2040,2050,2064,2060,2041,2062
2050,2058,2041,2048,2050,2059,2032,2076
2050,2056,2043,2044,2048,2067,2056,2072
2049,2054,2040,2044,2047,2068,2055,2075
2049,2047,2034,2040,2041,2056,2044,2066
2039,2038,2028,2041,2037,2052,2047,2073
2040,2035,2029,2041,2045,2062,2067,2082
2050,2046,2039,2054,2050,2070,2061,2077
2051,2056,2033,2048,2062,2080,2054,2077
2053,2053,2038,2050,2065,2078,2052,2072
2055,2056,2047,2056,2067,2071,2053,2074
2066,2063,2047,2052,2072,2072,2054,2071
2057,2058,2046,2053,2066,2070,2064,2068
2060,2056,2045,2056,2063,2066,2041,2059
2056,2055,2037,2048,2052,2051,2050,2044
2057,2051,2039,2040,2042,2033,2029,2040
2058,2045,2044,2039,2032,2035,2042,2039
2050,2047,2042,2042,2042,2036,2039,2035
2048,2047,2049,2037,2039,2030,2041,2029
2046,2045,2055,2033,2040,2032,2039,2027
2047,2051,2054,2042,2041,2035,2043,2026
2052,2049,2048,2036,2036,2039,2043,2022
2054,2040,2043,2039,2037,2044,2029,2020
2059,2043,2051,2045,2038,2056,2046,2025
2062,2045,2055,2043,2039,2074,2022,2016
2052,2039,2056,2044,2041,2087,2039,2017
2049,2043,2054,2043,2038,2104,2052,2033
2055,2051,2061,2050,2049,2119,2056,2044
2057,2056,2057,2053,2046,2109,2061,2043
2061,2052,2054,2051,2046,2060,2042,2056
2061,2046,2057,2054,2052,2028,2051,2060
2059,2044,2049,2061,2061,2033,2048,2059
2050,2042,2047,2058,2054,2042,2052,2063
2055,2043,2037,2054,2051,2053,2063,2062
2051,2041,2037,2053,2060,2053,2064,2069
2051,2038,2035,2057,2057,2051,2054,2066
2050,2044,2042,2054,2054,2040,2043,2069
2046,2039,2038,2051,2052,2035,2041,2060
2041,2029,2030,2047,2047,2020,2037,2060
2050,2026,2025,2049,2045,2009,2029,2066
2048,2036,2040,2062,2061,2037,2065,2071
2053,2041,2039,2058,2058,2052,2062,2069
2055,2043,2043,2059,2054,2050,2051,2078
2052,2042,2043,2056,2057,2048,2058,2074
2060,2044,2038,2059,2058,2045,2076,2070
2061,2051,2044,2056,2059,2038,2054,2068
2060,2053,2041,2067,2058,2046,2067,2065
2052,2051,2043,2067,2056,2044,2056,2056
2057,2051,2053,2072,2048,2047,2052,2054
2049,2048,2059,2079,2056,2056,2054,2047
2051,2054,2057,2078,2058,2063,2042,2032
2055,2049,2051,2079,2074,2076,2044,2033
2053,2049,2042,2083,2080,2076,2070,2026
2050,2049,2048,2077,2074,2068,2055,2014
2045,2046,2030,2074,2068,2049,2029,2005
2035,2034,2030,2060,2053,2033,2033,2005
2031,2039,2038,2054,2044,2021,2025,2009
2043,2045,2044,2045,1997,2002,2005,2012
2041,2049,2060,2037,1963,1996,2021,2027
2051,2057,2067,2036,1942,2008,2034,2030
2051,2051,2064,2027,1930,2005,2050,2039
2044,2043,2059,2011,1947,2008,2023,2046
2043,2050,2067,2023,1977,2026,2023,2056
2049,2046,2063,2041,2057,2049,2036,2059
2056,2047,2060,2053,2113,2084,2049,2066
2055,2043,2041,2048,2108,2086,2053,2059
2051,2035,2030,2033,2083,2078,2052,2054
2044,2033,2036,2030,2070,2098,2062,2057
2049,2043,2041,2030,2061,2108,2068,2068
2047,2050,2047,2029,2050,2110,2074,2075
2054,2057,2038,2022,2045,2103,2059,2079
2054,2051,2038,2034,2037,2092,2053,2068
2053,2049,2053,2040,2045,2087,2045,2072
2060,2068,2071,2049,2077,2079,2051,2069
2064,2069,2074,2053,2080,2037,2033,2058
2056,2061,2064,2049,2070,1997,2033,2057
2052,2050,2050,2054,2063,2010,2029,2063
2044,2040,2055,2057,2060,2026,2036,2053
2052,2049,2060,2063,2062,2047,2052,2054
2058,2058,2068,2058,2062,2054,2049,2056
2053,2055,2074,2064,2060,2057,2051,2049
2056,2061,2073,2066,2058,2061,2044,2040
2054,2053,2067,2068,2058,2054,2045,2039
2052,2055,2064,2060,2044,2052,2047,2027
2048,2052,2071,2055,2047,2052,2034,2021
2051,2055,2077,2052,2044,2052,2036,2022
2046,2054,2073,2050,2048,2052,2038,2013
2053,2054,2067,2043,2050,2045,2049,2008
2037,2035,2048,2037,2053,2049,2053,2009
2042,2037,2048,2038,2053,2047,2045,2015
2041,2050,2044,2038,2054,2048,2057,2023
2048,2045,2044,2036,2052,2047,2064,2024
2054,2043,2037,2033,2043,2042,2051,2031
2046,2043,2032,2032,2039,2042,2041,2040
2048,2039,2028,2025,2040,2041,2041,2038
2045,2040,2034,2036,2041,2041,2041,2044
2051,2044,2046,2051,2052,2046,2042,2051
2052,2043,2040,2050,2046,2045,2054,2052
2051,2042,2041,2051,2052,2048,2028,2054
2054,2040,2037,2048,2052,2049,2050,2058
2057,2042,2037,2047,2042,2045,2050,2062
2052,2039,2031,2039,2050,2042,2044,2063
2047,2033,2032,2038,2048,2050,2046,2066
2042,2033,2039,2040,2046,2045,2033,2062
2039,2023,2033,2038,2030,2043,2037,2062
2047,2033,2049,2038,2037,2045,2045,2073
2059,2050,2061,2037,2038,2046,2049,2071
2062,2050,2055,2031,2038,2049,2041,2062
2057,2050,2055,2035,2044,2050,2054,2060
2059,2056,2056,2041,2053,2057,2057,2059
2058,2056,2059,2042,2043,2053,2053,2052
2060,2062,2069,2054,2051,2056,2053,2054
2056,2066,2072,2052,2049,2056,2047,2056
2061,2057,2065,2054,2057,2058,2053,2052
2062,2048,2058,2054,2055,2062,2060,2051
2055,2049,2058,2052,2055,2059,2037,2041
2051,2045,2048,2046,2055,2052,2030,2035
2048,2036,2044,2045,2047,2052,2036,2026
2051,2044,2039,2046,2039,2047,2044,2024
2046,2043,2038,2042,2043,2048,2048,2020
2045,2046,2052,2048,2035,2040,2026,2011
2040,2044,2064,2056,2039,2042,2028,2012
2043,2060,2070,2068,2049,2045,2028,2023
2052,2061,2073,2076,2058,2053,2036,2026
2054,2061,2066,2077,2074,2053,2034,2038
2053,2064,2059,2076,2112,2054,2029,2038
2054,2061,2056,2072,2110,2058,2028,2043
2057,2052,2061,2075,2106,2059,2038,2053
2058,2056,2057,2075,2114,2067,2036,2063
2054,2053,2058,2080,2114,2067,2040,2064
2057,2058,2056,2083,2102,2067,2062,2066
2056,2055,2054,2078,2086,2067,2039,2068
2058,2053,2050,2067,2042,2050,2038,2073
2056,2047,2044,2053,1987,2041,2036,2074
2057,2049,2040,2039,1907,2028,2029,2076
2051,2043,2050,2032,1857,2021,2045,2078
2061,2049,2054,2034,1927,2027,2046,2080
2051,2039,2046,2029,1996,2027,2037,2074
2046,2036,2040,2043,2040,2037,2027,2074
2052,2054,2051,2061,2069,2043,2038,2072
2046,2049,2043,2068,2069,2048,2025,2064
2046,2049,2038,2061,2061,2052,2018,2067
2039,2046,2034,2052,2054,2046,2057,2065
2042,2046,2034,2045,2046,2051,2052,2064
2044,2047,2036,2037,2038,2043,2052,2058
2046,2043,2033,2034,2032,2037,2046,2056
2045,2046,2034,2033,2017,2034,2047,2054
2049,2047,2027,2031,2013,2035,2049,2053
2046,2044,2028,2025,2015,2044,2029,2050
2047,2045,2037,2032,2026,2047,2026,2040
2052,2053,2039,2037,2031,2043,2042,2042
2051,2053,2041,2045,2016,2036,2048,2029
2047,2048,2049,2038,2008,2034,2034,2026
2042,2039,2047,2037,1999,2014,2008,2015
2035,2030,2053,2033,2004,2008,2021,2025
2040,2046,2070,2047,2020,2017,2036,2036
2048,2050,2081,2064,2050,2036,2034,2040
2059,2051,2067,2068,2073,2046,2047,2049
2053,2048,2047,2064,2055,2044,2051,2051
2055,2040,2043,2064,2036,2036,2056,2052
2059,2043,2049,2063,2023,2035,2031,2056
2052,2041,2055,2064,2008,2032,2046,2064
2051,2038,2054,2060,2004,2031,2037,2063
2050,2038,2050,2057,2004,2026,2030,2072
2050,2033,2048,2060,2024,2029,2038,2064
2045,2044,2052,2053,2033,2028,2036,2060
2038,2047,2056,2057,2049,2038,2030,2066
2046,2046,2065,2057,2058,2046,2033,2075
2054,2056,2078,2066,2051,2050,2062,2078
2057,2057,2078,2065,2072,2054,2062,2079
2040,2043,2070,2063,2106,2060,2056,2074
2042,2046,2069,2069,2132,2069,2073,2083
2055,2064,2073,2071,2117,2078,2077,2087
2057,2064,2070,2062,2090,2075,2076,2080
2062,2057,2064,2061,2059,2073,2071,2075
2056,2054,2068,2051,2041,2068,2079,2070
2054,2053,2065,2048,2060,2065,2085,2063
2060,2057,2066,2051,2052,2056,2073,2058
2050,2047,2068,2037,2011,2043,2063,2053
2055,2048,2066,2038,2007,2038,2062,2048
2051,2050,2068,2044,2019,2046,2071,2046
2052,2046,2067,2055,2049,2048,2070,2036
2046,2039,2058,2057,2078,2053,2061,2033
2048,2042,2052,2055,2059,2052,2073,2027
2045,2044,2054,2056,2046,2047,2069,2026
2048,2046,2045,2056,2041,2046,2075,2029
2046,2041,2037,2047,2031,2045,2052,2028
2046,2037,2034,2041,2018,2036,2049,2022
2050,2045,2032,2047,2021,2033,2065,2027
2056,2053,2045,2051,2015,2046,2061,2023
