CH1,CH2,CH3,CH4,CH5,CH6,CH7,CH8
2054,2062,2086,2044,2076,2062,2045,2083
2047,2062,2091,2036,2074,2050,2057,2074
2053,2054,2097,2040,2077,2044,2044,2071
2054,2065,2117,2053,2078,2053,2038,2074
2063,2080,2121,2065,2090,2058,2060,2065
2066,2076,2103,2065,2076,2061,2071,2066
2067,2080,2096,2062,2073,2057,2069,2074
2069,2079,2102,2071,2068,2046,2052,2064
2072,2070,2104,2061,2023,2036,2056,2057
2065,2072,2100,2056,2017,2039,2067,2053
2063,2069,2100,2051,2031,2042,2042,2051
2052,2060,2086,2044,1999,2042,2031,2038
2038,2044,2078,2034,2010,2048,2029,2031
2045,2055,2108,2064,2040,2078,2051,2058
2064,2081,2134,2094,2074,2084,2050,2060
2066,2081,2134,2094,2096,2084,2059,2059
2061,2073,2119,2084,2122,2091,2065,2058
2057,2065,2106,2065,2065,2093,2063,2065
2053,2065,2107,2066,2062,2099,2060,2071
2058,2068,2106,2078,2083,2094,2067,2078
2058,2072,2100,2096,2091,2068,2060,2083
2058,2064,2090,2101,2086,2033,2050,2076
2052,2061,2078,2082,2011,2015,2030,2075
2043,2049,2061,2049,1903,2003,2015,2066
2041,2047,2053,2033,1893,2004,2036,2073
2047,2046,2048,2020,1926,1983,2039,2077
2044,2039,2034,2014,1962,1982,2049,2083
2048,2042,2023,2017,2028,2005,2035,2078
2043,2029,2009,2018,2081,2039,2056,2085
2045,2033,2011,2029,2122,2070,2067,2095
2054,2050,2025,2030,2140,2089,2053,2100
2054,2052,2032,2033,2142,2086,2049,2095
2054,2048,2041,2023,2100,2059,2062,2084
2055,2047,2032,2027,2099,2052,2058,2079
2056,2047,2029,2036,2113,2057,2064,2076
2049,2042,2039,2043,2066,2056,2046,2071
2053,2044,2045,2040,2023,2058,2060,2072
2061,2043,2052,2062,2094,2066,2076,2063
2054,2045,2054,2062,2134,2074,2053,2056
2052,2039,2039,2059,2161,2078,2045,2044
2046,2031,2047,2046,2116,2060,2031,2040
2045,2034,2053,2049,2060,2048,2051,2039
2049,2040,2071,2082,2085,2063,2025,2041
2058,2055,2083,2109,2091,2048,2017,2032
2043,2044,2072,2083,1988,2026,2016,2026
2041,2039,2056,2071,1984,2045,2011,2031
2048,2052,2061,2088,2032,2068,2022,2048
2054,2052,2072,2099,2057,2070,2041,2051
2064,2057,2063,2082,2039,2062,2057,2060
2065,2045,2046,2057,2026,2053,2040,2064
2058,2048,2043,2048,2033,2052,2046,2072
2066,2065,2056,2053,2036,2056,2061,2067
2067,2058,2059,2050,2017,2050,2059,2062
2058,2046,2039,2029,2000,2038,2043,2067
2043,2038,2023,1995,1951,2007,2044,2069
2046,2034,2020,1969,1912,1980,2000,2073
2050,2049,2016,1972,1930,1982,2020,2079
2056,2050,2031,2000,1985,2011,2040,2089
2058,2056,2034,2011,2003,2027,2052,2086
2068,2058,2046,2023,2015,2028,2046,2084
2056,2040,2039,2020,2033,2037,2037,2083
2059,2045,2052,2017,2127,2064,2047,2084
2068,2058,2065,2011,2141,2083,2061,2085
2062,2060,2068,1994,2107,2081,2062,2081
2067,2064,2077,2005,2108,2085,2060,2079
2071,2069,2093,2018,2104,2087,2064,2087
2070,2073,2089,2030,2109,2089,2067,2090
2073,2076,2086,2039,2117,2084,2086,2084
2072,2074,2081,2033,2088,2061,2074,2077
2072,2066,2070,2011,1965,2026,2069,2070
2060,2054,2051,1974,1834,2003,2052,2063
2060,2046,2049,1976,1829,1993,2050,2051
2061,2038,2049,2004,1989,2006,2027,2038
2059,2039,2048,2040,2142,2044,2065,2021
2052,2033,2046,2056,2199,2055,2067,2020
2043,2027,2048,2042,2146,2043,2050,2013
2037,2027,2042,2034,2108,2038,2056,2013
2039,2021,2043,2031,2075,2061,2031,2020
2052,2034,2042,2033,2070,2071,2057,2034
2051,2030,2047,2028,2060,2070,2058,2041
2057,2034,2042,2032,2067,2068,2064,2042
2058,2039,2041,2038,2077,2040,2051,2056
2066,2046,2055,2051,2086,2019,2069,2062
2068,2055,2058,2055,2079,2025,2060,2070
2072,2058,2062,2057,2078,2039,2050,2071
2068,2052,2060,2050,2072,2043,2059,2070
2061,2051,2057,2046,2041,2038,2056,2072
2062,2045,2062,2038,2031,2042,2054,2067
2056,2044,2062,2040,2034,2037,2064,2071
2059,2049,2052,2036,2040,2029,2052,2074
2067,2041,2052,2037,2048,2036,2016,2080
2068,2043,2051,2038,2043,2037,2041,2074
2055,2034,2044,2037,2062,2031,2037,2070
2055,2030,2042,2035,2068,2046,2045,2070
2061,2040,2051,2045,2062,2067,2024,2072
2057,2037,2046,2041,2042,2057,2027,2072
2063,2037,2049,2039,2033,2051,2047,2057
2056,2036,2042,2031,2018,2039,2052,2060
2058,2028,2044,2038,2024,2014,2028,2069
2061,2036,2049,2053,2066,1996,2047,2072
2064,2041,2057,2074,2105,2018,2058,2067
2064,2039,2057,2075,2116,2048,2076,2064
2053,2034,2056,2060,2097,2067,2058,2041
2042,2028,2048,2042,2069,2068,2069,2039
2040,2024,2043,2046,2062,2060,2071,2038
2040,2027,2051,2043,2038,2041,2083,2030
2042,2027,2050,2051,2034,2040,2084,2034
2039,2019,2045,2047,2039,2036,2079,2025
2034,2019,2041,2046,2039,2031,2063,2021
2032,2009,2032,2043,2051,2033,2063,2031
2043,2024,2045,2051,2064,2041,2067,2043
2051,2026,2040,2050,2066,2038,2069,2042
2057,2028,2040,2050,2066,2038,2058,2037
2049,2022,2038,2048,2050,2026,2048,2045
2053,2025,2024,2030,2037,2022,2057,2052
2052,2018,2026,2023,2037,2016,2056,2063
2050,2028,2026,2026,2031,2021,2037,2072
2056,2033,2037,2032,2034,2024,2053,2077
2059,2046,2052,2033,2047,2040,2050,2082
2066,2047,2054,2037,2054,2045,2059,2077
2067,2047,2051,2042,2049,2039,2065,2079
2047,2042,2044,2037,2045,2033,2076,2083
2051,2043,2043,2031,2052,2029,2042,2078
2053,2046,2041,2044,2049,2029,2044,2084
2056,2053,2051,2045,2048,2029,2052,2085
2056,2043,2046,2045,2048,2027,2044,2084
2057,2042,2044,2042,2060,2031,2069,2086
2064,2054,2058,2053,2059,2035,2056,2089
2063,2052,2057,2055,2068,2038,2060,2085
2071,2054,2057,2055,2058,2039,2056,2095
2073,2051,2050,2048,2062,2043,2067,2085
2061,2045,2051,2049,2057,2044,2062,2084
2062,2048,2060,2048,2051,2046,2066,2073
2066,2052,2057,2046,2054,2042,2051,2064
2071,2059,2055,2044,2051,2044,2029,2066
2063,2062,2057,2046,2051,2045,2036,2054
2064,2057,2055,2043,2038,2048,2048,2049
2055,2051,2044,2030,2042,2052,2053,2034
2050,2044,2042,2037,2032,2054,2055,2041
2055,2049,2041,2034,2031,2050,2058,2042
2056,2048,2043,2032,2025,2044,2060,2032
2048,2033,2036,2028,2017,2029,2051,2040
2047,2032,2034,2029,2046,2026,2052,2046
2058,2040,2036,2046,2066,2038,2065,2059
2064,2041,2031,2045,2073,2041,2060,2060
2056,2041,2025,2042,2073,2041,2069,2065
2056,2034,2019,2046,2063,2040,2059,2064
2056,2041,2025,2044,2063,2043,2057,2064
2056,2038,2032,2040,2062,2040,2049,2072
2064,2041,2034,2042,2051,2044,2057,2080
2062,2052,2043,2046,2051,2044,2053,2090
2057,2058,2052,2053,2058,2042,2061,2080
2070,2057,2047,2046,2055,2047,2068,2083
2064,2054,2041,2047,2057,2048,2062,2082
2058,2041,2027,2042,2041,2045,2064,2078
2057,2034,2029,2052,2034,2048,2075,2085
2052,2030,2025,2066,2064,2049,2070,2084
2054,2031,2043,2078,2066,2038,2046,2084
2039,2023,2044,2086,2064,2033,2035,2083
2045,2028,2051,2089,2058,2046,2062,2086
2053,2038,2051,2094,2053,2040,2066,2082
2053,2038,2054,2094,2063,2036,2044,2079
2050,2038,2058,2092,2066,2033,2063,2071
2048,2029,2046,2072,2036,2019,2063,2080
2055,2035,2046,2064,2033,2008,2059,2081
2049,2037,2048,2064,2030,2005,2052,2080
2052,2045,2064,2072,2019,1999,2056,2076
2053,2046,2070,2058,2030,1993,2069,2064
2042,2035,2042,2026,2037,2008,2043,2048
2047,2030,2030,2005,2060,2023,2058,2049
2042,2040,2048,2005,2082,2040,2079,2050
2050,2045,2052,1988,2086,2044,2065,2039
2051,2045,2043,1975,2080,2057,2077,2043
2052,2036,2050,1976,2082,2066,2060,2032
2041,2036,2066,1995,2075,2074,2061,2034
2043,2041,2074,2011,2074,2075,2062,2032
2050,2052,2070,2010,2043,2077,2051,2038
2055,2051,2064,2005,1997,2061,2039,2042
2055,2059,2060,2011,1987,2018,2026,2053
2067,2064,2057,2015,2018,1989,2037,2069
2065,2064,2060,2017,2025,1988,2048,2065
2060,2056,2056,2019,2012,1993,2041,2078
2052,2052,2063,2022,2009,2002,2037,2076
2050,2051,2062,2022,2015,2018,2040,2085
2056,2051,2065,2030,2032,2036,2052,2094
2053,2051,2068,2030,2016,2049,2037,2087
2050,2057,2062,2014,1976,2054,2045,2082
2049,2057,2058,2012,1934,2056,2035,2086
2054,2052,2057,2017,1920,2062,2037,2084
2059,2049,2061,2015,1918,2053,2041,2087
2060,2049,2050,2011,1947,2012,2047,2088
2054,2042,2056,2026,2027,1999,2052,2098
2056,2053,2067,2050,2105,2020,2056,2100
2069,2064,2073,2048,2106,2042,2056,2097
2063,2058,2077,2059,2167,2074,2058,2088
2066,2053,2069,2066,2245,2076,2058,2085
2055,2046,2061,2074,2307,2084,2052,2074
2058,2039,2057,2079,2319,2083,2029,2065
2055,2036,2055,2084,2298,2065,2033,2058
2056,2036,2054,2076,2176,2042,2040,2044
2046,2032,2046,2056,1957,2019,2036,2048
2044,2033,2046,2053,1869,2001,2038,2049
2052,2045,2050,2049,1903,1993,2005,2050
2050,2046,2040,2037,1950,1989,2015,2036
2034,2034,2027,2021,2008,1997,2011,2029
2041,2038,2026,2022,2032,2013,2032,2027
2039,2041,2033,2024,2025,2020,2040,2030
2032,2039,2036,2027,2041,2026,2041,2019
2026,2035,2035,2028,2078,2049,2044,2022
2040,2045,2031,2034,2104,2057,2042,2041
2046,2036,2015,2025,2086,2051,2058,2040
2044,2037,2012,2016,2041,2040,2042,2044
2049,2039,2019,2024,2026,2029,2069,2053
2048,2049,2032,2042,2034,2038,2067,2056
2053,2058,2047,2050,2030,2038,2064,2063
2050,2052,2043,2042,2029,2045,2042,2065
2046,2045,2031,2042,2018,2051,2040,2068
2049,2041,2021,2041,2011,2046,2039,2075
2053,2039,2005,2045,2020,2006,2050,2078
2053,2036,2000,2052,2020,1998,2063,2077
2047,2040,1997,2050,2021,2008,2055,2078
2043,2036,2001,2047,2044,2022,2053,2075
2044,2032,2012,2050,2086,2033,2070,2078
2045,2032,2023,2047,2083,2033,2063,2075
2035,2024,2029,2033,2064,2037,2058,2072
2029,2021,2022,2018,2049,2037,2057,2079
2028,2035,2043,2014,2031,2037,2071,2084
2036,2042,2065,2026,2038,2033,2059,2081
2050,2053,2083,2024,2038,2025,2050,2078
2049,2046,2074,2030,2035,2034,2060,2071
2050,2057,2075,2045,2090,2063,2078,2070
2051,2052,2062,2055,2113,2081,2080,2078
2050,2050,2057,2044,2096,2071,2067,2070
2055,2053,2054,2043,2093,2063,2040,2068
2053,2048,2048,2038,2083,2047,2052,2065
2051,2052,2040,2029,2085,2046,2059,2061
2054,2048,2051,2040,2110,2059,2058,2047
2051,2049,2053,2042,2097,2072,2053,2047
2047,2049,2053,2043,2095,2084,2070,2041
2050,2045,2049,2040,2100,2082,2053,2031
2046,2033,2039,2027,2104,2073,2051,2022
2038,2030,2032,2029,2067,2061,2059,2035
2044,2039,2034,2014,1978,2045,2058,2052
2046,2045,2039,2014,2005,1992,2056,2062
2057,2047,2042,2034,2054,1980,2065,2057
2054,2045,2040,2043,2063,2016,2061,2057
2051,2043,2033,2043,2042,2037,2071,2068
2050,2041,2041,2033,2009,2034,2057,2074
2051,2041,2045,2035,2016,2041,2055,2079
2048,2042,2057,2047,2037,2044,2066,2090
2053,2042,2060,2061,2051,2060,2040,2087
2055,2040,2068,2053,2026,2061,2033,2078
2050,2050,2075,2048,1985,2034,2017,2080
2047,2044,2076,2035,1967,2020,2009,2078
2043,2045,2058,2036,1963,2018,2003,2074
2043,2039,2059,2045,1976,1986,2016,2077
2036,2026,2051,2064,2030,1975,1997,2070
2036,2033,2055,2079,2073,2011,2041,2081
2047,2048,2061,2097,2092,2056,2058,2082
2049,2056,2064,2106,2095,2059,2051,2075
2054,2061,2069,2106,2072,2049,2042,2073
2055,2058,2063,2111,2059,2036,2041,2070
2050,2048,2062,2101,2051,2032,2057,2066
2044,2049,2051,2082,2057,2035,2051,2064
2047,2038,2041,2063,2046,2044,2036,2066
2046,2040,2043,2057,2046,2049,2035,2059
2050,2045,2041,2029,2050,2049,2040,2050
2051,2049,2027,2008,2052,2052,2034,2043
2044,2038,2021,1998,2049,2042,2040,2024
2034,2029,2013,1991,2027,2030,2036,2023
2034,2031,2025,2000,2036,2029,2044,2034
2042,2045,2049,2028,2094,2041,2049,2030
2038,2044,2054,2026,2116,2051,2053,2034
2039,2045,2059,2016,2085,2058,2051,2045
2048,2056,2068,2021,2092,2072,2061,2046
2050,2061,2068,2027,2118,2078,2054,2052
2051,2066,2077,2037,2107,2084,2072,2055
2061,2073,2096,2048,2103,2087,2049,2060
2059,2069,2095,2042,2064,2058,2043,2069
2053,2057,2084,2037,2024,2027,2056,2067
2052,2052,2082,2044,2022,2026,2047,2076
2054,2060,2069,2039,2018,2019,2045,2078
2055,2055,2063,2032,2020,2023,2042,2078
2054,2055,2062,2036,2047,2038,2031,2075
2045,2048,2059,2039,2053,2037,2045,2078
2044,2050,2061,2044,2055,2038,2048,2072
2048,2053,2057,2045,2043,2035,2050,2079
2043,2056,2061,2033,2042,2036,2043,2081
2037,2043,2049,2027,2037,2025,2039,2079
2036,2036,2040,2040,2050,2028,2044,2080
2041,2040,2045,2052,2061,2039,2043,2079
2042,2048,2052,2058,2062,2039,2035,2072
2047,2050,2061,2066,2064,2039,2019,2075
2049,2045,2075,2068,2059,2030,2027,2070
2043,2043,2077,2063,2043,2019,2025,2067
2041,2048,2076,2066,2038,2020,2029,2058
2037,2048,2077,2062,2029,2034,2036,2052
2029,2045,2072,2059,2031,2064,2040,2039
2031,2040,2058,2056,2038,2074,2048,2037
2038,2045,2070,2069,2066,2087,2061,2052
2041,2049,2064,2070,2074,2073,2052,2039
2041,2052,2058,2076,2080,2029,2054,2037
2052,2057,2064,2087,2100,1998,2044,2039
2049,2051,2052,2073,2103,2015,2036,2028
2031,2035,2032,2043,2078,2020,2019,2014
2028,2033,2024,2029,2063,2029,2024,2027
2035,2046,2024,2013,2055,2032,2028,2026
2039,2049,2019,2005,2051,2041,2044,2038
2046,2054,2013,1996,2056,2045,2049,2051
2047,2049,2015,2003,2052,2044,2070,2062
2048,2044,2018,2015,2040,2043,2069,2062
2051,2046,2028,2024,2038,2035,2074,2072
2052,2044,2029,2034,2045,2038,2072,2079
2054,2048,2034,2035,2046,2038,2076,2083
2048,2056,2045,2041,2053,2039,2055,2092
2053,2053,2050,2036,2041,2041,2053,2086
2057,2058,2055,2042,2041,2036,2032,2091
2061,2056,2065,2049,2066,2044,2055,2092
2058,2054,2062,2062,2092,2055,2059,2088
2061,2055,2062,2062,2091,2047,2043,2083
2054,2045,2047,2048,2049,2017,2034,2082
2044,2038,2039,2038,1992,2021,2019,2079
2045,2043,2040,2034,1962,2030,2027,2071
2037,2043,2033,2013,1940,2016,2036,2066
2044,2045,2039,2011,1962,2013,2032,2071
2049,2058,2052,2018,1984,2000,2047,2078
2056,2060,2055,2030,2010,1992,2045,2081
2061,2060,2059,2042,2074,2046,2074,2086
2069,2066,2072,2073,2151,2095,2072,2076
2067,2067,2064,2070,2153,2115,2073,2068
2057,2053,2049,2052,2100,2102,2072,2059
2053,2046,2041,2045,2080,2089,2054,2046
2058,2049,2042,2046,2082,2075,2066,2045
2062,2057,2051,2056,2090,2054,2051,2041
2058,2064,2053,2052,2091,2058,2079,2034
2053,2051,2041,2045,2082,2070,2079,2042
2049,2038,2024,2028,2064,2062,2068,2029
2041,2028,2027,2028,2075,2061,2072,2021
2041,2038,2035,2048,2098,2067,2058,2030
2044,2039,2037,2058,2111,2059,2060,2036
2041,2031,2042,2063,2102,2058,2046,2042
2033,2036,2040,2060,2068,2041,2023,2048
2036,2037,2041,2060,2027,2017,2030,2050
2040,2034,2040,2052,2005,2011,2032,2064
2043,2035,2035,2045,2012,2019,2060,2071
2044,2030,2034,2056,2042,2023,2064,2072
2046,2039,2041,2053,2074,2025,2062,2073
2044,2042,2040,2057,2092,2033,2058,2076
2047,2044,2038,2041,2061,2039,2070,2078
2048,2050,2031,2037,2064,2041,2047,2080
2054,2042,2036,2042,2085,2042,2054,2089
2051,2052,2057,2056,2108,2054,2060,2096
2049,2045,2054,2051,2096,2049,2057,2084
2045,2030,2052,2042,2043,2039,2062,2088
2052,2039,2058,2029,1927,2024,2076,2096
2063,2052,2054,2015,1923,2014,2067,2092
2062,2055,2054,2016,1970,2024,2057,2080
2053,2047,2056,2028,1991,2020,2044,2074
2047,2045,2053,2035,2066,2036,2062,2073
2051,2047,2058,2052,2120,2041,2055,2074
2056,2045,2053,2052,2127,2035,2058,2073
2051,2033,2044,2035,2079,2024,2059,2064
2056,2039,2061,2043,2033,2022,2060,2062
2056,2045,2079,2044,2005,2037,2060,2051
2051,2045,2080,2052,2029,2035,2057,2042
2058,2046,2078,2058,2084,2046,2070,2038
2045,2053,2082,2062,2118,2061,2066,2029
2045,2052,2074,2050,2096,2056,2051,2032
2045,2043,2055,2052,2103,2054,2029,2033
2037,2032,2056,2065,2165,2061,2035,2035
2040,2046,2064,2062,2149,2024,2050,2037
2049,2046,2058,2063,2118,2011,2035,2038
2046,2038,2055,2060,2122,2024,2045,2041
2038,2035,2053,2047,2073,2021,2030,2050
2037,2032,2050,2044,1957,2024,2037,2058
2044,2040,2066,2062,1963,2020,2050,2063
2050,2046,2070,2069,1968,2005,2030,2063
2049,2045,2074,2063,1984,2002,2035,2072
2045,2040,2063,2056,2015,2017,2044,2078
2041,2042,2056,2039,2007,2022,2057,2075
2036,2039,2057,2034,2010,2023,2041,2089
2044,2040,2061,2037,2013,2031,2046,2096
2047,2047,2076,2047,2016,2028,2051,2095
2054,2060,2085,2054,2016,2030,2030,2103
2064,2054,2076,2050,2018,2026,2055,2097
2056,2048,2068,2055,2005,2027,2028,2100
2057,2055,2072,2065,2037,2043,2053,2100
2057,2053,2068,2074,2047,2040,2048,2094
2058,2045,2069,2073,2004,2032,2024,2084
2046,2042,2068,2075,2030,2038,2047,2079
2046,2045,2066,2073,2086,2040,2029,2070
2051,2050,2065,2076,2064,2040,2011,2065
2051,2045,2065,2075,2035,2034,2026,2058
2045,2039,2064,2070,2021,2040,2035,2056
2043,2038,2055,2069,2021,2025,2045,2044
2042,2038,2045,2061,2005,2016,2034,2041
2043,2039,2057,2066,2011,2022,2027,2033
2043,2045,2056,2066,2050,2028,2035,2034
2046,2044,2055,2066,2068,2025,2034,2028
2040,2037,2054,2045,2050,2022,2016,2026
2034,2022,2038,2005,2027,2018,2032,2023
2029,2019,2042,2000,2026,2031,2038,2028
2042,2046,2062,2016,2036,2043,2061,2038
2055,2053,2062,2026,2039,2040,2047,2047
2054,2058,2065,2039,2043,2042,2048,2046
2047,2055,2059,2040,2044,2040,2041,2056
2053,2051,2057,2048,2041,2040,2046,2068
2045,2050,2059,2044,2033,2039,2055,2069
2050,2045,2049,2040,2036,2047,2055,2079
2049,2043,2048,2046,2039,2049,2056,2077
2046,2040,2046,2041,2013,2060,2061,2071
2047,2039,2049,2041,1995,2063,2044,2073
2040,2036,2046,2028,1974,2057,2045,2070
2040,2034,2044,2034,1971,2041,2041,2075
2047,2046,2050,2033,1983,2005,2037,2079
2052,2049,2053,2057,2031,1983,2045,2086
2045,2039,2056,2066,2073,2005,2045,2086
2049,2031,2049,2065,2094,2042,2060,2092
2051,2046,2046,2064,2107,2069,2058,2080
2044,2044,2043,2058,2094,2068,2077,2076
2040,2038,2041,2053,2074,2050,2060,2077
2040,2036,2046,2061,2046,2050,2063,2076
2042,2042,2046,2060,2073,2053,2068,2071
2046,2041,2045,2062,2072,2057,2060,2079
2047,2038,2041,2055,2066,2054,2063,2068
2048,2039,2044,2065,2067,2059,2055,2065
2049,2042,2044,2084,2063,2072,2063,2056
2052,2044,2061,2103,2055,2072,2061,2046
2041,2037,2060,2109,2039,2067,2060,2037
2043,2036,2062,2088,1991,2059,2074,2029
2042,2029,2060,2088,2002,2084,2075,2025
2041,2025,2048,2086,2003,2097,2067,2015
2029,2014,2035,2066,1978,2085,2062,2017
2022,2015,2032,2066,1954,2040,2056,2019
2030,2028,2036,2074,1953,1992,2057,2022
2034,2032,2033,2080,1980,1994,2060,2029
2038,2037,2037,2081,2046,2014,2056,2034
2035,2039,2033,2072,2108,2044,2056,2040
2041,2030,2027,2059,2150,2055,2068,2053
2033,2029,2032,2032,2138,2047,2063,2056
2031,2027,2045,2001,2085,2037,2047,2062
2031,2020,2040,1976,2052,2028,2057,2064
2033,2013,2020,1970,2043,2024,2028,2063
2036,2020,2022,1980,2036,2035,2058,2076
2044,2031,2041,1995,2042,2040,2054,2079
2046,2041,2047,2006,2047,2036,2064,2082
2045,2039,2064,2021,2043,2038,2066,2082
2050,2045,2082,2033,2046,2038,2056,2080
2047,2042,2076,2038,2052,2043,2062,2079
2046,2042,2066,2042,2064,2043,2053,2080
2054,2046,2071,2053,2072,2053,2064,2079
2057,2046,2075,2050,2068,2052,2065,2079
2050,2049,2076,2058,2062,2051,2063,2071
2052,2049,2085,2057,2052,2045,2064,2067
2050,2048,2084,2052,2055,2048,2067,2068
2050,2042,2080,2054,2051,2050,2053,2059
2050,2046,2074,2038,2056,2043,2068,2057
2048,2033,2064,2031,2055,2045,2044,2046
2048,2032,2056,2031,2058,2043,2073,2050
2050,2037,2055,2036,2058,2044,2059,2045
2054,2028,2048,2037,2059,2043,2046,2035
2045,2024,2037,2036,2057,2039,2076,2035
2049,2023,2038,2037,2052,2039,2040,2026
2047,2030,2035,2036,2055,2037,2046,2024
2042,2017,2033,2042,2041,2029,2047,2026
2042,2029,2062,2059,2047,2029,2054,2032
2053,2037,2074,2078,2051,2047,2068,2039
2052,2038,2073,2076,2057,2038,2065,2037
2060,2040,2068,2084,2055,2037,2071,2037
2049,2033,2062,2077,2052,2034,2066,2035
2044,2036,2063,2076,2042,2047,2051,2038
2049,2035,2057,2071,2018,2046,2034,2039
2038,2034,2051,2063,2007,2049,2041,2044
2033,2024,2051,2060,1992,2050,2040,2050
2032,2033,2058,2071,2004,2035,2052,2059
2042,2048,2084,2087,2046,2018,2061,2071
2052,2060,2089,2089,2077,2031,2070,2082
2060,2064,2080,2066,2094,2047,2070,2084
2066,2060,2070,2057,2090,2058,2058,2088
2064,2057,2053,2041,2071,2062,2062,2092
2062,2052,2041,2025,2032,2046,2064,2080
2050,2039,2026,2001,1983,2041,2064,2077
2045,2047,2043,2002,1978,2040,2064,2086
2055,2045,2049,2012,2031,2048,2071,2075
2055,2039,2045,2030,2103,2060,2069,2070
2046,2034,2054,2047,2116,2056,2058,2071
2046,2029,2051,2058,2093,2050,2054,2062
2042,2038,2059,2053,2073,2051,2068,2062
2047,2054,2066,2050,2071,2053,2068,2057
2059,2047,2064,2050,2071,2053,2081,2055
2053,2044,2060,2040,2051,2052,2074,2044
2049,2037,2051,2034,2017,2044,2073,2045
2046,2035,2046,2031,1996,2042,2069,2036
2047,2034,2049,2038,2001,2046,2063,2034
2051,2045,2051,2049,2014,2052,2063,2032
2045,2043,2053,2043,2017,2049,2061,2025
2045,2030,2048,2032,2001,2024,2055,2021
2038,2025,2057,2036,2005,2022,2041,2017
2034,2038,2076,2053,2025,2034,2060,2024
2042,2045,2077,2053,2048,2032,2064,2037
2046,2046,2068,2051,2071,2031,2062,2047
2046,2039,2062,2051,2062,2028,2045,2052
2046,2042,2062,2048,2060,2024,2053,2054
2054,2047,2065,2061,2078,2035,2052,2072
2057,2047,2062,2070,2088,2045,2059,2074
2053,2042,2060,2066,2073,2045,2063,2072
2053,2041,2055,2056,2050,2034,2042,2073
2058,2037,2052,2049,2036,2036,2033,2072
2052,2036,2052,2047,2041,2042,2040,2066
2042,2032,2048,2046,2040,2048,2040,2068
2041,2032,2052,2040,2040,2054,2045,2077
2039,2033,2054,2043,2048,2058,2062,2089
2046,2034,2054,2045,2041,2054,2055,2079
2035,2023,2043,2037,2038,2053,2063,2085
2034,2025,2044,2046,2047,2062,2071,2085
2043,2028,2043,2050,2055,2065,2064,2084
2049,2029,2039,2054,2064,2065,2058,2082
2047,2028,2031,2064,2062,2050,2059,2075
2043,2028,2032,2061,2050,2032,2062,2057
2046,2029,2024,2056,2054,2037,2061,2055
2047,2023,2024,2057,2062,2047,2066,2040
2045,2021,2013,2058,2064,2062,2072,2048
2038,2018,2012,2053,2061,2076,2068,2043
2030,2017,2013,2056,2056,2071,2064,2036
2036,2026,2020,2057,2047,2051,2062,2029
2038,2028,2034,2057,2053,2046,2049,2022
2033,2032,2034,2050,2043,2044,2055,2027
2030,2022,2032,2045,2041,2038,2031,2026
2032,2030,2040,2047,2041,2042,2023,2012
2021,2020,2042,2040,2036,2052,2021,2020
2031,2034,2047,2042,2037,2066,2046,2029
2040,2048,2057,2046,2034,2068,2038,2030
2041,2049,2046,2037,2028,2069,2055,2034
2044,2046,2060,2036,2028,2054,2046,2051
2051,2050,2088,2055,2039,2022,2052,2064
2052,2059,2100,2064,2041,2025,2061,2062
2054,2064,2108,2065,2045,2040,2061,2071
2053,2064,2103,2066,2045,2052,2057,2078
2049,2060,2095,2064,2050,2064,2055,2085
2055,2051,2087,2061,2047,2062,2045,2092
2053,2047,2083,2062,2050,2070,2049,2092
2050,2048,2076,2064,2044,2064,2046,2095
2052,2053,2070,2063,2040,2059,2064,2088
2053,2050,2071,2058,2041,2059,2054,2099
2059,2055,2072,2064,2041,2051,2034,2092
2050,2044,2064,2048,2039,2041,2045,2088
2044,2034,2052,2041,2035,2036,2036,2088
2045,2038,2056,2057,2043,2046,2049,2089
2053,2047,2061,2056,2046,2044,2043,2080
2049,2049,2058,2057,2051,2041,2044,2080
2052,2054,2066,2065,2046,2034,2050,2078
2052,2050,2061,2057,2047,2038,2060,2076
2054,2055,2057,2063,2049,2044,2039,2079
2056,2051,2056,2050,2064,2050,2048,2061
2046,2047,2059,2054,2052,2056,2049,2052
2046,2046,2051,2054,2047,2047,2045,2044
2044,2039,2053,2044,2046,2040,2059,2041
2042,2040,2047,2048,2044,2043,2056,2042
2041,2035,2044,2050,2042,2044,2045,2034
2048,2035,2047,2050,2048,2053,2056,2037
2037,2034,2046,2051,2043,2053,2052,2039
2037,2037,2046,2052,2046,2050,2041,2032
2027,2027,2040,2045,2040,2043,2053,2027
2027,2031,2035,2043,2038,2048,2045,2034
2039,2045,2044,2051,2029,2050,2037,2040
2045,2045,2045,2047,2029,2055,2064,2056
2040,2044,2041,2051,2041,2058,2059,2054
2047,2039,2041,2046,2038,2064,2062,2054
2046,2038,2046,2044,2035,2082,2071,2062
2046,2036,2044,2043,2030,2078,2052,2069
2048,2037,2046,2040,2025,2072,2056,2073
2054,2043,2038,2042,2022,2067,2043,2078
2057,2042,2044,2046,2041,2034,2037,2076
2058,2038,2039,2058,2055,2021,2058,2080
2053,2039,2044,2053,2064,2038,2052,2077
2043,2038,2037,2052,2066,2054,2052,2076
2042,2044,2038,2049,2063,2055,2058,2075
2048,2043,2037,2050,2066,2046,2054,2072
2046,2032,2030,2047,2054,2045,2047,2069
2042,2036,2030,2052,2058,2051,2044,2071
2050,2043,2040,2053,2057,2039,2043,2064
2050,2042,2039,2050,2043,2017,2027,2058
2047,2042,2037,2045,2042,2022,2036,2058
2039,2043,2034,2044,2039,2034,2030,2052
2038,2037,2034,2039,2040,2046,2042,2053
2035,2041,2049,2047,2045,2054,2045,2048
2038,2046,2054,2054,2050,2061,2064,2056
2038,2047,2051,2056,2053,2068,2061,2049
2040,2047,2048,2047,2055,2072,2066,2050
2042,2047,2045,2045,2057,2064,2052,2040
2039,2041,2039,2040,2053,2057,2052,2030
2036,2044,2039,2040,2063,2053,2051,2027
2033,2042,2045,2045,2053,2058,2033,2024
2032,2040,2043,2044,2053,2050,2026,2021
2024,2024,2030,2038,2048,2042,2039,2014
2026,2024,2037,2048,2052,2051,2026,2017
2038,2035,2037,2043,2058,2045,2017,2030
2039,2038,2031,2041,2049,2038,2022,2030
2037,2039,2027,2034,2044,2038,2005,2033
2039,2042,2035,2041,2050,2045,2021,2039
2037,2041,2040,2043,2041,2051,2041,2050
2047,2047,2045,2045,2044,2057,2058,2063
2045,2053,2049,2051,2053,2060,2055,2070
2052,2055,2056,2050,2052,2062,2044,2067
2048,2060,2056,2055,2052,2057,2056,2074
2051,2063,2060,2047,2043,2054,2057,2069
2051,2059,2055,2045,2035,2053,2054,2073
2044,2050,2043,2043,2034,2056,2064,2073
2045,2054,2049,2044,2042,2061,2058,2070
2045,2047,2038,2037,2049,2058,2051,2070
2032,2038,2031,2038,2046,2058,2054,2071
2041,2048,2039,2049,2052,2064,2046,2072
2043,2050,2047,2051,2057,2068,2041,2072
2048,2054,2042,2045,2050,2052,2041,2070
2044,2045,2043,2044,2054,2042,2046,2068
2042,2047,2043,2050,2060,2042,2049,2067
2046,2046,2042,2052,2057,2040,2057,2067
2049,2039,2041,2041,2048,2031,2016,2060
2043,2038,2042,2037,2030,2033,2044,2051
2032,2046,2040,2035,2031,2037,2022,2034
2033,2044,2038,2037,2025,2043,2016,2032
2034,2044,2038,2038,2032,2060,2027,2030
2037,2042,2039,2037,2025,2055,2052,2029
2042,2037,2041,2034,2023,2052,2061,2028
2042,2039,2037,2034,2014,2052,2055,2016
2039,2029,2028,2028,2015,2047,2036,2004
2031,2024,2018,2029,2016,2044,2035,2003
2034,2036,2032,2034,2036,2057,2039,2024
2042,2042,2032,2042,2060,2053,2045,2032
2044,2040,2037,2049,2069,2051,2034,2034
2043,2047,2037,2051,2061,2051,2023,2038
2040,2052,2037,2050,2053,2046,2036,2050
2043,2047,2042,2053,2056,2050,2044,2055
2053,2046,2040,2056,2061,2044,2052,2062
2056,2045,2045,2049,2064,2051,2043,2070
2057,2051,2043,2056,2060,2054,2026,2064
2049,2042,2044,2054,2060,2049,2030,2063
2044,2037,2038,2048,2060,2044,2032,2069
2038,2032,2033,2053,2059,2043,2035,2073
2047,2035,2039,2037,2052,2039,2031,2075
2043,2039,2040,2030,2041,2041,2041,2080
2038,2031,2029,2022,2040,2032,2025,2071
2036,2023,2032,2025,2038,2029,2045,2078
2041,2035,2042,2040,2045,2036,2051,2072
2043,2037,2040,2038,2046,2038,2053,2065
2038,2041,2042,2039,2046,2039,2035,2064
2043,2039,2047,2040,2048,2049,2028,2058
2048,2041,2044,2042,2050,2061,2055,2061
2047,2042,2043,2040,2053,2063,2039,2058
2050,2048,2046,2039,2061,2063,2032,2050
2053,2048,2048,2041,2064,2066,2025,2047
2054,2046,2048,2047,2065,2068,2039,2039
2048,2043,2049,2045,2055,2072,2042,2037
2046,2037,2048,2047,2064,2073,2031,2026
2046,2040,2041,2045,2060,2075,2044,2017
2043,2039,2046,2049,2064,2073,2042,2019
2046,2037,2041,2052,2064,2084,2018,2011
2039,2028,2032,2043,2053,2083,2030,2005
2039,2028,2036,2046,2067,2082,2039,2007
2044,2039,2042,2056,2064,2039,2030,2013
2043,2042,2040,2058,2065,2009,2016,2022
2040,2042,2043,2065,2066,2019,2043,2034
2038,2043,2047,2058,2072,2027,2034,2040
2038,2045,2048,2063,2069,2041,2034,2041
2038,2042,2042,2062,2059,2045,2053,2054
2045,2046,2047,2071,2069,2052,2064,2063
2043,2042,2047,2069,2067,2050,2064,2063
2045,2049,2051,2064,2064,2050,2050,2061
2044,2050,2049,2057,2060,2047,2048,2066
2045,2044,2047,2054,2049,2041,2034,2070
2044,2041,2043,2048,2044,2040,2045,2074
2043,2042,2040,2039,2037,2032,2050,2079
2045,2040,2041,2033,2025,2020,2041,2074
2045,2028,2033,2022,2016,2015,2038,2076
2039,2031,2034,2031,2025,2029,2033,2076
2056,2045,2048,2040,2041,2040,2056,2072
2053,2052,2055,2047,2046,2042,2051,2068
2059,2056,2054,2049,2048,2048,2043,2065
2056,2056,2058,2050,2048,2052,2050,2063
2056,2058,2050,2046,2050,2058,2056,2061
2057,2052,2048,2039,2042,2048,2040,2058
2052,2049,2048,2036,2029,2037,2053,2054
2051,2044,2044,2029,2036,2030,2043,2035
2049,2039,2041,2034,2032,2032,2048,2033
2054,2047,2045,2036,2047,2034,2066,2032
2045,2041,2042,2034,2037,2033,2061,2020
2052,2045,2043,2030,2041,2030,2045,2023
2049,2042,2038,2036,2037,2032,2053,2020
2048,2038,2036,2029,2030,2027,2048,2012
2043,2037,2029,2023,2028,2021,2032,2012
2042,2039,2034,2038,2034,2034,2051,2023
2052,2046,2041,2032,2030,2035,2059,2028
2047,2045,2045,2034,2017,2029,2043,2034
2058,2051,2051,2035,2008,2017,2048,2039
2061,2050,2049,2043,2008,2017,2043,2032
2047,2044,2036,2030,2018,2035,2035,2039
2043,2036,2025,2036,2042,2061,2028,2045
2046,2043,2034,2044,2064,2068,2037,2052
2045,2040,2034,2043,2064,2057,2039,2050
2044,2037,2030,2041,2066,2066,2045,2055
2043,2040,2035,2038,2064,2066,2042,2055
2045,2041,2036,2037,2062,2059,2035,2051
2039,2036,2038,2039,2058,2057,2025,2055
2047,2036,2044,2046,2058,2056,2024,2062
2034,2034,2035,2037,2054,2047,2019,2056
2029,2019,2034,2032,2044,2047,2024,2054
2032,2042,2041,2043,2057,2060,2045,2066
2045,2046,2036,2039,2053,2060,2036,2070
2042,2044,2038,2041,2052,2060,2043,2076
2045,2044,2039,2041,2046,2064,2035,2069
2042,2038,2045,2047,2044,2075,2055,2055
2050,2045,2049,2048,2049,2075,2059,2050
2051,2052,2048,2050,2061,2077,2039,2056
2059,2055,2052,2053,2069,2074,2043,2049
2055,2052,2056,2049,2072,2080,2067,2044
2052,2043,2053,2054,2067,2070,2077,2040
2051,2040,2050,2049,2065,2073,2056,2036
2057,2046,2049,2054,2064,2065,2055,2034
2059,2052,2051,2054,2066,2055,2036,2023
2058,2050,2049,2052,2060,2048,2050,2016
2049,2044,2044,2048,2046,2035,2028,2013
2042,2040,2050,2043,2040,2025,2024,2012
2043,2046,2051,2046,2048,2028,2027,2014
2058,2043,2048,2050,2046,2041,2045,2027
2051,2045,2049,2044,2039,2047,2035,2025
2039,2045,2047,2048,2039,2048,2018,2034
2044,2038,2051,2043,2038,2046,2025,2041
2039,2047,2054,2046,2036,2055,2036,2047
2039,2051,2052,2049,2054,2062,2016,2056
2045,2056,2063,2061,2057,2073,2029,2062
2047,2055,2059,2062,2065,2065,2062,2068
2053,2048,2059,2063,2062,2055,2057,2077
2047,2049,2050,2053,2053,2033,2024,2070
2046,2042,2045,2043,2045,2021,2015,2067
2045,2045,2048,2043,2047,2020,2011,2076
2048,2047,2050,2040,2043,2018,1993,2067
2045,2041,2038,2025,2027,2011,2001,2060
2036,2035,2030,2017,2021,2014,2003,2060
2043,2047,2042,2030,2032,2017,2009,2057
2052,2052,2040,2032,2030,2024,2003,2052
2047,2052,2043,2036,2035,2023,2017,2037
2046,2046,2041,2037,2024,2004,2016,2028
2045,2047,2044,2042,2026,2010,2017,2022
2043,2046,2050,2050,2041,2052,2022,2020
2038,2051,2046,2045,2049,2073,2030,2014
2026,2045,2048,2048,2059,2077,2007,2004
2033,2052,2054,2061,2068,2087,2036,2013
2031,2049,2057,2064,2068,2102,2036,2004
2026,2046,2048,2053,2058,2116,2049,1994
2029,2048,2046,2054,2063,2125,2052,1983
2023,2042,2044,2051,2079,2133,2051,1989
2036,2049,2052,2064,2077,2112,2036,1992
2031,2042,2045,2068,2071,2102,2046,2001
2029,2046,2042,2073,2078,2099,2034,2011
2039,2056,2052,2073,2074,2080,2036,1996
2032,2043,2052,2075,2081,2068,2041,2000
2022,2038,2046,2071,2077,2071,2049,2003
2022,2032,2043,2063,2069,2066,2047,2006
2022,2033,2043,2058,2056,2049,2054,1995
2030,2039,2045,2064,2056,2033,2044,2007
2037,2044,2043,2060,2060,2008,2043,2016
2034,2044,2043,2057,2071,2005,2050,2027
2044,2045,2041,2052,2071,2003,2055,2033
2038,2045,2044,2041,2060,2016,2044,2022
2039,2036,2042,2033,2046,2028,2042,2017
2036,2037,2040,2027,2038,2031,2026,2021
2038,2036,2040,2029,2038,2046,2031,2015
2035,2039,2043,2027,2032,2043,2004,2008
2022,2026,2034,2024,2032,2058,2020,2009
2017,2025,2041,2028,2018,2075,2016,2008
2020,2037,2042,2022,2008,2072,1998,2008
2019,2033,2044,2028,2001,2060,2016,2005
2019,2034,2044,2020,2001,2061,2032,2004
2026,2037,2042,2026,2010,2019,2019,2014
2036,2041,2045,2040,2047,2002,2039,2017
2040,2048,2059,2062,2086,2030,2044,2024
2036,2042,2052,2069,2093,2042,2056,2021
2040,2036,2056,2063,2089,2057,2052,2000
2043,2041,2055,2061,2087,2059,2042,1997
2045,2039,2050,2055,2062,2046,2034,1985
2041,2037,2050,2055,2037,2027,2031,1975
2044,2040,2038,2042,2046,2018,2035,1967
2038,2039,2038,2036,2026,2042,2010,1956
2034,2030,2021,2015,1963,2031,2015,1952
2017,2025,2013,2009,1931,2026,1992,1952
2027,2031,2024,2032,1972,2041,2012,1985
2043,2045,2031,2047,2009,1989,2044,2027
2056,2054,2042,2073,2069,1965,2048,2061
2062,2059,2050,2073,2080,2003,2033,2063
2062,2053,2047,2062,2057,2034,2042,2056
2051,2048,2036,2026,1951,2050,2034,2041
2050,2040,2032,2008,1930,2062,2067,2037
2042,2041,2034,2020,1995,2073,2061,2035
2043,2038,2036,2028,2043,2066,2040,2030
2040,2041,2050,2026,2065,2047,2037,2019
2039,2038,2044,2025,2078,2060,2038,2021
2032,2025,2049,2038,2073,2049,2019,2023
2026,2023,2052,2040,2046,2041,1999,2027
2030,2020,2046,2049,2062,2043,2040,2033
2023,2007,2030,2043,2084,2046,2039,2029
2028,2001,2025,2044,2095,2046,2033,2030
2021,2016,2036,2058,2102,2061,2056,2026
2026,2023,2033,2065,2098,2083,2047,2029
2031,2028,2041,2066,2079,2094,2055,2030
2039,2041,2040,2065,2078,2096,2069,2031
2041,2042,2039,2064,2085,2104,2058,2027
2042,2032,2027,2040,2049,2086,2058,2012
2033,2027,2020,2027,2031,2082,2053,2006
2030,2028,2020,2032,2057,2073,2036,2001
2035,2037,2034,2045,2065,2029,2035,1994
2043,2063,2053,2056,2063,2021,2035,1988
2047,2067,2068,2061,2074,2040,2034,1980
2040,2063,2076,2062,2072,2043,2034,1967
2035,2057,2076,2046,2065,2057,2020,1969
2039,2053,2063,2034,2045,2063,2016,1968
2031,2044,2049,2021,2024,2052,2019,1973
2034,2032,2044,2015,2019,2042,1989,1973
2039,2049,2046,2021,2024,2034,2012,1984
2038,2057,2056,2023,2049,2042,2012,1977
2039,2062,2078,2037,2077,2074,2033,1980
2047,2065,2093,2040,2068,2081,2022,1995
2046,2064,2091,2038,2053,2037,2034,2011
2046,2077,2097,2047,2051,1982,2033,2026
2051,2072,2089,2048,2025,1984,2038,2028
2046,2063,2070,2036,1975,1981,2034,2024
2038,2053,2060,2012,1932,1979,2011,2023
2035,2042,2048,2002,1903,1981,2010,2023
2037,2054,2049,2029,1971,2017,2043,2043
2057,2062,2047,2054,2023,2052,2055,2041
2058,2060,2044,2061,2040,2066,2058,2046
2052,2054,2047,2066,2051,2061,2059,2028
2040,2028,2030,2053,2051,2047,2050,2013
2025,2028,2034,2056,2079,2057,2046,2009
2032,2044,2049,2069,2095,2062,2047,2010
2035,2042,2034,2065,2059,2057,2050,2009
2040,2032,2032,2064,2012,2038,2033,2017
2032,2029,2032,2063,1988,2016,2024,2008
2027,2020,2024,2054,1978,1995,2015,1991
2014,2009,2009,2041,2018,2001,2023,1985
2014,2020,2028,2058,2061,2022,2029,1991
2029,2035,2049,2069,2090,2035,2039,1996
2034,2041,2064,2066,2118,2064,2057,1983
2022,2049,2073,2066,2144,2086,2056,1976
2035,2062,2081,2057,2114,2079,2063,1974
2032,2069,2085,2054,2086,2069,2044,1971
2038,2068,2074,2059,2079,2063,2042,1967
2033,2061,2075,2062,2068,2068,2024,1961
2021,2042,2070,2067,2063,2070,2018,1955
2014,2030,2062,2063,2047,2071,2034,1957
2015,2037,2070,2052,2041,2058,2042,1964
2021,2038,2067,2042,2025,2048,2039,1969
2017,2043,2064,2045,2005,2041,2047,1977
2023,2051,2067,2044,2011,2041,2037,1984
2028,2044,2058,2044,2013,2036,2013,1982
2022,2038,2046,2051,2035,2059,2038,2004
2033,2040,2045,2077,2057,2070,2060,2006
2028,2040,2050,2086,2065,2057,2051,2007
2026,2043,2047,2081,2071,2045,2044,2007
2023,2034,2047,2065,2074,2041,2035,2004
2019,2033,2046,2040,2054,2038,2022,2002
2017,2030,2056,2018,2042,2033,2030,1998
2013,2031,2063,2011,2038,2033,2016,2005
2028,2035,2076,2015,2041,2030,2013,2013
2020,2040,2071,2005,2048,2033,2010,2016
2022,2044,2060,2004,2053,2035,2046,2017
2031,2052,2058,2012,2062,2040,2050,2022
2038,2054,2053,2012,2069,2036,2065,2008
2036,2051,2068,2017,2062,2035,2049,2004
2034,2059,2079,2022,2056,2040,2034,2002
2039,2057,2076,2027,2052,2041,2043,1998
2037,2052,2072,2026,2055,2037,2052,1989
2039,2049,2074,2028,2054,2032,2043,1990
2036,2048,2065,2030,2050,2034,2048,1990
2031,2052,2066,2035,2046,2046,2053,1983
2036,2054,2061,2034,2048,2060,2076,1978
2035,2052,2055,2034,2030,2084,2069,1970
2038,2055,2050,2028,2021,2085,2067,1967
2036,2048,2051,2032,2019,2092,2050,1965
2034,2038,2046,2021,2013,2087,2053,1952
2021,2025,2023,2018,2016,2021,2035,1956
2027,2021,2010,2030,2047,2001,2034,1976
2033,2032,2018,2050,2073,2018,2057,1985
2045,2033,2012,2042,2076,2042,2058,1983
2035,2031,2007,2042,2080,2074,2049,1977
2028,2022,2005,2034,2072,2076,2050,1973
2025,2018,2000,2030,2060,2060,2038,1973
2024,2022,1999,2026,2052,2046,2023,1985
2025,2026,2000,2026,2050,2042,2046,1987
2031,2024,2001,2035,2039,2053,2027,1985
2024,2020,1994,2031,2029,2039,2012,1986
2016,2016,1995,2031,2020,2030,1994,1982
2015,2014,1998,2032,2023,2015,2004,1990
2017,2015,1994,2028,2010,2016,1985,1985
2016,2018,1998,2027,1997,2048,2016,1985
2013,2023,2014,2031,1981,2063,2032,1984
2013,2020,2021,2016,1980,2069,2045,1988
2009,2025,2034,2008,1971,2072,2048,1998
2025,2045,2064,2032,2003,2039,2048,2003
2036,2069,2110,2062,2062,2025,2062,2007
2050,2075,2124,2076,2107,2037,2063,2013
2053,2084,2123,2085,2127,2069,2072,2012
2048,2083,2122,2079,2125,2074,2072,2015
2049,2079,2108,2068,2091,2077,2058,2008
2052,2074,2106,2051,2057,2071,2045,1994
2048,2068,2102,2044,2043,2064,2022,1989
2043,2062,2089,2036,2040,2048,2025,1977
2038,2061,2087,2040,2035,2038,2013,1975
2035,2056,2080,2042,2029,1999,2016,1975
2036,2057,2072,2043,2039,1999,2026,1960
2038,2058,2074,2039,2031,2027,2039,1957
2041,2066,2075,2041,2028,2036,2035,1954
2030,2054,2065,2035,2029,2036,2047,1957
2027,2047,2056,2037,2026,2032,2038,1957
2039,2059,2070,2043,2033,2034,2036,1961
2032,2055,2068,2042,2034,2033,2039,1964
2031,2053,2062,2052,2037,2042,2041,1969
2030,2049,2059,2045,2042,2045,2049,1975
2032,2046,2060,2047,2048,2046,2045,1981
2023,2046,2056,2043,2043,2044,2042,1988
2026,2043,2053,2044,2040,2033,2042,1992
2026,2035,2050,2049,2041,2033,2030,1996
2027,2042,2053,2043,2045,2036,2041,1998
2030,2039,2063,2041,2038,2039,2033,2007
2034,2043,2057,2042,2042,2039,2038,2010
2036,2043,2054,2034,2043,2043,2056,2014
2034,2047,2051,2031,2036,2039,2021,2019
2034,2039,2046,2035,2039,2034,2021,2005
2023,2025,2038,2024,2031,2029,2023,1999
2020,2029,2045,2028,2033,2040,2030,2011
2037,2044,2054,2044,2044,2046,2044,2013
2034,2051,2050,2042,2051,2040,2024,2010
2028,2050,2047,2041,2060,2039,2022,2007
2034,2053,2055,2048,2062,2047,2027,2010
2035,2047,2054,2056,2068,2063,2032,2011
2030,2040,2050,2051,2046,2081,2055,1993
2031,2037,2047,2047,2057,2093,2036,1983
2033,2041,2049,2043,2064,2093,2071,1978
2027,2043,2041,2038,2053,2080,2058,1967
2025,2033,2031,2030,2076,2055,2052,1967
2032,2029,2040,2044,2108,2033,2048,1973
2036,2037,2053,2070,2139,2052,2062,1970
2035,2040,2061,2081,2155,2065,2063,1970
2036,2047,2066,2072,2156,2070,2045,1962
2031,2045,2059,2054,2107,2046,2049,1962
2020,2039,2049,2044,2072,2034,2061,1964
2034,2052,2057,2053,2061,2041,2061,1972
2037,2045,2047,2044,2046,2042,2064,1973
2030,2043,2043,2033,1969,2030,2043,1972
2030,2039,2042,2019,1932,2036,2059,1985
2034,2036,2043,2026,1974,2049,2047,1990
2030,2036,2045,2040,2012,2066,2058,2003
2031,2037,2052,2032,2028,2061,2059,2004
2029,2041,2045,2028,2019,2048,2048,1998
2030,2039,2037,2027,2023,2049,2047,1992
2022,2033,2033,2025,2030,2059,2039,1989
2017,2022,2026,2027,2045,2069,2053,1997
2018,2024,2029,2033,2050,2082,2049,2009
2014,2021,2024,2021,2050,2104,2049,2013
2019,2022,2019,2017,2050,2070,2029,2014
2024,2012,2009,2013,2030,1989,2009,2015
2019,2016,2013,2009,2016,1967,2021,2019
2031,2034,2019,2012,2018,1999,2034,2023
2035,2038,2022,2020,2021,2033,2049,2025
2036,2045,2019,2024,2018,2043,2064,2019
2031,2044,2019,2024,2012,2036,2057,2016
2032,2042,2014,2022,2004,2029,2055,2013
2035,2044,2022,2029,2009,2035,2081,2016
2035,2054,2034,2028,2005,2035,2084,2017
2045,2049,2039,2022,2011,2036,2084,2014
2041,2050,2036,2027,2038,2045,2078,2006
2038,2049,2035,2034,2085,2059,2088,2001
2042,2051,2039,2038,2084,2060,2085,1993
2041,2051,2050,2035,2071,2042,2077,1992
2043,2057,2062,2036,2061,2034,2055,1993
2037,2053,2061,2039,2063,2037,2054,1989
2035,2046,2063,2041,2052,2023,2035,1984
2029,2037,2066,2035,2042,2010,2048,1983
2040,2048,2071,2043,2044,2022,2013,1986
2040,2050,2058,2045,2047,2029,2022,1993
2037,2052,2054,2040,2045,2032,2053,1994
2038,2054,2052,2039,2034,2022,2047,2000
2036,2051,2043,2034,2025,2023,2037,2014
2033,2047,2045,2032,2014,2030,2062,2019
2038,2043,2047,2025,1981,2038,2047,2032
2044,2043,2040,2016,1938,2035,2054,2036
2045,2046,2048,2018,1929,2030,2042,2032
2038,2052,2048,2017,1947,2024,2038,2034
2039,2045,2045,2018,1987,2019,2012,2038
2034,2046,2042,2026,2021,2009,2012,2033
2030,2038,2041,2034,2055,2018,2022,2046
2038,2053,2069,2059,2114,2077,2050,2056
2035,2065,2091,2070,2133,2112,2036,2051
2036,2056,2091,2062,2121,2118,2051,2057
2046,2072,2091,2057,2118,2116,2073,2058
2042,2065,2067,2050,2117,2108,2068,2052
2045,2055,2058,2048,2111,2099,2061,2044
2039,2050,2058,2044,2095,2088,2064,2042
2037,2050,2059,2034,2044,2082,2057,2040
2032,2047,2061,2032,2027,2067,2043,2025
2033,2050,2058,2034,2041,2051,2059,2026
2038,2046,2060,2034,2054,2043,2053,2030
2039,2044,2059,2043,2072,2030,2041,2026
2041,2049,2058,2044,2078,2014,2040,2024
2040,2048,2047,2042,2080,1998,2055,2017
2033,2040,2044,2041,2067,1985,2055,2011
2034,2035,2047,2040,2055,1988,2024,2007
2031,2039,2048,2038,2049,2002,2035,2002
2030,2036,2038,2036,2038,2013,2024,1995
2029,2026,2036,2030,2046,2025,2026,1998
2035,2044,2038,2032,2042,2027,2033,2003
2030,2039,2040,2038,2044,2028,2064,2009
2026,2039,2032,2035,2050,2033,2039,2010
2025,2035,2036,2027,2038,2030,2039,2022
2028,2040,2040,2032,2040,2032,2063,2032
2033,2045,2041,2038,2049,2040,2064,2045
2039,2042,2033,2044,2053,2043,2072,2058
2042,2040,2032,2040,2053,2051,2073,2058
2029,2036,2027,2041,2061,2060,2056,2045
2026,2033,2022,2043,2054,2057,2052,2047
2025,2029,2030,2054,2049,2056,2053,2044
2017,2027,2041,2059,2055,2050,2040,2051
2016,2026,2047,2067,2064,2045,2043,2050
2017,2028,2053,2080,2069,2042,2034,2054
2015,2017,2044,2078,2062,2026,2027,2052
2019,2015,2040,2076,2061,2027,2050,2057
2031,2033,2058,2104,2068,2038,2067,2056
2032,2040,2070,2102,2063,2042,2058,2060
2041,2045,2069,2102,2067,2047,2061,2059
2045,2052,2070,2100,2068,2048,2070,2059
2046,2049,2056,2092,2063,2042,2062,2064
2039,2049,2053,2085,2053,2044,2081,2058
2048,2053,2055,2078,2056,2042,2075,2060
2041,2050,2041,2069,2058,2037,2076,2049
2046,2045,2029,2045,2056,2030,2076,2039
2038,2038,2014,2029,2036,2021,2064,2036
2036,2037,2018,2006,2040,2024,2066,2036
2035,2045,2026,2002,2068,2022,2060,2044
2045,2045,2028,2008,2084,2037,2040,2037
2045,2052,2038,2004,2063,2034,2034,2028
2038,2041,2031,1998,2025,2024,2040,2033
2039,2047,2041,1994,2008,2020,2025,2033
2047,2066,2059,1997,2001,2021,2046,2044
2053,2059,2062,1992,1988,2010,2036,2048
2051,2064,2061,1991,1950,2000,2034,2052
2051,2067,2069,1991,1929,2026,2034,2052
2048,2062,2065,1985,1908,2056,2039,2058
2046,2055,2060,1976,1890,2078,2033,2059
2046,2057,2053,1985,1926,2104,2046,2062
2046,2062,2061,2008,1957,2075,2057,2068
2043,2063,2071,2037,2008,1982,2053,2087
2041,2064,2071,2054,2097,1977,2046,2089
2044,2062,2073,2061,2118,2004,2050,2093
2045,2061,2075,2067,2126,2037,2056,2091
2050,2060,2075,2075,2138,2056,2059,2091
2046,2066,2079,2077,2137,2051,2058,2091
2037,2046,2061,2066,2119,2027,2044,2079
2029,2045,2054,2056,2097,2022,2046,2083
2036,2058,2057,2054,2097,2034,2061,2083
2045,2058,2056,2049,2108,2039,2063,2087
2046,2062,2051,2048,2106,2043,2060,2090
2043,2062,2056,2056,2094,2044,2056,2082
2050,2064,2057,2051,2074,2050,2067,2080
2052,2062,2054,2043,2064,2051,2068,2075
2046,2058,2055,2046,2065,2061,2062,2070
2042,2051,2051,2046,2058,2076,2069,2069
2042,2050,2054,2047,2056,2074,2078,2065
2042,2047,2050,2036,2050,2056,2066,2063
2045,2041,2040,2030,2052,2047,2068,2052
2040,2045,2041,2039,2062,2039,2066,2048
2040,2046,2041,2042,2074,2042,2067,2045
2036,2044,2034,2043,2078,2040,2067,2046
2029,2035,2030,2037,2065,2031,2059,2037
2029,2023,2025,2032,2051,2030,2061,2042
2032,2027,2028,2036,2056,2034,2057,2043
2029,2027,2023,2035,2049,2030,2056,2044
2027,2032,2025,2037,2039,2020,2051,2059
2038,2034,2031,2036,2028,2008,2045,2048
2040,2033,2025,2035,2026,2012,2036,2059
2041,2037,2034,2047,2071,2039,2045,2070
2056,2048,2062,2075,2105,2054,2055,2090
2059,2059,2074,2080,2106,2064,2074,2099
2059,2060,2058,2073,2109,2059,2071,2100
2059,2046,2047,2066,2089,2056,2064,2088
2052,2040,2038,2055,2071,2036,2050,2093
2046,2033,2024,2045,2078,2037,2051,2099
2040,2029,2020,2043,2085,2043,2059,2104
2040,2027,2022,2047,2085,2052,2047,2094
2038,2022,2018,2039,2082,2047,2022,2089
2031,2022,2018,2039,2078,2037,2024,2092
2033,2030,2033,2035,2061,2046,2050,2097
2044,2048,2056,2043,2068,2056,2059,2097
2042,2058,2074,2054,2094,2069,2064,2097
2048,2056,2066,2055,2092,2065,2056,2100
2051,2052,2057,2059,2105,2063,2066,2094
2054,2050,2051,2060,2111,2067,2069,2098
2045,2048,2056,2058,2108,2062,2051,2083
2042,2044,2061,2049,2103,2062,2066,2077
2041,2045,2066,2053,2097,2061,2052,2071
2041,2043,2070,2052,2070,2050,2071,2069
2040,2049,2081,2042,2047,2037,2067,2061
2039,2051,2084,2037,2028,2021,2059,2054
2046,2042,2075,2025,2003,2010,2062,2055
2046,2052,2077,2017,1995,2012,2054,2050
2047,2060,2067,2023,1998,2008,2043,2044
2037,2044,2064,2022,2007,2020,2040,2045
2041,2053,2070,2033,2032,2047,2057,2056
2056,2072,2079,2047,2045,2048,2056,2064
2052,2066,2075,2046,2038,2066,2048,2067
2042,2053,2065,2032,2012,2066,2043,2068
2043,2045,2058,2024,1988,2057,2046,2070
2043,2050,2054,2025,1972,2052,2016,2075
2046,2056,2053,2023,1974,2063,2046,2080
2042,2048,2049,2022,1979,2044,2026,2083
2042,2047,2048,2032,2009,2015,2051,2097
2044,2052,2053,2048,2058,2034,2053,2089
2047,2048,2047,2053,2092,2079,2061,2091
2042,2046,2043,2044,2089,2112,2061,2086
2043,2038,2034,2042,2069,2112,2055,2085
2041,2036,2034,2035,2043,2095,2040,2088
2042,2039,2034,2038,2034,2062,2036,2086
2035,2025,2023,2031,2055,2010,2026,2085
2036,2022,2029,2038,2063,2005,2022,2091
2042,2038,2036,2042,2070,2009,2041,2083
2044,2032,2038,2049,2069,2032,2031,2089
2044,2041,2046,2047,2047,2045,2052,2090
2050,2042,2043,2045,2028,2051,2045,2082
2047,2042,2047,2038,2025,2077,2061,2072
2037,2042,2043,2032,2021,2098,2036,2064
2034,2040,2033,2019,1988,2081,2034,2056
2039,2044,2044,2028,1991,2082,2034,2054
2042,2051,2046,2043,2030,2043,2031,2061
2049,2058,2052,2067,2067,1997,2062,2064
2050,2049,2041,2068,2086,1999,2059,2052
2045,2045,2043,2060,2068,2016,2040,2043
2039,2047,2034,2047,2046,2026,2040,2046
2039,2045,2032,2042,2041,2036,2028,2036
2030,2037,2025,2032,2030,2024,2017,2038
2040,2043,2037,2035,2028,2021,2027,2041
2051,2065,2050,2057,2047,2033,2041,2058
2055,2068,2048,2062,2064,2039,2052,2062
2054,2072,2045,2055,2060,2045,2053,2070
2056,2070,2037,2048,2049,2054,2034,2080
2061,2065,2046,2040,2048,2051,2042,2085
2063,2066,2051,2038,2044,2051,2026,2084
2060,2060,2052,2039,2045,2051,2037,2092
2060,2064,2049,2038,2053,2056,2046,2100
2054,2064,2056,2044,2057,2063,2064,2101
2063,2061,2061,2055,2059,2068,2061,2103
2061,2058,2062,2048,2047,2064,2062,2101
2057,2053,2050,2047,2044,2058,2066,2107
2059,2048,2047,2042,2045,2054,2053,2095
2051,2051,2041,2039,2041,2051,2048,2090
2049,2041,2031,2031,2026,2042,2025,2083
2042,2038,2038,2035,2037,2055,2043,2094
2051,2056,2046,2048,2043,2053,2038,2091
2050,2057,2043,2045,2040,2039,2052,2090
2054,2059,2040,2049,2035,2039,2038,2089
2058,2062,2046,2048,2036,2045,2040,2088
2056,2065,2049,2053,2048,2058,2043,2080
2060,2065,2053,2056,2082,2068,2052,2069
2056,2065,2058,2062,2106,2066,2045,2071
2055,2070,2066,2065,2121,2065,2041,2069
2059,2072,2067,2062,2120,2067,2072,2065
2063,2070,2060,2065,2132,2068,2064,2069
2058,2068,2063,2067,2124,2064,2068,2060
2048,2062,2053,2054,2098,2046,2061,2056
2037,2056,2046,2046,2058,2037,2040,2050
2031,2049,2040,2040,2012,2006,2022,2035
2024,2036,2027,2020,1955,1979,2023,2034
2021,2027,2018,2015,1859,1986,2024,2041
2034,2052,2035,2031,1886,2019,2055,2057
2042,2058,2043,2044,1963,2050,2064,2063
2050,2063,2045,2057,2012,2076,2055,2075
2055,2060,2040,2060,2043,2092,2052,2090
2048,2057,2040,2057,2032,2081,2027,2088
2055,2060,2042,2058,2029,2083,2046,2092
2055,2057,2032,2055,2023,2079,2044,2092
2050,2055,2034,2058,2029,2075,2043,2088
2043,2043,2034,2061,2034,2075,2045,2087
2045,2044,2023,2061,2057,2081,2034,2088
2036,2040,2024,2060,2070,2066,2048,2083
2033,2037,2019,2064,2081,2062,2053,2087
2034,2037,2022,2069,2082,2070,2059,2106
2040,2032,2021,2065,2070,2061,2053,2099
2034,2023,2012,2062,2057,2054,2050,2093
2030,2010,2004,2064,2052,2067,2046,2097
2042,2026,2011,2062,2042,2068,2049,2094
2041,2028,2008,2058,2020,2064,2055,2090
2035,2034,2004,2045,2023,2056,2041,2087
2034,2031,2004,2046,2042,2056,2041,2081
2040,2038,2002,2045,2054,2058,2039,2075
2039,2035,1993,2045,2044,2054,2022,2070
2036,2040,1995,2035,2028,2037,2046,2064
2042,2046,2006,2038,2042,2040,2014,2067
2054,2060,2019,2042,2062,2046,2037,2061
2052,2050,2015,2039,2064,2052,2046,2062
2044,2049,2026,2034,2053,2048,2043,2056
2042,2052,2030,2022,2055,2051,2017,2045
2040,2052,2042,2017,2066,2045,2039,2038
2038,2050,2045,2017,2059,2041,2046,2034
2038,2049,2064,2022,2031,2037,2030,2030
2040,2067,2086,2034,2029,2039,2058,2045
2059,2084,2097,2042,2015,2054,2036,2056
2066,2084,2103,2040,1993,2060,2046,2063
2063,2084,2104,2040,1993,2064,2046,2069
2058,2076,2100,2037,1990,2059,2047,2073
2050,2074,2100,2040,1964,2018,2034,2078
2052,2066,2101,2048,1997,1999,2029,2089
2052,2069,2098,2063,2043,2001,2051,2094
2051,2076,2088,2066,2041,2019,2044,2098
2052,2072,2091,2058,2041,2037,2060,2102
2056,2068,2083,2060,2040,2039,2046,2093
2042,2060,2070,2050,2037,2032,2045,2081
2035,2050,2057,2038,2037,2042,2040,2086
2042,2054,2060,2059,2051,2056,2046,2090
2045,2051,2060,2059,2039,2058,2054,2089
2039,2047,2056,2051,2029,2051,2047,2089
2043,2050,2060,2058,2033,2055,2050,2094
2048,2060,2053,2049,2020,2042,2049,2094
2045,2056,2053,2044,2005,2027,2044,2095
2043,2050,2039,2032,2006,2024,2049,2093
2048,2053,2034,2025,2008,2031,2035,2083
2046,2048,2024,2018,2039,2047,2036,2077
2044,2046,2014,2027,2091,2074,2049,2076
2056,2053,2022,2033,2112,2079,2062,2079
2048,2051,2025,2028,2093,2078,2068,2073
2051,2048,2033,2026,2058,2055,2048,2070
2054,2050,2035,2033,2034,2036,2051,2057
2053,2048,2034,2029,2008,2006,2034,2058
2045,2045,2034,2027,1986,1996,2029,2050
2044,2050,2031,2020,1995,1997,2054,2058
2038,2042,2023,2024,2003,2012,2042,2055
2040,2046,2030,2024,2014,2025,2042,2059
2048,2062,2036,2041,2037,2050,2072,2064
2046,2063,2032,2031,2026,2054,2076,2057
2040,2051,2018,2022,2013,2051,2063,2063
2034,2043,2022,2036,2030,2067,2071,2072
2046,2049,2030,2056,2061,2084,2085,2080
2051,2051,2036,2076,2092,2097,2078,2092
2046,2046,2034,2072,2103,2098,2084,2097
2045,2039,2032,2070,2089,2083,2075,2095
2038,2039,2031,2071,2082,2067,2064,2088
2034,2034,2031,2069,2084,2052,2024,2085
2037,2034,2027,2069,2082,2051,2034,2079
2031,2035,2022,2063,2090,2035,2044,2084
2039,2038,2022,2060,2077,2039,2028,2085
2040,2044,2025,2057,2058,2042,2021,2093
2039,2032,2016,2038,2032,2028,1998,2097
2038,2042,2026,2042,2018,1994,2011,2111
2053,2062,2057,2056,2032,2000,2037,2116
2062,2076,2076,2059,2046,2016,2043,2115
2057,2084,2084,2060,2069,2037,2040,2105
2059,2078,2069,2044,2072,2055,2055,2102
2058,2063,2043,2031,2065,2057,2059,2084
2049,2055,2025,2026,2068,2054,2071,2080
2044,2052,2035,2036,2054,2055,2050,2080
2041,2050,2045,2034,2058,2050,2045,2073
2036,2058,2045,2041,2058,2043,2050,2074
2040,2052,2042,2043,2058,2048,2063,2064
2039,2052,2034,2037,2056,2047,2071,2066
2043,2052,2036,2030,2021,2043,2067,2060
2046,2054,2030,2024,2011,2045,2068,2054
2048,2058,2032,2030,2005,2054,2069,2047
2041,2041,2011,2019,2004,2058,2069,2037
2036,2038,2007,2027,2021,2070,2060,2053
2056,2065,2035,2066,2094,2077,2072,2067
2063,2070,2043,2073,2130,2075,2066,2067
2062,2060,2038,2076,2137,2073,2047,2066
2054,2054,2032,2073,2133,2087,2060,2067
2042,2049,2026,2069,2101,2092,2063,2078
2042,2052,2032,2062,2057,2092,2062,2081
2050,2053,2036,2064,2045,2111,2064,2082
2046,2053,2039,2057,2040,2105,2061,2087
2050,2051,2037,2037,2010,2080,2040,2083
2044,2050,2038,2029,2005,2015,2025,2092
2047,2063,2046,2049,2060,1984,2036,2107
2051,2062,2056,2052,2072,2028,2051,2114
2062,2065,2058,2052,2088,2084,2053,2111
2058,2066,2053,2054,2080,2106,2058,2101
2049,2050,2041,2037,2053,2086,2045,2097
2042,2050,2032,2028,2035,2032,2049,2103
2046,2063,2040,2031,2021,2027,2049,2097
2044,2062,2046,2038,2026,2038,2033,2087
2045,2061,2043,2037,2028,2038,2045,2095
2045,2062,2047,2033,1986,2018,2047,2102
2050,2060,2046,2038,2005,2058,2068,2099
2049,2062,2040,2057,2037,2098,2047,2094
2051,2062,2038,2061,2053,2116,2038,2080
2048,2055,2032,2061,2075,2121,2045,2080
2044,2054,2036,2068,2104,2125,2053,2072
2048,2054,2033,2074,2136,2114,2063,2065
2045,2047,2031,2083,2168,2083,2034,2068
2043,2054,2032,2083,2175,2068,2036,2069
2051,2058,2034,2077,2178,2072,2033,2061
2050,2065,2040,2084,2170,2065,2049,2057
2044,2052,2038,2079,2154,2057,2015,2057
2034,2054,2043,2086,2135,2028,2013,2058
2041,2058,2054,2082,2090,2044,2017,2068
2042,2054,2047,2063,1958,2045,2019,2075
2053,2060,2038,2048,1869,2028,2019,2077
2043,2050,2030,2038,1885,2037,2015,2072
2042,2047,2040,2048,1885,2029,2026,2087
2056,2062,2059,2091,1976,2023,2036,2110
2069,2076,2065,2086,2041,2027,2020,2112
2062,2060,2042,2053,2022,2021,2030,2101
2043,2053,2030,2033,1971,2002,2032,2104
2048,2060,2054,2034,1993,2003,2029,2098
2047,2061,2063,2027,2015,2002,2046,2105
2056,2069,2066,2024,1998,1996,2044,2111
2058,2073,2062,2017,1968,1993,2058,2117
2054,2075,2065,2019,1972,2008,2077,2115
2055,2064,2048,2016,2009,2025,2072,2107
2044,2050,2028,2015,2050,2032,2063,2103
2049,2054,2032,2024,2062,2036,2053,2108
2049,2054,2042,2027,2040,2030,2078,2107
2047,2054,2046,2035,2025,2029,2064,2099
2038,2062,2053,2043,2041,2036,2061,2094
2038,2063,2053,2053,2073,2032,2030,2083
2046,2064,2055,2063,2106,2031,2026,2081
2052,2076,2059,2064,2086,2033,2012,2068
2052,2077,2057,2058,2062,2018,2025,2064
2054,2077,2061,2050,2035,2024,2022,2059
2056,2078,2057,2048,2014,2038,2034,2068
2049,2080,2060,2042,2001,2055,2040,2056
2047,2079,2062,2040,1991,2043,2045,2049
2045,2070,2053,2033,1958,2021,2039,2046
2046,2066,2048,2013,1926,2030,2032,2039
2044,2058,2038,2017,1948,2049,2023,2031
2029,2045,2027,2019,1992,2061,2026,2020
2029,2050,2029,2035,1980,2071,2022,2039
2037,2055,2037,2044,2010,2053,2034,2055
2047,2062,2049,2067,2080,2048,2039,2068
2056,2068,2054,2097,2153,2066,2061,2070
2064,2070,2067,2110,2161,2086,2047,2083
2064,2080,2068,2097,2117,2096,2049,2094
2068,2075,2065,2071,2044,2075,2072,2102
2059,2067,2052,2034,1939,2000,2047,2088
2049,2055,2043,1985,1880,1950,2038,2088
2047,2057,2046,1980,1925,1953,2045,2089
2050,2065,2050,2000,1939,1958,2023,2088
2046,2059,2043,2008,1971,1970,2021,2084
2039,2046,2036,2031,2030,1983,2013,2086
2037,2046,2037,2044,2089,2006,2050,2087
2051,2047,2033,2046,2098,2012,2029,2081
2037,2032,2025,2036,2099,2037,2040,2085
2042,2044,2036,2053,2158,2065,2047,2104
2059,2052,2046,2068,2167,2070,2052,2106
2057,2052,2047,2073,2158,2087,2050,2098
2051,2056,2053,2092,2167,2111,2061,2089
2052,2059,2053,2108,2198,2120,2051,2082
2047,2057,2062,2116,2233,2141,2049,2075
2045,2060,2054,2124,2263,2149,2043,2077
2052,2067,2065,2117,2222,2138,2057,2078
2054,2069,2063,2098,2174,2115,2062,2077
2049,2065,2062,2063,2121,2071,2051,2064
2042,2059,2060,2034,2059,2032,2044,2056
2044,2059,2056,2015,1974,2016,2050,2053
2044,2054,2059,2004,1988,1994,2031,2049
2042,2045,2045,2005,2058,1991,2013,2043
2041,2034,2030,1987,1968,1978,2034,2033
2023,2022,2023,1996,1911,1974,2045,2027
2026,2032,2041,2028,1931,1970,2043,2036
2038,2051,2055,2027,1895,1982,2043,2042
2042,2059,2057,2040,1951,2016,2043,2046
2047,2051,2062,2068,2005,2027,2041,2055
2045,2056,2056,2074,1959,2016,2035,2054
2038,2043,2051,2048,1844,1992,2023,2061
2035,2047,2047,2034,1841,2008,2025,2059
2038,2051,2051,2046,1940,2046,2040,2070
2040,2061,2052,2054,1979,2047,2024,2075
2040,2058,2047,2048,1982,2049,2025,2072
2033,2054,2047,2042,2008,2051,2033,2076
2041,2052,2045,2040,2024,2049,2043,2083
2036,2046,2035,2033,2040,2049,2050,2086
2034,2047,2031,2040,2045,2050,2044,2088
2038,2051,2036,2037,2036,2008,2013,2094
2040,2047,2038,2043,2062,2010,2040,2098
2047,2060,2049,2069,2110,2040,2052,2102
2061,2073,2053,2076,2126,2045,2072,2095
2057,2064,2043,2064,2111,2047,2036,2087
2046,2057,2038,2057,2109,2050,2044,2075
2043,2043,2033,2049,2090,2057,2044,2068
2039,2046,2032,2052,2080,2060,2055,2066
2047,2050,2040,2052,2072,2073,2067,2068
2048,2051,2043,2051,2066,2077,2066,2070
2043,2060,2049,2048,2059,2073,2068,2065
2046,2069,2050,2051,2054,2067,2055,2065
2052,2066,2046,2052,2058,2071,2058,2059
2046,2055,2048,2052,2065,2068,2066,2050
2042,2056,2046,2049,2065,2056,2061,2040
2042,2057,2049,2044,2052,2059,2061,2037
2043,2053,2048,2042,2042,2049,2052,2022
2030,2038,2036,2029,2025,2037,2046,2025
2034,2041,2036,2028,2000,2031,2052,2029
2040,2051,2042,2021,1969,2013,2051,2043
2049,2051,2037,2016,1952,2030,2059,2045
2042,2047,2037,2012,1939,2041,2061,2047
2041,2044,2035,2003,1923,2043,2046,2042
2032,2042,2029,2004,1932,2049,2047,2055
2036,2049,2041,2019,1974,2051,2037,2062
2041,2049,2046,2042,2030,2027,2028,2078
2046,2046,2047,2064,2060,2047,2034,2085
2051,2046,2044,2068,2099,2068,2045,2082
2046,2045,2045,2066,2133,2061,2050,2081
2046,2040,2044,2068,2142,2063,2052,2083
2045,2045,2046,2076,2130,2084,2053,2076
2043,2040,2047,2055,2053,2082,2029,2073
2046,2027,2037,2040,2016,2074,2012,2077
2030,2010,2020,2018,2016,2053,2026,2080
2032,2014,2017,2025,2061,2020,2039,2092
2052,2048,2046,2036,2116,2015,2047,2095
2056,2061,2056,2056,2187,2056,2042,2094
2055,2063,2064,2066,2214,2076,2057,2087
2057,2061,2063,2065,2174,2066,2049,2086
2053,2062,2056,2056,2091,2040,2049,2077
2047,2053,2048,2042,2035,2004,2037,2076
2047,2047,2040,2046,2011,1993,2035,2061
2050,2047,2043,2026,1958,1987,2028,2043
2042,2044,2037,1989,1889,1981,2020,2032
2038,2053,2044,2011,1955,2004,2034,2044
2050,2057,2056,2051,2046,2032,2041,2047
2055,2057,2050,2062,2075,2032,2025,2041
2053,2058,2049,2060,2034,2027,2022,2042
2053,2057,2054,2064,2055,2050,2016,2035
2048,2053,2051,2062,2039,2056,2025,2045
2050,2058,2052,2053,2048,2061,2033,2053
2062,2064,2052,2062,2065,2067,2037,2060
2060,2063,2057,2064,2099,2069,2025,2059
2052,2058,2053,2060,2114,2074,2023,2065
2052,2065,2051,2065,2148,2097,2024,2068
2052,2062,2051,2078,2194,2116,2017,2073
2062,2061,2040,2069,2189,2086,2043,2080
2057,2052,2037,2041,2126,2052,2034,2081
2049,2044,2036,2038,2128,2059,2041,2088
2058,2047,2038,2045,2152,2069,2048,2093
2070,2054,2046,2044,2125,2079,2043,2093
2064,2063,2055,2040,2003,2085,2027,2082
2064,2053,2056,2042,1946,2083,2053,2092
2054,2045,2049,2037,1952,2071,2043,2087
2047,2040,2039,2025,1888,2000,2045,2086
2040,2029,2038,2019,1854,1958,2044,2098
2053,2046,2048,2047,1965,2010,2070,2118
2074,2074,2065,2093,2167,2091,2051,2117
2071,2071,2065,2117,2271,2162,2061,2110
2074,2060,2059,2109,2207,2189,2063,2084
2058,2049,2045,2063,2043,2107,2058,2082
2059,2045,2044,2036,1987,2044,2052,2092
2056,2047,2038,2028,1889,2083,2073,2097
2058,2047,2045,2031,1910,2115,2076,2088
2054,2048,2047,2011,1860,2078,2048,2066
2047,2038,2030,1984,1856,2034,2028,2056
2036,2028,2026,1987,1949,2036,2032,2046
2033,2027,2029,2044,2205,2069,2026,2038
2028,2037,2038,2062,2270,2051,2036,2041
2038,2044,2039,2047,2205,2011,2004,2048
2044,2043,2033,2013,2113,1947,1995,2027
2016,2012,2005,1981,2013,1892,1991,2020
2013,2004,2002,2010,1977,1886,2002,2022
2022,2018,2019,2036,1966,1907,2015,2020
2027,2020,2027,2039,1985,1927,2021,2017
2044,2035,2034,2037,2018,1957,2019,2031
2046,2033,2038,2043,2026,1979,2041,2034
2039,2034,2038,2051,2034,2006,2014,2044
2029,2029,2026,2039,2021,2009,2048,2058
2036,2023,2031,2040,2027,2036,2071,2082
2036,2019,2028,2043,2050,2048,2062,2085
2037,2016,2030,2049,2072,2073,2072,2090
2034,2015,2037,2060,2067,2095,2077,2104
2050,2031,2046,2071,2090,2118,2059,2098
2060,2039,2045,2079,2075,2106,2066,2091
2062,2024,2026,2065,2049,2088,2051,2088
2054,2014,2012,2061,2015,2040,2050,2074
2040,1997,2001,2045,1989,1988,2028,2073
2031,1988,1998,2037,2036,2008,2029,2087
2055,2006,2004,2047,2133,2037,2025,2096
2060,2012,1990,2029,2105,2028,2009,2088
2036,2013,1987,2024,2109,2005,1991,2063
2014,2012,1990,2036,2179,2018,2023,2068
2036,2046,2026,2051,2099,2057,2051,2083
2062,2065,2055,2066,2059,2088,2082,2105
2078,2053,2036,2049,2039,2081,2072,2095
2074,2040,2020,2016,1984,2083,2055,2105
2078,2041,2011,2016,2001,2097,2049,2111
2083,2046,2015,2016,1986,2091,2074,2094
2095,2071,2055,2036,2073,2114,2081,2075
2103,2084,2081,2056,2056,2124,2074,2066
2098,2087,2103,2053,2024,2120,2080,2065
2066,2073,2104,2056,1984,2111,2073,2077
2052,2057,2079,2031,1936,2106,2056,2070
2039,2042,2055,2045,2060,2102,2052,2037
2030,2036,2034,2045,2192,2069,2009,2021
2036,2026,2037,2051,2222,2066,2031,2025
2050,2036,2060,2097,2297,2073,2057,2056
2044,2053,2070,2117,2338,2091,2067,2060
2035,2053,2075,2131,2375,2079,2030,2062
2025,2053,2068,2102,2270,2002,2017,2043
1997,2035,2037,2036,2054,1933,1991,2033
1985,2017,2010,1966,1896,1904,1971,2032
1994,1997,1996,1948,1916,1924,2001,2049
2012,2020,2013,1978,1863,1967,2008,2074
2038,2051,2045,2010,1903,2000,2042,2100
2069,2074,2063,2048,2045,2041,2055,2126
2083,2076,2065,2060,2068,2044,2048,2127
2090,2072,2062,2050,2045,2042,2054,2142
2104,2059,2032,2029,2023,2031,2048,2128
2081,2034,2022,2016,2025,2031,2049,2125
2078,2036,2025,2023,2027,2044,2059,2104
2076,2024,2028,2018,2029,2034,2050,2068
2057,2011,2024,2013,2023,2024,2035,2046
2044,1999,2009,2007,2018,2029,2058,2044
2038,2009,2012,2016,2028,2035,2058,2061
2043,2030,2022,2031,2038,2039,2042,2055
2026,2028,2032,2034,2037,2052,2058,2072
2054,2053,2038,2040,2035,2045,2041,2070
2041,2037,2025,2027,2042,2053,2054,2068
2028,2034,2032,2036,2052,2066,2042,2066
2031,2047,2038,2040,2068,2056,2042,2076
2039,2039,2028,2042,2064,2047,2046,2070
2046,2032,2024,2041,2064,2046,2037,2069
2038,2030,2028,2053,2055,2056,2038,2062
2048,2028,2017,2048,2047,2038,2042,2043
2038,2007,2002,2036,2034,2033,2044,2040
2034,2003,1991,2025,2008,2028,2049,2049
2041,2020,2000,2023,1997,2031,2047,2054
2043,2035,2019,2031,1958,2037,2049,2079
2072,2043,2021,2030,1906,2023,2057,2098
2088,2041,2025,2024,1892,2027,2051,2075
2090,2048,2031,2011,1896,2030,2025,2075
2089,2048,2032,2023,1951,2011,2049,2097
2084,2035,2028,2044,2056,2018,2033,2120
2083,2035,2027,2064,2172,2050,2040,2120
2066,2031,2028,2077,2199,2071,2023,2121
2075,2048,2048,2062,2146,2065,2031,2109
2071,2035,2048,2057,2101,2062,2035,2084
2051,2029,2064,2067,2088,2070,2027,2066
2027,2032,2075,2062,2027,2063,2043,2079
2036,2041,2089,2053,1962,2050,2053,2086
2020,2022,2068,2049,1943,2027,2035,2103
2048,2035,2069,2050,1938,1994,2022,2112
2042,2049,2064,2051,1938,1932,2008,2097
2045,2046,2059,2051,1964,1900,1995,2097
2056,2051,2060,2057,1999,1952,2017,2102
2068,2063,2055,2054,2006,2003,2014,2092
2060,2052,2054,2072,2051,2064,2053,2078
2036,2048,2065,2096,2170,2106,2042,2078
2038,2053,2067,2091,2180,2080,2032,2074
2047,2066,2075,2084,2114,2068,2041,2084
2053,2064,2067,2059,2005,2056,2046,2083
2054,2045,2058,2052,2054,2069,2044,2076
2068,2036,2059,2076,2116,2075,2035,2062
2061,2039,2079,2093,2123,2078,2041,2071
2066,2041,2085,2120,2137,2090,2040,2053
2081,2051,2082,2118,2094,2063,2024,2047
2087,2055,2114,2129,2073,2034,2028,2044
2076,2048,2128,2134,2053,2029,2017,2032
2053,2060,2149,2137,2034,2038,2030,2043
2054,2079,2146,2129,2020,2060,2011,2055
2056,2083,2120,2120,2011,2071,2001,2053
2025,2051,2086,2100,2010,2061,2005,2040
2017,2038,2056,2080,2009,2036,2012,2040
2036,2056,2065,2090,2071,2017,1986,2053
2049,2062,2072,2114,2222,2027,2013,2070
2049,2071,2068,2122,2294,2054,2035,2085
2046,2071,2062,2094,2309,2077,2048,2083
2040,2068,2043,2074,2282,2099,2041,2075
2037,2059,2026,2030,2253,2091,2045,2075
2039,2053,2012,2004,2207,2065,2064,2077
2036,2053,2012,1980,2136,2001,2036,2085
2049,2050,2012,1959,2017,1992,2041,2092
2055,2059,2025,1963,1886,2032,2045,2092
2051,2055,2023,1960,1782,2082,2049,2087
2049,2043,2010,1971,1795,2081,2074,2091
2058,2040,2012,1989,1913,2096,2081,2094
2050,2030,2007,2025,2024,2093,2062,2085
2053,2042,2016,2040,2078,2085,2073,2093
2045,2055,2025,2030,2039,2054,2064,2086
2043,2054,2014,1996,1956,2026,2057,2088
2049,2055,2022,1992,1971,2032,2046,2080
2051,2045,2012,2001,2056,2056,2057,2058
2039,2032,1996,1996,2037,2045,2052,2030
2028,2027,1995,2007,2041,2057,2040,2028
2033,2032,2012,2029,2056,2069,2052,2035
2036,2039,2009,2020,2020,2047,2054,2051
2039,2040,2001,2006,1990,2026,2048,2052
2033,2038,2004,2001,1975,2011,2048,2032
2019,2033,2020,2002,1993,2009,2046,2027
2014,2021,2033,2010,2005,2012,2035,2035
2019,2021,2039,2007,2000,2011,2030,2033
2021,2029,2039,2005,2009,2016,2033,2027
2013,2025,2041,2010,2038,2022,2036,2037
2001,2009,2042,2029,2067,2031,2055,2040
2004,2014,2053,2049,2124,2060,2048,2058
2022,2039,2075,2073,2184,2108,2064,2073
2044,2059,2098,2089,2220,2142,2085,2109
2065,2069,2108,2091,2182,2155,2066,2098
2062,2059,2105,2078,2134,2136,2042,2094
2064,2060,2095,2075,2113,2083,2034,2107
2069,2066,2088,2051,1988,2028,2008,2095
2052,2062,2082,2036,1926,2042,2024,2090
2051,2070,2089,2053,1993,2078,2046,2091
2036,2072,2084,2045,1973,2064,2040,2089
2025,2073,2081,2029,1914,2046,2036,2098
2031,2062,2064,2012,1842,2014,2050,2096
2027,2049,2052,2002,1814,1991,2037,2085
2031,2050,2053,2009,1859,2010,2058,2089
2040,2057,2056,2025,1978,2043,2058,2083
2039,2050,2050,2049,2123,2087,2034,2087
2044,2050,2058,2061,2175,2125,2032,2083
2037,2047,2044,2045,2181,2157,2050,2081
2037,2047,2044,2050,2206,2182,2056,2080
2036,2048,2060,2064,2193,2159,2060,2071
2036,2044,2059,2065,2129,2059,2049,2062
2035,2043,2062,2065,2109,2005,2041,2066
2035,2039,2064,2083,2127,2040,2056,2072
2044,2038,2055,2078,2112,2080,2063,2064
2027,2035,2043,2073,2109,2085,2055,2058
2027,2032,2044,2071,2107,2092,2040,2051
2029,2036,2046,2070,2113,2092,2049,2045
2034,2041,2041,2069,2145,2101,2037,2040
2012,2027,2024,2054,2139,2071,2041,2041
2012,2024,2012,2037,2068,2041,2047,2047
2019,2031,2025,2030,2050,2068,2033,2044
2020,2029,2024,2038,2065,2099,2034,2041
2015,2033,2024,2039,2072,2109,2024,2047
2025,2047,2023,2035,2070,2101,2041,2053
2020,2044,2021,2029,2059,2046,2043,2067
2020,2051,2031,2045,2071,1981,1985,2083
2033,2057,2034,2045,2084,1976,2005,2090
2029,2050,2023,2033,2069,2003,2025,2094
2026,2046,2018,2022,2069,2027,2011,2091
2030,2047,2017,2035,2061,2038,2010,2093
2032,2049,2019,2041,2061,2046,2024,2101
2029,2046,2013,2050,2066,2049,2020,2102
2030,2042,2007,2044,2058,2045,2013,2102
2026,2031,2001,2043,2057,2048,2017,2099
2022,2024,2002,2037,2060,2035,1995,2096
2017,2011,2012,2028,2076,2039,2022,2096
2015,2011,2032,2039,2087,2051,2037,2102
2026,2032,2059,2049,2091,2052,2047,2107
2031,2059,2075,2058,2083,2058,2038,2098
2031,2055,2074,2051,2071,2062,2044,2070
2014,2046,2076,2051,2064,2053,2036,2076
2023,2058,2080,2056,2078,2050,2045,2084
2020,2054,2079,2061,2074,2049,2048,2080
2018,2053,2076,2061,2078,2047,2053,2085
2026,2052,2076,2061,2089,2047,2062,2074
2025,2052,2071,2059,2099,2060,2036,2072
2028,2042,2057,2052,2076,2077,2041,2066
2022,2028,2046,2039,2080,2087,2034,2051
2024,2041,2052,2038,2084,2079,2028,2050
2026,2041,2049,2037,2075,2044,2024,2056
2025,2043,2055,2048,2083,2004,2028,2062
2022,2037,2055,2059,2100,2013,2025,2064
2028,2048,2061,2068,2123,2053,2037,2068
2038,2055,2065,2069,2120,2087,2050,2078
2038,2039,2045,2047,2083,2095,2059,2076
2033,2039,2040,2050,2094,2103,2048,2069
2032,2034,2038,2058,2085,2097,2042,2076
2029,2034,2036,2050,2035,2068,2028,2084
2031,2044,2040,2044,2004,2058,2031,2096
2036,2046,2035,2036,1995,2057,2024,2108
2038,2041,2033,2025,1966,2063,2037,2105
2044,2044,2032,2022,1932,2068,2042,2110
2047,2035,2030,2037,2014,2068,2056,2104
2046,2033,2030,2056,2087,2052,2039,2108
2030,2028,2029,2049,2099,2040,2054,2105
2020,2034,2034,2047,2121,2039,2021,2102
2018,2031,2034,2038,2104,2055,2042,2104
2017,2034,2037,2034,2014,2087,2035,2100
2016,2026,2045,2027,1979,2083,2034,2104
2020,2026,2046,2031,2008,2087,2037,2108
2039,2039,2047,2033,2002,2086,2022,2105
2030,2043,2056,2042,2032,2066,2057,2106
2034,2056,2075,2067,2049,2060,2057,2118
2038,2049,2077,2086,2080,2093,2073,2128
2041,2044,2068,2085,2108,2117,2067,2130
2047,2047,2058,2063,2098,2122,2060,2120
2050,2049,2052,2046,2071,2085,2048,2108
2037,2053,2042,2042,2003,2050,2044,2101
2029,2049,2043,2043,1974,2043,2041,2085
2036,2045,2040,2041,2018,2058,2045,2081
2032,2023,2029,2050,2078,2057,2039,2072
2034,2027,2025,2056,2123,2057,2019,2053
2027,2027,2030,2059,2190,2065,2028,2050
2021,2027,2033,2067,2216,2081,2044,2060
2022,2030,2020,2067,2189,2072,2009,2055
2017,2024,2003,2054,2156,2068,2021,2054
2007,2025,2000,2057,2173,2071,2002,2066
2012,2014,1997,2061,2180,2074,2022,2079
2004,2024,2020,2084,2155,2056,2004,2089
2007,2035,2032,2087,2128,2054,2029,2085
2005,2020,2038,2076,2126,2047,2017,2084
2011,2021,2045,2092,2124,2010,2014,2096
2021,2029,2054,2095,2118,1982,2011,2115
2025,2026,2049,2091,2105,2016,2064,2131
2030,2026,2051,2100,2035,2064,2058,2142
2039,2031,2042,2062,1881,2051,2061,2140
2037,2035,2038,2046,1855,2023,2027,2131
2031,2032,2036,2043,1937,2011,2006,2124
2023,2038,2053,2068,2056,2000,2015,2124
2021,2043,2064,2092,2110,2006,2031,2140
2037,2054,2099,2115,2137,2028,2048,2142
2033,2059,2104,2104,2168,2062,2040,2131
2030,2055,2090,2084,2209,2125,2050,2132
2030,2062,2080,2065,2212,2160,2066,2136
2037,2063,2064,2052,2149,2151,2066,2137
2045,2073,2067,2009,1978,2098,2034,2131
2051,2072,2041,1978,1900,2068,2034,2137
2044,2066,2035,1989,1988,2100,2030,2136
2038,2067,2030,2021,2088,2102,2028,2139
2037,2068,2045,2030,2133,2102,2026,2135
2043,2081,2078,2051,2136,2121,2015,2133
2054,2093,2092,2052,2071,2092,2029,2127
2047,2087,2084,2049,2077,2077,2050,2129
2047,2081,2071,2055,2132,2079,2037,2122
2043,2080,2062,2056,2155,2069,2029,2131
2046,2074,2059,2045,2139,2065,2031,2132
2054,2070,2055,2042,2149,2077,2026,2127
2058,2066,2064,2048,2135,2056,2011,2105
2040,2045,2052,2045,2127,2012,2016,2099
2018,2037,2050,2043,2182,2009,2022,2090
2013,2035,2048,2024,2088,1995,2003,2089
2010,2043,2041,2011,1916,2001,1985,2103
2017,2053,2052,2041,1958,2040,2020,2114
2017,2062,2057,2053,2038,2077,2006,2129
2020,2068,2061,2063,2070,2093,2045,2142
2024,2066,2056,2062,2067,2090,2059,2152
2032,2066,2048,2060,2056,2083,2064,2157
2038,2056,2051,2067,2042,2073,2058,2166
2042,2052,2056,2060,2022,2043,2045,2165
2046,2054,2058,2057,2002,2027,2054,2158
2045,2054,2064,2059,2025,2020,2041,2153
2050,2049,2060,2061,2062,2036,2059,2147
2035,2040,2053,2078,2096,2054,2051,2159
2041,2032,2059,2078,2073,2056,2054,2163
2054,2031,2051,2072,2060,2056,2023,2155
2044,2026,2039,2067,2063,2052,2012,2143
2024,2024,2031,2071,2073,2060,2030,2153
2021,2042,2043,2073,2085,2064,2020,2147
1999,2052,2058,2080,2091,2072,2033,2137
2000,2056,2059,2084,2095,2079,2032,2150
2021,2055,2044,2077,2077,2066,2026,2154
2034,2043,2029,2068,2074,2053,2013,2155
2037,2042,2015,2046,2050,2040,2006,2140
2032,2034,2004,2037,2059,2055,2019,2135
2021,2031,2010,2054,2104,2069,2028,2130
2029,2035,2005,2050,2096,2078,2041,2133
2034,2029,1982,2027,2072,2089,2032,2127
2042,2018,1964,2021,2064,2088,2028,2127
2039,2020,1970,2034,2080,2088,2034,2114
2037,2038,1999,2058,2105,2090,2024,2100
2034,2052,2029,2074,2114,2087,2009,2100
2021,2043,2019,2072,2118,2074,2000,2099
2013,2030,2012,2066,2123,2090,2021,2107
2007,2043,2023,2069,2126,2120,2027,2126
2020,2062,2036,2073,2106,2113,2041,2138
2033,2066,2047,2072,2098,2103,2036,2138
2043,2079,2064,2072,2089,2086,2016,2147
2046,2076,2078,2062,2055,2044,2027,2157
2053,2073,2088,2054,2000,1995,2041,2176
2053,2076,2100,2059,1970,2007,2033,2168
2037,2072,2097,2053,1994,2019,2031,2145
2026,2063,2082,2052,2025,2039,2025,2153
2042,2043,2069,2029,2056,2043,2012,2165
2035,2037,2058,2030,2087,2065,2030,2169
2050,2058,2077,2060,2137,2095,2020,2167
2058,2081,2084,2088,2164,2106,2043,2178
2048,2074,2068,2086,2124,2072,2029,2180
2037,2067,2065,2091,2123,2054,2023,2187
2031,2068,2070,2101,2113,2060,2009,2186
2033,2066,2071,2101,2106,2066,2020,2178
2033,2075,2085,2104,2105,2066,2017,2158
2031,2064,2071,2076,2027,2052,2023,2153
2029,2061,2069,2060,1948,2060,2026,2164
2035,2067,2067,2048,1924,2079,2039,2171
2046,2067,2054,2038,1903,2077,2039,2165
2049,2063,2054,2040,1899,2046,2044,2169
2051,2068,2054,2060,1943,2023,2042,2152
2049,2062,2049,2066,2039,2026,2011,2141
2043,2058,2039,2051,2098,2056,2026,2140
2039,2046,2017,2027,2040,2072,2041,2148
2039,2038,2011,2023,1990,2055,2028,2136
2032,2041,2023,2040,2078,2052,2036,2127
2042,2056,2052,2074,2147,2067,2039,2124
2042,2067,2063,2060,2096,2064,2031,2090
2007,2062,2056,2031,2054,2052,2015,2093
2011,2042,2040,2020,2053,2045,2025,2124
2032,2035,2042,2018,2073,2054,2026,2133
2042,2053,2065,2032,2077,2065,2030,2123
2032,2052,2071,2049,2074,2080,2015,2132
2032,2058,2063,2051,2063,2089,2034,2129
2039,2060,2062,2056,2055,2106,2045,2145
2050,2070,2066,2059,2040,2104,2041,2158
2055,2076,2061,2054,2042,2080,2038,2162
2044,2058,2050,2050,2038,2024,2012,2160
2032,2046,2047,2047,2048,2003,2012,2156
2039,2046,2060,2051,2054,2025,2021,2162
2038,2056,2071,2057,2051,2048,2022,2167
2045,2054,2060,2056,2047,2058,2023,2153
2028,2038,2046,2048,2039,2046,2003,2137
2011,2028,2030,2040,2039,2048,2009,2153
2014,2019,2024,2044,2055,2055,2024,2161
2016,2026,2028,2054,2089,2055,2030,2159
2021,2035,2038,2061,2120,2064,2024,2175
2037,2049,2053,2075,2137,2079,2046,2191
2060,2067,2057,2080,2110,2082,2060,2192
2057,2068,2050,2072,2099,2081,2066,2169
2047,2064,2039,2065,2099,2074,2054,2157
2054,2060,2040,2064,2088,2066,2042,2158
2042,2044,2036,2063,2070,2060,2044,2157
2041,2041,2033,2062,2041,2058,2065,2154
2027,2037,2050,2052,2008,2047,2052,2150
2005,2046,2060,2062,2044,2056,2049,2153
2033,2075,2072,2069,2072,2068,2061,2161
2052,2091,2081,2070,2062,2066,2048,2147
2059,2089,2089,2071,2038,2062,2050,2138
2066,2087,2084,2069,2020,2060,2039,2130
2062,2066,2068,2061,1989,2048,2041,2122
2058,2046,2050,2046,2000,2034,2030,2114
2040,2014,2032,2035,2025,2019,2016,2102
2022,2007,2036,2045,2047,2028,2016,2105
2021,2034,2053,2063,2051,2050,2019,2112
2024,2046,2059,2071,2115,2083,2023,2116
2027,2051,2060,2075,2184,2105,2034,2129
2037,2056,2050,2082,2221,2113,2048,2139
2041,2052,2044,2084,2207,2104,2036,2138
2036,2036,2032,2081,2195,2097,2037,2147
2043,2034,2050,2113,2236,2103,2063,2157
2057,2039,2065,2117,2199,2091,2042,2160
2068,2048,2079,2106,2113,2056,2033,2162
2064,2047,2076,2075,1946,1991,2022,2162
2051,2047,2064,2056,1898,1984,2036,2159
2046,2048,2064,2072,1960,2012,2029,2176
2061,2053,2065,2071,1982,2014,2037,2176
2056,2040,2056,2065,2033,2027,2030,2180
2042,2022,2025,2056,2060,2019,2031,2173
2029,2010,2017,2055,2062,2027,2039,2158
2016,2026,2020,2065,2069,2058,2043,2172
2033,2048,2031,2074,2091,2085,2023,2135
2007,2043,2022,2070,2109,2088,2028,2116
2011,2043,2020,2060,2093,2081,2027,2125
2028,2034,2015,2063,2089,2074,2041,2158
2036,2031,2029,2043,1951,2041,2019,2164
2044,2043,2030,2012,1796,2022,2030,2166
2060,2054,2030,2032,1897,2038,2041,2154
2053,2059,2025,2033,1972,2044,2064,2133
2042,2058,2029,2037,1985,2042,2059,2124
2038,2059,2032,2037,1986,2041,2048,2125
2040,2063,2045,2036,1994,2055,2035,2129
2056,2068,2048,2041,1995,2061,2039,2132
2069,2077,2050,2044,2013,2053,2041,2125
2082,2089,2057,2045,2052,2045,2036,2108
2065,2080,2059,2052,2051,2032,2017,2086
2037,2055,2037,2042,2005,2020,2021,2081
2032,2043,2032,2043,2002,2020,2011,2089
2031,2056,2045,2068,2052,2060,2030,2104
2034,2063,2044,2068,2072,2100,2033,2101
2038,2058,2044,2044,2028,2089,2033,2096
2040,2053,2034,2013,1976,2066,2003,2094
2038,2051,2029,1999,1917,2055,1994,2090
2040,2053,2030,2000,1921,1992,1995,2119
2052,2064,2057,2050,2022,1967,2023,2148
2060,2076,2060,2062,2064,1983,2037,2146
2056,2068,2054,2045,2030,2009,2027,2141
2061,2052,2042,2048,2066,2020,2059,2151
2057,2045,2041,2081,2106,2029,2068,2171
2076,2050,2045,2099,2130,2045,2079,2170
2075,2045,2036,2090,2131,2059,2052,2163
2064,2040,2027,2074,2126,2080,2034,2145
2044,2023,2016,2069,2112,2075,2021,2114
2017,2011,2000,2057,2090,2072,1997,2102
2021,2015,2001,2054,2062,2084,2009,2102
2026,2029,2011,2045,2044,2085,2016,2097
2028,2040,2018,2048,2036,2092,2054,2119
2045,2055,2028,2054,2051,2095,2060,2136
2056,2069,2036,2064,2056,2074,2059,2130
2061,2068,2041,2073,2032,2014,2044,2124
2055,2064,2044,2078,2005,2012,2037,2115
2046,2058,2043,2086,2059,2042,2050,2116
2057,2065,2043,2089,2074,2084,2060,2115
2051,2053,2039,2082,2070,2108,2021,2087
2031,2042,2026,2072,2057,2112,2048,2086
2043,2050,2041,2068,2047,2116,2072,2094
2054,2055,2058,2052,2008,2102,2071,2081
2054,2051,2053,2035,1995,2067,2033,2070
2040,2043,2038,2031,2026,2024,2032,2067
2025,2031,2022,2028,2024,1999,2014,2070
2027,2027,2021,2036,2042,2005,2031,2077
2042,2057,2051,2073,2114,2044,2055,2085
2053,2084,2065,2083,2157,2059,2046,2087
2052,2080,2063,2075,2116,2043,2043,2103
2061,2066,2057,2073,2048,2031,2038,2118
2064,2067,2062,2088,2065,2024,2046,2112
2063,2080,2064,2092,2075,2012,2040,2112
2069,2078,2055,2086,2064,2018,2025,2133
2083,2080,2043,2080,2069,2029,2039,2141
2097,2076,2045,2078,2084,2039,2043,2127
2086,2071,2050,2069,2086,2056,2059,2129
2085,2070,2053,2077,2063,2072,2069,2121
2064,2063,2063,2079,2020,2056,2052,2127
2058,2065,2075,2068,1922,2030,2051,2134
2037,2060,2084,2043,1879,2008,2038,2117
2021,2067,2071,2035,1980,2002,2020,2099
2014,2056,2060,2043,2082,2036,2027,2107
2035,2048,2056,2069,2102,2054,2054,2123
2046,2058,2067,2099,2123,2080,2059,2125
2059,2053,2088,2120,2114,2097,2068,2118
2061,2049,2098,2133,2095,2091,2091,2132
2067,2049,2105,2137,2079,2078,2091,2121
2056,2037,2102,2134,2071,2067,2080,2109
2043,2037,2084,2125,2057,2051,2055,2086
2030,2036,2072,2128,2054,2054,2060,2077
2032,2044,2070,2129,2065,2067,2082,2085
2040,2051,2059,2128,2062,2074,2085,2092
2041,2055,2036,2098,2035,2049,2061,2084
2054,2053,2016,2076,2020,2027,2028,2072
2056,2063,2010,2056,2019,2028,2030,2052
2044,2055,1995,2047,2053,2040,2027,2066
2044,2044,1986,2035,2074,2055,2028,2074
2052,2029,1981,2012,2042,2041,2015,2074
2036,2031,1973,1989,2002,2042,2017,2064
2027,2031,1978,1985,1988,2048,2028,2057
2025,2033,1968,1965,2012,2045,2019,2066
2031,2014,1957,1955,2015,2053,2029,2071
2032,2013,1972,1959,2004,2055,2040,2072
2048,2028,2003,1991,2038,2069,2042,2088
2050,2037,2023,2027,2097,2057,2023,2106
2069,2044,2040,2064,2140,2056,2056,2119
2078,2052,2046,2075,2109,2030,2049,2119
2086,2056,2048,2061,2043,2011,2049,2120
2088,2059,2043,2045,1966,1999,2050,2119
2083,2047,2038,2041,1956,2005,2050,2104
2063,2034,2036,2053,2021,2022,2024,2100
2046,2040,2033,2068,2049,2048,2056,2106
2026,2053,2042,2076,2064,2068,2064,2124
2035,2056,2044,2068,2059,2060,2070,2127
2029,2051,2029,2050,2024,2040,2051,2117
2024,2029,2020,2045,2016,2033,2051,2119
2037,2028,2008,2054,2040,2037,2049,2113
2027,2020,1991,2054,2090,2045,2051,2122
2055,2048,2014,2065,2109,2055,2061,2121
2061,2051,2014,2072,2097,2056,2039,2116
2054,2042,2024,2069,2077,2052,2056,2107
2049,2052,2021,2082,2075,2060,2075,2104
2048,2061,2035,2095,2065,2063,2072,2109
2056,2059,2044,2097,2052,2068,2076,2106
2044,2054,2053,2093,2028,2057,2074,2091
2040,2035,2047,2078,2011,2044,2064,2081
2028,2014,2034,2068,2001,2037,2051,2061
2021,2015,2034,2061,2012,2047,2048,2055
2028,2029,2043,2052,2018,2046,2051,2058
2031,2036,2044,2044,2020,2035,2021,2053
2039,2047,2049,2041,2052,2043,2031,2049
2037,2046,2043,2043,2100,2058,2051,2058
2033,2040,2042,2036,2103,2060,2064,2062
2043,2055,2058,2039,2092,2056,2067,2069
2054,2062,2060,2054,2077,2057,2069,2078
2054,2066,2064,2056,2077,2054,2069,2079
2054,2067,2062,2055,2068,2051,2057,2078
2062,2071,2063,2056,2053,2050,2032,2081
2063,2070,2063,2056,2052,2045,2056,2099
2068,2068,2059,2052,2040,2042,2055,2103
2080,2072,2054,2053,2033,2039,2060,2115
2075,2054,2038,2042,2029,2037,2058,2111
2074,2060,2035,2049,2048,2042,2072,2102
2047,2055,2029,2041,2038,2046,2060,2069
2010,2043,2013,2037,2035,2040,2075,2090
2031,2037,2010,2031,2019,2025,2056,2111
2039,2034,2000,2032,2019,2022,2042,2110
2045,2022,1989,2026,2026,2021,2035,2090
2021,1997,1983,2024,2044,2022,2014,2061
2006,2004,2011,2033,2066,2036,2025,2066
2028,2040,2036,2044,2057,2039,2034,2076
2038,2047,2050,2045,2051,2051,2050,2100
2064,2076,2078,2066,2062,2071,2056,2112
2085,2096,2099,2071,2065,2073,2085,2111
2078,2102,2096,2065,2068,2069,2064,2104
2067,2087,2085,2060,2087,2067,2076,2089
2058,2075,2075,2068,2107,2067,2066,2079
2062,2071,2063,2070,2100,2076,2072,2083
2056,2058,2049,2061,2094,2082,2082,2085
2053,2043,2029,2050,2087,2079,2085,2082
2055,2025,2012,2046,2090,2076,2077,2069
2055,2012,2003,2049,2081,2062,2036,2055
2051,2019,2017,2057,2080,2057,2051,2045
2054,2026,2027,2065,2055,2040,2040,2043
2037,2024,2033,2072,2041,2024,2033,2011
2017,2017,2045,2086,2065,2040,2025,2012
2011,2025,2056,2101,2093,2060,2044,2029
2023,2038,2055,2095,2075,2059,2066,2041
2035,2052,2059,2085,2064,2049,2046,2046
2043,2062,2052,2089,2072,2046,2057,2064
2065,2049,2058,2098,2080,2045,2051,2073
2075,2058,2067,2107,2061,2041,2041,2085
2082,2066,2091,2119,2014,2027,2052,2085
2075,2070,2094,2129,2017,2036,2047,2080
2064,2068,2086,2132,2044,2045,2050,2079
2059,2057,2077,2116,2058,2047,2052,2079
2057,2055,2064,2094,2056,2039,2045,2079
2062,2057,2067,2089,2062,2040,2047,2087
2066,2073,2080,2092,2057,2045,2037,2087
2074,2070,2078,2075,2059,2040,2053,2095
2070,2052,2064,2057,2060,2037,2043,2094
2058,2047,2055,2054,2044,2042,2044,2083
2047,2039,2080,2069,2024,2051,2048,2088
2060,2066,2125,2098,2029,2060,2062,2095
2076,2072,2133,2110,2038,2053,2063,2098
2083,2071,2110,2100,2040,2043,2051,2088
2082,2057,2099,2099,2052,2048,2071,2076
2069,2051,2104,2113,2058,2052,2041,2073
2071,2047,2103,2123,2050,2038,2027,2062
2060,2061,2111,2137,2066,2048,2060,2054
2051,2068,2111,2144,2081,2057,2056,2054
2058,2079,2112,2147,2089,2060,2062,2052
2067,2090,2096,2131,2098,2062,2064,2043
2065,2076,2071,2108,2084,2052,2040,2034
2056,2055,2044,2075,2062,2039,2055,2038
2048,2050,2030,2058,2042,2032,2030,2029
2054,2053,2032,2050,2021,2026,2052,2028
2050,2048,2026,2033,2027,2024,2050,2027
2040,2049,2033,2038,2026,2029,2028,2004
2030,2068,2064,2054,2028,2031,2060,2010
2038,2074,2059,2042,2021,2042,2065,2035
2046,2040,2025,2014,2033,2044,2065,2051
2052,2029,2006,2006,2027,2043,2030,2060
2065,2042,2019,1996,2021,2044,2037,2082
2083,2065,2051,1996,2018,2041,2050,2070
2082,2070,2066,2008,2011,2043,2069,2068
2082,2069,2064,2025,2029,2049,2057,2060
2066,2055,2064,2045,2029,2048,2075,2070
2059,2062,2068,2065,2053,2054,2055,2076
2049,2064,2055,2070,2086,2045,2060,2068
2033,2064,2036,2072,2100,2040,2053,2066
2043,2064,2013,2048,2097,2039,2052,2082
2066,2053,1995,2019,2088,2038,2061,2076
2068,2045,1988,2005,2068,2043,2052,2071
2061,2040,1985,2004,2056,2049,2050,2061
2037,2036,1999,2028,2067,2075,2051,2061
2018,2047,2005,2017,1998,2088,2068,2066
2023,2038,1986,1976,1867,2075,2058,2065
2041,2043,1992,1964,1887,2086,2061,2074
2044,2050,2009,1977,1931,2092,2064,2070
2054,2051,2040,1990,1974,2031,2052,2074
2070,2061,2077,2021,2031,1976,2051,2077
2068,2066,2088,2041,2080,2005,2072,2068
2056,2062,2092,2061,2128,2058,2085,2061
2061,2073,2088,2074,2174,2096,2090,2048
2053,2064,2078,2067,2160,2101,2077,2049
2050,2049,2060,2053,2101,2084,2067,2037
2044,2045,2045,2049,2044,2072,2061,2026
2037,2040,2034,2052,2039,2069,2072,2020
2035,2043,2028,2065,2056,2034,2082,2034
2043,2052,2037,2069,2042,1974,2061,2036
2044,2040,2024,2047,2002,1969,2022,2033
2046,2040,2032,2025,1917,1962,2020,2022
2038,2051,2053,2007,1817,1964,2013,2024
2042,2064,2076,2031,1891,1989,2033,2023
2053,2074,2091,2060,2008,2028,2044,2030
2059,2079,2096,2083,2114,2061,2060,2043
2057,2074,2096,2085,2128,2090,2074,2056
2055,2065,2086,2081,2101,2083,2064,2049
2046,2061,2079,2064,2064,2060,2057,2047
2046,2066,2084,2082,2057,2064,2042,2051
2051,2060,2100,2089,2043,2048,2047,2053
2040,2048,2102,2072,2015,2015,2039,2049
2036,2055,2110,2076,2003,2008,2052,2061
2054,2074,2124,2089,2009,2017,2049,2063
2053,2070,2115,2097,2049,2027,2064,2069
2045,2053,2098,2110,2140,2058,2085,2073
2054,2046,2083,2108,2156,2053,2062,2064
2042,2029,2059,2083,2054,2041,2058,2056
2041,2035,2055,2078,2005,2053,2051,2067
2057,2051,2051,2075,1999,2054,2047,2055
2051,2049,2043,2069,2014,2055,2040,2055
2053,2044,2043,2071,2024,2034,2055,2060
2050,2043,2047,2079,2041,2005,2059,2064
2048,2045,2048,2074,2053,2009,2057,2062
2053,2061,2079,2074,2056,2028,2055,2055
2060,2083,2101,2069,2051,2038,2071,2048
2058,2089,2105,2069,2047,2044,2060,2043
2053,2082,2098,2065,2050,2049,2065,2039
2062,2075,2080,2060,2043,2045,2068,2041
2069,2068,2077,2064,2051,2040,2072,2043
2078,2064,2078,2080,2051,2047,2058,2043
2081,2064,2077,2089,2056,2033,2026,2038
2081,2064,2073,2092,2058,2036,2037,2018
2073,2055,2069,2103,2058,2036,2033,2004
2057,2037,2048,2098,2051,2036,2029,2003
2057,2033,2003,2090,2050,2042,2026,2002
2059,2056,1992,2087,2044,2043,2052,2003
2052,2054,1992,2064,2042,2043,2051,2019
2030,2046,1966,2033,2030,2036,2053,2020
2032,2041,1957,2014,2025,2044,2056,2040
2046,2050,1968,2017,2037,2057,2071,2052
2059,2078,2009,2036,2052,2071,2078,2065
2074,2098,2033,2035,2050,2070,2073,2061
2070,2097,2037,2022,2046,2068,2070,2070
2066,2087,2017,2001,2041,2058,2051,2063
2070,2081,2003,1984,2037,2049,2058,2070
2066,2068,2001,1980,2034,2045,2034,2063
2065,2058,2009,1978,2027,2042,2041,2055
2055,2050,2015,1974,2034,2026,2034,2047
2045,2042,2024,1967,2029,2021,2033,2050
2039,2034,2028,1968,2032,2020,2008,2052
2039,2043,2069,2003,2047,2039,2018,2059
2044,2064,2099,2028,2055,2065,2060,2064
2052,2064,2103,2047,2062,2071,2077,2063
2049,2065,2084,2046,2064,2082,2086,2058
2057,2069,2076,2052,2065,2076,2070,2065
2070,2070,2057,2060,2071,2059,2086,2066
2060,2058,2039,2062,2063,2056,2078,2063
2065,2042,2012,2056,2059,2057,2069,2055
2054,2026,1981,2035,2048,2059,2061,2038
2043,2013,1973,2021,2045,2035,2055,2032
2045,2022,1986,2024,2044,2016,2070,2030
2049,2045,2023,2034,2022,2023,2074,2025
2050,2056,2052,2034,2006,2029,2075,2015
2056,2061,2054,2030,1996,2025,2078,2003
2056,2068,2051,2036,1993,2038,2050,2004
2058,2064,2050,2041,2025,2053,2059,2000
2048,2057,2055,2053,2065,2069,2066,2000
2046,2048,2064,2064,2073,2073,2060,2010
2051,2058,2079,2069,2071,2080,2053,2008
2043,2064,2094,2059,2064,2070,2048,2007
2052,2061,2095,2060,2054,2057,2065,2018
2055,2064,2111,2060,2061,2052,2069,2033
2057,2076,2106,2062,2064,2048,2069,2037
2062,2070,2097,2061,2071,2054,2077,2040
2063,2073,2100,2062,2065,2047,2077,2046
2062,2078,2099,2073,2060,2046,2079,2065
2068,2083,2097,2084,2060,2050,2081,2067
2078,2081,2098,2083,2053,2041,2085,2065
2071,2074,2096,2092,2046,2027,2062,2063
2062,2067,2092,2090,2047,2024,2065,2053
2057,2062,2100,2086,2046,2026,2073,2043
2051,2061,2100,2089,2043,2035,2055,2051
2051,2057,2079,2088,2040,2039,2055,2053
2058,2053,2065,2088,2047,2052,2051,2037
2042,2053,2075,2096,2064,2070,2044,2050
2048,2065,2096,2110,2078,2067,2051,2049
2059,2066,2109,2110,2075,2062,2046,2041
2063,2064,2103,2100,2067,2058,2065,2036
2066,2061,2097,2099,2061,2051,2041,2034
2065,2060,2090,2092,2061,2042,2054,2032
2066,2055,2067,2082,2060,2037,2052,2026
2059,2044,2054,2073,2053,2035,2052,2015
2061,2045,2055,2074,2058,2045,2048,2019
2064,2051,2067,2087,2074,2055,2052,2020
2065,2053,2072,2097,2078,2061,2064,2015
2065,2046,2065,2092,2074,2050,2054,2008
2061,2047,2057,2083,2052,2036,2036,2013
2065,2052,2046,2073,2064,2049,2048,2013
2056,2057,2062,2065,2078,2064,2051,1992
2049,2065,2070,2062,2094,2066,2038,1983
2059,2061,2073,2057,2096,2065,2035,1990
2064,2058,2069,2068,2096,2070,2044,2002
2067,2059,2066,2057,2079,2074,2067,2005
2055,2059,2058,2057,2060,2074,2047,2015
2041,2063,2064,2052,2023,2078,2047,2018
2044,2063,2060,2035,1963,2074,2048,2026
2054,2060,2053,2014,1909,2054,2032,2027
2056,2057,2044,2008,1882,2037,2031,2022
2056,2054,2049,2040,1914,1997,2032,2045
2066,2057,2062,2093,2013,1977,2053,2056
2068,2066,2062,2128,2075,2010,2051,2058
2061,2054,2065,2133,2089,2047,2070,2050
2052,2056,2076,2145,2088,2074,2067,2055
2054,2053,2078,2144,2057,2065,2061,2058
2063,2058,2090,2130,2040,2059,2043,2066
2067,2060,2093,2113,2025,2048,2052,2052
2058,2040,2080,2097,2011,2023,2034,2049
2046,2023,2066,2091,1992,2008,2033,2037
2051,2035,2063,2092,1995,2011,2038,2046
2049,2032,2038,2081,1997,2003,2024,2035
2054,2033,2026,2078,2029,2015,2030,2029
2056,2050,2023,2106,2073,2027,2019,2023
2058,2045,2014,2137,2070,2042,2027,2024
2056,2061,2032,2151,2080,2056,2049,2030
2068,2080,2035,2148,2097,2070,2052,2015
2065,2073,2020,2101,2109,2082,2043,1994
2052,2060,2002,2066,2115,2084,2049,2003
2060,2069,2013,2040,2123,2081,2064,2015
2074,2069,2016,2008,2100,2083,2081,2016
2070,2058,2036,1989,2079,2092,2062,2009
2059,2048,2043,1953,2056,2078,2054,1986
2048,2046,2041,1935,2026,2061,2036,1981
2045,2046,2054,1947,2006,2059,2032,1967
2032,2036,2050,1945,1974,2040,2025,1964
2039,2043,2054,1951,1961,2024,2020,1975
2053,2064,2082,1974,1984,2028,2049,1994
2061,2080,2090,1997,2004,1998,2051,2015
2073,2086,2084,2023,2049,1991,2047,2029
2068,2077,2062,2049,2106,2030,2078,2040
2073,2069,2048,2069,2148,2080,2078,2035
2072,2066,2031,2061,2120,2097,2062,2030
2064,2060,2021,2046,2074,2096,2062,2027
2063,2058,2022,2029,2036,2080,2058,2033
2061,2056,2021,2016,2024,2061,2053,2034
2061,2062,2036,2020,2027,1983,2027,2037
2067,2074,2052,2032,2056,1927,2027,2060
2079,2083,2060,2035,2056,1949,2041,2060
2078,2073,2045,2023,2029,1977,2060,2058
2077,2060,2034,2012,2024,2031,2050,2043
2068,2058,2033,2018,2029,2064,2066,2033
2053,2041,2020,2024,2050,2081,2082,2031
2051,2036,2017,2020,2054,2094,2095,2041
2069,2049,2030,2028,2044,2087,2076,2038
2064,2055,2037,2019,2038,2067,2056,2037
2065,2060,2040,2030,2031,2051,2056,2026
2061,2057,2041,2019,2038,2054,2052,2024
2059,2052,2036,2002,2037,2086,2051,2010
2054,2046,2032,1989,2031,2090,2067,2005
2057,2038,2027,1987,2061,2089,2051,2002
2053,2043,2031,2013,2090,2092,2058,2004
2065,2060,2036,2044,2102,2056,2060,2009
2078,2068,2035,2064,2111,2021,2065,2015
2063,2056,2030,2065,2082,2016,2066,2004
2059,2047,2037,2066,2008,2015,2054,2000
2066,2055,2033,2054,1924,2021,2054,1995
2067,2048,2034,2043,1968,2015,2049,1984
2049,2036,2021,2029,2008,2005,2021,1962
2045,2028,2027,2047,2064,2029,2034,1965
2056,2045,2032,2070,2088,2061,2052,1976
2055,2037,2018,2066,2054,2060,2057,1984
2051,2021,2010,2052,2044,2048,2054,1979
2045,2019,2011,2053,2047,2039,2060,1992
2043,2026,2005,2036,2040,2029,2045,1996
2053,2032,2011,2040,2089,2032,2043,2005
2063,2041,2028,2071,2133,2048,2037,2011
2053,2039,2022,2071,2110,2042,2062,2011
2054,2023,2020,2062,2074,2042,2053,2009
2045,2014,1996,2052,2058,2041,2058,2013
2046,2002,1977,2041,2044,2038,2043,2007
2049,2011,1978,2055,2059,2043,2055,2017
2057,2042,2010,2061,2065,2044,2068,2022
2072,2052,2010,2056,2061,2044,2055,2036
2077,2052,1997,2049,2048,2042,2042,2031
2064,2039,1981,2034,2026,2038,2036,2030
2058,2032,1975,2027,2035,2041,2027,2027
2064,2043,1997,2037,2071,2050,2071,2030
2067,2053,2017,2042,2083,2053,2063,2032
2078,2064,2026,2029,2087,2061,2060,2029
2087,2068,2044,2039,2088,2069,2055,2024
2079,2071,2054,2039,2017,2051,2055,2036
2081,2068,2049,2035,1986,2047,2050,2026
2072,2071,2057,2046,2018,2055,2032,2023
2078,2084,2076,2060,2034,2049,2068,2020
2085,2097,2101,2067,2043,2046,2068,2012
2091,2101,2117,2075,2044,2042,2047,1999
2091,2102,2112,2069,2049,2045,2061,1995
2084,2090,2094,2065,2044,2043,2067,1989
2077,2074,2073,2048,2036,2030,2072,1978
2071,2070,2065,2032,2002,2027,2056,1982
2074,2075,2074,2019,2000,2018,2045,1985
2070,2073,2076,2014,1999,2008,2024,1988
2078,2072,2074,2017,2001,2020,2042,2003
2091,2089,2083,2021,2013,2029,2052,2010
2091,2092,2074,2029,2019,2048,2058,2009
2085,2079,2062,2039,2011,2058,2053,2016
2080,2068,2052,2049,2015,2058,2062,2013
2073,2063,2051,2054,2013,2059,2055,2024
2082,2075,2061,2058,2016,2043,2052,2031
2079,2079,2053,2062,2023,2015,2045,2041
2078,2073,2050,2058,2027,2007,2024,2037
2077,2076,2053,2060,2034,2030,2067,2030
2077,2072,2048,2058,2036,2043,2073,2038
2090,2057,2031,2054,2036,2043,2068,2052
2094,2049,2018,2063,2036,2049,2089,2055
2092,2042,2003,2058,2032,2046,2064,2051
2081,2034,1998,2060,2025,2039,2043,2040
2073,2032,2003,2064,2033,2024,2043,2032
2070,2029,1999,2068,2063,2024,2046,2039
2088,2045,2015,2082,2095,2044,2041,2018
2076,2050,2012,2088,2096,2045,2028,2002
2060,2046,2018,2090,2094,2045,2056,2023
2078,2064,2036,2092,2096,2048,2058,2022
2070,2067,2034,2094,2100,2049,2066,2022
2062,2061,2019,2086,2093,2053,2065,2029
2063,2056,2025,2097,2079,2049,2053,2021
2077,2068,2040,2098,2070,2047,2051,2016
2079,2071,2043,2083,2017,2031,2056,2004
2072,2059,2031,2042,1905,2020,2046,1999
2068,2054,2037,2029,1923,2019,2045,1993
2077,2052,2054,2033,1987,2029,2052,1981
2074,2056,2068,2037,2021,2039,2060,1982
2076,2071,2081,2040,2037,2051,2070,1986
2089,2091,2083,2058,2056,2050,2066,1991
2085,2084,2073,2058,2053,2044,2052,1987
2076,2068,2047,2049,2045,2050,2057,1986
2074,2060,2030,2040,2042,2051,2066,1995
2072,2061,2033,2022,2020,2047,2077,2002
2072,2059,2028,2017,2025,2041,2061,1999
2070,2057,2028,2002,2009,2041,2050,2015
2074,2057,2036,2011,2010,2039,2057,2009
2076,2061,2057,2023,2008,2037,2052,2026
2078,2071,2084,2039,2026,2040,2072,2034
2087,2084,2104,2043,2037,2040,2068,2035
2089,2090,2104,2045,2037,2043,2074,2035
2092,2078,2098,2042,2035,2041,2059,2037
2082,2073,2078,2040,2030,2031,2040,2037
2076,2062,2073,2038,2021,2028,2053,2029
2068,2054,2057,2027,2022,2031,2050,2032
2064,2047,2042,2031,2022,2036,2049,2036
2070,2058,2047,2044,2025,2033,2050,2040
2070,2050,2030,2041,2027,2035,2045,2036
2064,2042,2031,2043,2029,2038,2056,2037
2073,2059,2043,2080,2041,2046,2058,2036
2075,2066,2058,2101,2051,2054,2059,2034
2075,2063,2056,2111,2053,2041,2060,2023
2073,2053,2055,2108,2026,2024,2042,2022
2071,2058,2057,2098,2016,2009,2043,2025
2067,2060,2049,2095,2011,2011,2043,2020
2065,2059,2043,2082,2008,2028,2046,2002
2057,2048,2039,2071,2038,2062,2044,1999
2064,2054,2046,2084,2096,2086,2063,2006
2073,2058,2037,2079,2114,2094,2081,1997
2069,2049,2028,2057,2098,2087,2050,1990
2059,2039,2021,2037,2089,2077,2049,1987
2055,2037,2025,2030,2071,2068,2041,1983
2051,2030,2010,2009,2057,2061,2034,1974
2051,2023,1980,1990,2033,2048,2018,1966
2043,2023,1995,1989,2030,2048,2022,1970
2054,2047,2041,2011,2038,2056,2044,1991
2076,2080,2074,2028,2043,2059,2067,1992
2080,2087,2086,2047,2039,2060,2064,2002
2078,2096,2092,2056,2043,2054,2052,2011
2084,2084,2063,2039,2038,2045,2059,2014
2082,2071,2037,2010,2027,2045,2062,2013
2075,2068,2029,1998,2032,2057,2065,2028
2079,2063,2034,1988,2021,2066,2065,2032
2076,2057,2028,1972,1982,2071,2059,2021
2070,2045,2014,1962,1940,2046,2048,2010
2057,2028,2004,1948,1895,2028,2029,2005
2053,2029,2005,1942,1869,2008,2011,2007
2050,2025,2005,1948,1892,1966,2016,2026
2067,2049,2040,1994,1986,1965,2032,2039
2087,2061,2080,2033,2055,2020,2046,2035
2092,2065,2100,2056,2091,2062,2058,2037
2081,2064,2102,2070,2132,2082,2069,2056
2089,2065,2096,2081,2133,2082,2072,2061
2092,2068,2086,2070,2102,2080,2084,2047
2087,2058,2076,2064,2082,2080,2082,2032
2074,2050,2068,2062,2050,2087,2080,2017
2055,2039,2066,2054,2024,2091,2076,1997
2054,2038,2057,2055,2010,2092,2074,2008
2057,2031,2058,2052,1994,2082,2073,1998
2057,2036,2054,2049,1986,2044,2052,2000
2067,2040,2061,2062,2013,1986,2059,2017
2069,2051,2066,2078,2058,1979,2069,2023
2081,2059,2057,2086,2086,2023,2060,2018
2080,2056,2049,2080,2055,2047,2054,2004
2070,2050,2047,2054,1998,2065,2071,1993
2071,2046,2040,2032,1935,2059,2056,1993
2073,2045,2036,2017,1946,2043,2062,1983
2062,2025,2021,2000,1940,2019,2045,1966
2051,2014,2007,1994,1951,2036,2040,1966
2058,2021,2013,2003,1985,2079,2044,1970
2053,2018,2003,1994,1960,2107,2044,1970
2046,2015,2004,1983,1909,2108,2047,1975
2055,2026,2010,1984,1931,2090,2036,1978
2060,2040,2031,2008,1982,2015,2033,1995
2071,2068,2071,2038,2014,1981,2034,2024
2091,2091,2099,2063,2042,2009,2059,2031
2090,2082,2100,2063,2014,2047,2051,2025
2079,2072,2092,2050,1976,2086,2051,2022
2082,2067,2081,2046,1996,2096,2042,2027
2071,2052,2061,2032,2019,2017,2030,2019
2066,2043,2052,2031,2030,1956,2020,2022
2073,2040,2047,2058,2075,1963,2018,2035
2075,2044,2045,2065,2134,2000,2031,2042
2072,2039,2041,2063,2153,2021,2019,2045
2064,2026,2037,2057,2135,2030,2029,2035
2058,2032,2055,2068,2142,2054,2049,2040
2068,2053,2080,2070,2165,2061,2058,2033
2073,2072,2092,2080,2193,2079,2066,2032
2080,2071,2092,2088,2222,2087,2085,2039
2079,2065,2084,2093,2213,2082,2082,2027
2082,2058,2071,2076,2168,2048,2053,2019
2072,2044,2062,2052,2024,2004,2039,2015
2062,2033,2055,2032,1947,1994,2040,2009
2063,2036,2060,2042,2005,2016,2052,1988
2057,2034,2068,2053,2056,2025,2044,1970
2056,2042,2067,2054,2041,2022,2056,1973
2056,2036,2067,2047,2040,2025,2041,1962
2042,2035,2065,2047,2021,2035,2046,1965
2062,2054,2072,2068,2019,2050,2041,1976
2075,2056,2084,2079,2033,2050,2042,1973
2061,2049,2077,2077,2037,2018,2019,1966
2054,2031,2062,2068,2024,1982,2007,1967
2061,2037,2058,2066,2040,1988,2026,1981
2066,2043,2054,2069,2058,2013,2041,1990
2061,2038,2048,2068,2063,2029,2064,1999
2064,2045,2036,2072,2073,2040,2064,2002
2066,2041,2029,2061,2085,2046,2054,2006
2075,2037,2028,2066,2076,2044,2057,2001
2076,2040,2028,2066,2066,2040,2054,2010
2077,2040,2029,2063,2038,2026,2045,2005
2071,2039,2032,2049,2017,2025,2039,2012
2069,2035,2033,2041,2013,2025,2042,2018
2056,2042,2038,2042,2020,2025,2046,2024
2052,2044,2042,2028,2027,2032,2045,2020
2056,2051,2034,2020,2025,2034,2074,2024
2070,2057,2039,2012,2030,2035,2058,2036
2072,2059,2044,2018,2034,2041,2068,2032
2069,2056,2054,2023,2036,2028,2060,2028
2067,2055,2052,2033,2028,2027,2054,2030
2081,2060,2061,2055,2036,2031,2054,2032
2084,2063,2050,2059,2030,2034,2061,2030
2088,2058,2050,2035,2019,2026,2062,2026
2081,2051,2045,2007,2013,2020,2037,2020
2072,2054,2043,1992,2011,2016,2064,2012
2059,2055,2041,1999,2012,2006,2050,2005
2057,2064,2054,2019,2020,2017,2061,1998
2049,2057,2056,2031,2026,2022,2063,2004
2048,2062,2053,2037,2021,2029,2072,2004
2064,2058,2040,2035,2018,2034,2070,1992
2062,2053,2025,2039,2025,2035,2072,1988
2055,2037,2009,2024,2010,2031,2049,1973
2043,2032,2001,2022,2005,2021,2045,1965
2045,2037,2005,2032,2022,2030,2046,1977
2053,2028,2003,2038,2021,2036,2047,1972
2051,2021,2003,2038,2012,2046,2066,1966
2064,2033,2019,2054,2026,2046,2068,1971
2071,2050,2033,2063,2054,2039,2058,1971
2056,2041,2023,2047,2079,2040,2050,1979
2055,2037,2017,2039,2068,2033,2060,1978
2047,2038,2021,2031,2048,2032,2060,1989
2050,2055,2043,2033,2039,2032,2044,1988
2057,2063,2068,2043,2044,2032,2051,1996
2064,2069,2072,2038,2058,2027,2046,2007
2070,2072,2070,2034,2064,2024,2048,2015
2071,2072,2067,2030,2058,2018,2040,2020
2073,2062,2058,2033,2058,2019,2044,2025
2068,2058,2057,2036,2041,2017,2053,2024
2073,2062,2070,2025,1988,2017,2037,2028
2073,2054,2070,2024,2004,2020,2037,2028
2076,2053,2075,2033,2013,2028,2047,2031
2073,2049,2073,2033,2008,2023,2035,2021
2070,2035,2052,2030,2017,2021,2052,2022
2053,2032,2052,2049,2027,2031,2050,2032
2064,2051,2076,2072,2041,2036,2051,2033
2070,2057,2072,2076,2041,2041,2056,2034
2072,2058,2070,2068,2032,2028,2058,2026
2074,2059,2059,2053,2027,2025,2061,2023
2074,2066,2064,2053,2030,2029,2052,2018
2080,2066,2062,2053,2039,2041,2072,2020
2073,2061,2062,2052,2033,2049,2085,2006
2066,2066,2070,2059,2047,2062,2072,2002
2068,2060,2067,2056,2050,2062,2074,1987
2054,2057,2051,2056,2042,2056,2064,1984
2057,2046,2044,2052,2039,2043,2060,1983
2055,2048,2047,2052,2045,2040,2073,1979
2057,2050,2059,2050,2040,2033,2053,1977
2059,2042,2048,2043,2031,2030,2047,1969
2062,2032,2047,2034,2027,2024,2046,1963
2052,2029,2058,2043,2039,2018,2048,1969
2047,2033,2061,2052,2047,2028,2044,1981
2055,2048,2063,2051,2046,2030,2059,1987
2067,2064,2071,2057,2053,2032,2060,1986
2068,2064,2071,2063,2051,2034,2064,1990
2062,2061,2063,2056,2045,2034,2068,1996
2063,2058,2053,2052,2042,2022,2048,2006
2064,2059,2048,2056,2035,2025,2047,2011
2074,2067,2057,2059,2037,2040,2062,2024
2076,2074,2061,2051,2042,2035,2045,2018
2070,2066,2050,2040,2028,2027,2061,2023
2071,2067,2050,2020,2018,2019,2053,2026
2071,2061,2042,2008,1990,2021,2047,2026
2074,2065,2035,1993,1983,2018,2047,2027
2073,2058,2019,1993,1981,2023,2052,2019
2073,2059,2031,2008,2003,2026,2047,2025
2075,2060,2039,2036,2033,2024,2055,2024
2082,2066,2050,2048,2046,2025,2060,2025
2081,2079,2057,2064,2058,2037,2068,2036
2079,2079,2058,2062,2069,2041,2078,2027
2078,2083,2060,2056,2068,2036,2074,2024
2070,2082,2063,2062,2071,2045,2081,2017
2073,2075,2052,2066,2085,2047,2060,2022
2081,2068,2059,2077,2102,2050,2074,2019
2076,2063,2056,2072,2110,2058,2066,2025
2072,2058,2039,2073,2112,2067,2085,2018
2078,2061,2034,2073,2097,2070,2073,2015
2069,2051,2028,2066,2075,2068,2071,2013
2072,2055,2024,2065,2081,2068,2068,2001
2074,2056,2011,2056,2079,2065,2071,1994
2075,2049,2010,2053,2062,2054,2064,1980
2063,2044,2000,2057,2062,2059,2059,1960
2051,2043,2012,2058,2081,2048,2040,1952
2040,2032,2015,2054,2077,2047,2038,1951
2030,2033,2024,2038,2053,2024,2036,1968
2047,2041,2040,2017,2001,1990,2020,1968
2049,2042,2053,1999,1971,1980,2025,1971
2050,2054,2081,2001,1978,1984,2034,1978
2057,2062,2085,1998,1987,1991,2035,1991
2060,2049,2068,1994,2000,2007,2044,1997
2063,2048,2061,2009,2019,2044,2056,2005
2060,2058,2064,2031,2022,2060,2045,2011
2055,2070,2075,2034,1948,2082,2051,2021
2064,2075,2066,2041,1934,2088,2055,2023
2062,2063,2046,2033,1940,2065,2043,2022
2060,2066,2050,2028,1933,2050,2065,2024
2061,2073,2063,2026,1950,2047,2052,2029
2060,2074,2067,2020,1957,2030,2034,2021
2068,2076,2053,2003,1980,2022,2036,2026
2061,2063,2039,1998,2055,2010,2052,2015
2052,2061,2040,2029,2112,2017,2051,2022
2069,2071,2052,2049,2103,2024,2034,2016
2070,2061,2043,2023,2020,1994,2055,2009
2063,2057,2031,1999,2015,1993,2068,2009
2053,2047,2035,2014,2088,2024,2049,2018
2060,2057,2047,2048,2139,2057,2079,2013
2073,2073,2050,2056,2140,2072,2085,2015
2081,2081,2070,2065,2122,2077,2080,2015
2083,2089,2071,2064,2099,2065,2074,2006
2080,2078,2064,2059,2093,2058,2085,1998
2083,2078,2060,2053,2080,2046,2087,1996
2076,2080,2058,2052,2057,2040,2060,1996
2079,2079,2058,2054,2061,2037,2057,1981
2080,2074,2055,2052,2054,2040,2036,1978
2062,2068,2059,2054,2032,2049,2041,1961
2058,2071,2060,2057,2011,2058,2041,1955
2049,2056,2051,2038,1974,2048,2031,1955
2051,2050,2053,2014,1939,2051,2047,1957
2067,2060,2067,2020,1957,2060,2048,1972
2065,2064,2082,2032,1980,2035,2031,1981
2065,2069,2080,2024,1971,2024,2021,1985
2062,2066,2066,2014,1999,2040,2052,1987
2060,2069,2067,2015,2063,2094,2033,1976
2059,2067,2064,2004,2103,2082,2050,1985
2055,2072,2063,2011,2128,2058,2052,1989
2061,2074,2057,2034,2169,2057,2056,2007
2069,2074,2058,2059,2186,2031,2068,2022
2085,2086,2077,2080,2214,1973,2037,2032
2089,2094,2084,2081,2184,2002,2047,2025
2074,2085,2077,2056,2112,2036,2056,2016
2068,2070,2058,2034,2051,2051,2057,2014
2063,2061,2049,2027,2000,2031,2062,2020
2059,2053,2043,2010,1911,1989,2053,2015
2056,2051,2046,2017,1933,2000,2060,2016
2055,2057,2050,2024,1962,2025,2077,2016
2061,2061,2039,2023,1970,2041,2075,2013
2064,2062,2033,2024,1983,2044,2062,2012
2064,2050,2021,2015,1977,2015,2058,2004
2068,2055,2027,2030,2031,1981,2057,2015
2078,2064,2049,2053,2095,2013,2085,2016
2079,2065,2049,2063,2108,2047,2082,2012
2081,2068,2051,2052,2111,2075,2070,2006
2083,2062,2043,2050,2087,2058,2077,1985
2064,2055,2039,2039,2062,2038,2039,1971
2063,2052,2038,2029,2056,2021,2045,1966
2052,2057,2037,2032,2057,2001,2045,1969
2060,2069,2053,2038,2049,1993,2022,1974
2075,2075,2055,2055,2047,2000,2058,1980
2072,2078,2057,2065,2050,2002,2047,1972
2058,2058,2055,2055,2046,1992,2046,1964
2054,2054,2059,2056,2044,1993,2065,1966
2057,2062,2062,2060,2054,2007,2071,1970
2059,2074,2064,2060,2059,2026,2067,1977
2066,2078,2061,2060,2055,2034,2063,1980
2074,2075,2061,2053,2052,2032,2065,1978
2066,2070,2063,2051,2051,2033,2063,1991
2067,2071,2068,2046,2051,2037,2072,1995
2060,2072,2073,2045,2046,2046,2065,1998
2055,2064,2062,2047,2059,2052,2076,1997
2048,2064,2044,2033,2059,2065,2073,1992
2050,2062,2037,2021,2058,2072,2071,1998
2058,2065,2055,2020,2057,2078,2066,2005
2064,2077,2074,2018,2055,2076,2065,2010
2075,2080,2078,2025,2052,2065,2060,2014
2074,2077,2072,2024,2038,2024,2055,2014
2069,2068,2065,2022,2014,2002,2048,1994
2051,2047,2051,2003,2001,2014,2053,1996
2050,2050,2047,2003,1998,2030,2056,2008
2064,2062,2052,2015,2025,1999,2071,2013
2071,2070,2064,2046,2069,1989,2064,2015
2072,2074,2065,2056,2081,2006,2072,2005
2068,2073,2065,2052,2082,2034,2074,1999
2062,2068,2062,2050,2082,2053,2068,2000
2061,2061,2056,2047,2080,2064,2074,1988
2061,2064,2052,2036,2081,2076,2077,1990
2062,2058,2046,2036,2075,2085,2063,1982
2056,2059,2043,2037,2068,2081,2050,1980
2055,2060,2044,2038,2066,2074,2067,1983
2056,2056,2042,2037,2064,2075,2072,1968
2055,2049,2033,2029,2045,2083,2060,1953
2049,2050,2029,2020,2024,2075,2057,1954
2059,2059,2032,2022,2024,2060,2058,1951
2053,2052,2031,2017,2001,2026,2016,1944
2046,2051,2033,2018,2003,1981,2045,1962
2059,2066,2040,2035,2052,1960,2047,1977
2064,2068,2039,2049,2077,1971,2062,1988
2063,2062,2033,2046,2075,1975,2058,1985
2058,2052,2024,2040,2079,1998,2042,1984
2061,2051,2027,2056,2087,2024,2042,1977
2069,2060,2027,2063,2092,2043,2039,1985
2063,2058,2020,2059,2087,2039,2029,1992
2055,2056,2009,2048,2084,2039,2040,1994
2043,2050,2001,2044,2087,2045,2041,1999
2050,2040,2000,2035,2084,2049,2051,1995
2053,2044,2008,2034,2077,2050,2052,2000
2051,2053,2023,2041,2078,2043,2058,2006
2053,2056,2030,2037,2068,2022,2037,2002
2052,2058,2050,2042,2057,2003,2035,2001
2056,2061,2078,2053,2047,1983,2029,1993
2046,2040,2068,2053,2046,1972,2015,1991
2037,2037,2071,2058,2053,1978,2028,2005
2053,2055,2091,2083,2064,1996,2048,2014
2053,2079,2112,2109,2071,2008,2050,2014
2059,2080,2110,2113,2072,2017,2046,1998
2053,2077,2096,2124,2093,2041,2048,1997
2053,2078,2093,2139,2132,2059,2064,1994
2054,2082,2088,2129,2136,2062,2057,1994
2059,2073,2073,2104,2131,2052,2050,1990
2060,2066,2071,2067,2097,2041,2056,1988
2056,2064,2037,2019,2007,2008,2034,1978
2051,2039,1996,1981,1913,1983,2028,1965
2038,2018,1978,1968,1909,1979,2044,1957
2037,2025,1992,1961,1919,1972,2045,1956
2044,2027,1993,1942,1914,1965,2041,1957
2040,2040,2000,1928,1933,1972,2042,1958
2050,2055,2025,1942,1956,1990,2022,1956
2043,2062,2047,1968,2003,2000,2045,1964
2045,2074,2074,2003,2043,2017,2045,1975
2050,2080,2073,2017,2052,2030,2050,1982
2048,2070,2058,2016,2045,2032,2037,1981
2048,2060,2041,2021,2055,2035,2031,1981
2044,2058,2030,2026,2089,2036,2053,1991
2039,2053,2030,2018,2090,2043,2054,1995
2042,2055,2042,2020,2075,2054,2050,2012
2054,2067,2045,2025,2072,2049,2062,2016
2047,2058,2046,2015,2073,2035,2060,2008
2051,2064,2052,2006,2065,2025,2041,2008
2046,2063,2051,2012,2078,2028,2058,1998
2039,2062,2046,2018,2089,2024,2045,2004
2050,2060,2046,2031,2079,2022,2056,2005
2060,2068,2041,2035,2044,2020,2057,2011
2055,2059,2034,2032,2043,2024,2046,2010
2046,2054,2024,2033,2040,2028,2041,2018
2048,2044,2024,2046,2045,2037,2045,2023
2058,2058,2038,2053,2061,2030,2042,2019
2053,2064,2037,2053,2060,2035,2053,2012
2060,2067,2041,2049,2068,2035,2046,2010
2054,2065,2045,2047,2075,2038,2056,2013
2059,2069,2046,2047,2075,2036,2063,2008
2058,2067,2045,2039,2069,2034,2042,1995
2050,2062,2050,2037,2068,2025,2050,1994
2049,2058,2056,2037,2054,2026,2051,1992
2056,2069,2068,2040,2058,2028,2043,1985
2060,2076,2074,2047,2059,2016,2042,1988
2061,2076,2068,2040,2046,2002,2037,1983
2060,2073,2058,2030,2035,2000,2053,1979
2062,2074,2056,2030,2033,2001,2036,1965
2059,2083,2064,2043,2042,2010,2040,1956
2049,2071,2061,2041,2036,2015,2042,1958
2042,2061,2048,2047,2034,2021,2049,1976
2056,2069,2044,2047,2025,2031,2067,1983
2061,2066,2031,2042,2020,2028,2053,1991
2068,2071,2020,2032,2022,2025,2043,1987
2055,2061,2005,2029,2016,2009,2046,1981
2055,2057,2001,2030,2012,2002,2053,1982
2054,2068,2011,2040,2010,1999,2061,1997
2054,2065,2008,2037,2006,2001,2063,1995
2056,2055,1988,2016,1987,2017,2047,2003
2052,2045,1985,2005,1999,2046,2058,2007
2056,2046,2000,2021,2021,2052,2042,2014
2060,2048,2019,2023,2038,2031,2024,2014
2056,2056,2030,2042,2054,1985,2011,2030
2058,2065,2048,2042,2072,1965,2020,2026
2058,2067,2062,2066,2124,1980,2040,2032
2064,2059,2064,2086,2142,2010,2053,2025
2052,2061,2072,2096,2157,2048,2068,2021
2054,2073,2072,2101,2152,2063,2069,2022
2050,2056,2058,2097,2115,2055,2050,2008
2052,2064,2073,2087,2082,2046,2063,1995
2057,2070,2097,2075,2053,2066,2052,2000
2063,2082,2101,2067,2044,2080,2054,2001
2064,2084,2094,2047,2070,2075,2048,1997
2068,2079,2068,2042,2093,2070,2050,1989
2060,2064,2048,2032,2080,2017,2020,1992
2051,2055,2037,2038,2124,1958,2026,1990
2048,2055,2030,2034,2186,1980,2046,1988
2052,2065,2047,2047,2212,2044,2036,1979
2051,2069,2061,2046,2185,2079,2043,1971
2050,2065,2056,2018,2124,2076,2048,1958
2050,2062,2044,1994,1973,2018,2023,1964
2052,2060,2038,1981,1868,1957,2013,1966
2040,2061,2041,2002,1942,1977,2007,1972
2064,2080,2056,2032,2003,1999,2027,1985
2059,2074,2051,2039,2034,1997,2019,1991
2058,2076,2051,2025,2043,2008,2039,1989
2048,2069,2042,2025,2054,2029,2037,1993
2048,2062,2034,2023,2068,2051,2055,2000
2046,2056,2035,2023,2097,2054,2052,2008
2055,2062,2038,2033,2106,2041,2053,2019
2053,2063,2038,2025,2049,2018,2033,2023
2056,2065,2029,2025,2016,2010,2044,2021
2051,2058,2026,2028,2025,2010,2028,2019
2054,2052,2020,2039,2054,2016,2037,2020
2052,2042,2013,2035,2059,2004,2036,2021
2047,2037,2001,2036,2062,2004,2034,2026
2047,2034,2006,2043,2077,2019,2051,2032
2055,2045,2007,2043,2084,2018,2043,2025
2060,2051,2015,2046,2088,2015,2044,2026
2049,2056,2025,2048,2094,2024,2050,2031
2048,2052,2014,2045,2093,2025,2052,2023
2045,2041,2013,2037,2085,2029,2038,2020
2043,2035,2005,2033,2080,2026,2053,2022
2041,2039,2007,2030,2070,2025,2065,2025
2043,2052,2023,2026,2048,2015,2046,2016
2054,2057,2051,2022,2025,2012,2037,2015
2053,2077,2081,2030,2032,2013,2035,2002
2064,2081,2105,2039,2043,2024,2046,2000
2054,2072,2093,2040,2050,2031,2053,1999
2044,2069,2080,2036,2048,2036,2026,1988
2038,2054,2063,2020,2009,2037,2015,1974
2042,2054,2061,2017,1983,2043,2022,1977
2053,2058,2053,2020,1974,2048,2024,1968
2052,2052,2049,2017,1967,2028,2005,1962
2043,2049,2048,2030,2013,1989,2019,1977
2054,2066,2067,2063,2093,2024,2054,2001
2067,2081,2082,2080,2116,2049,2061,2013
2082,2086,2088,2092,2133,2028,2049,2018
2075,2088,2090,2088,2116,2012,2039,2024
2062,2082,2086,2080,2094,2014,2049,2022
2059,2077,2077,2065,2078,2010,2037,2020
2056,2078,2073,2061,2078,2000,2040,2024
2065,2071,2068,2057,2069,2001,2041,2030
2063,2076,2065,2059,2061,2012,2059,2036
2063,2074,2070,2046,2042,2011,2063,2036
2061,2071,2064,2046,2042,2011,2052,2038
2066,2063,2064,2033,2029,2012,2016,2039
2058,2062,2056,2030,2045,2013,2033,2044
2067,2070,2068,2042,2068,2023,2051,2049
2072,2072,2073,2043,2065,2022,2032,2033
2052,2061,2057,2043,2064,2034,2052,2030
2053,2058,2064,2049,2081,2069,2054,2049
2063,2067,2065,2050,2073,2053,2044,2049
2059,2065,2058,2035,2055,2032,2041,2027
2043,2051,2051,2030,2054,2030,2053,2023
2046,2055,2047,2030,2054,2042,2052,2028
2048,2063,2064,2044,2056,2045,2057,2024
2060,2070,2067,2053,2052,2043,2056,2025
2053,2066,2064,2055,2039,2051,2070,2016
2051,2066,2060,2063,2035,2062,2058,2013
2058,2058,2059,2062,2029,2064,2063,2009
2061,2059,2061,2059,2040,2074,2036,1997
2056,2061,2054,2052,2029,2061,2031,1995
2058,2056,2054,2046,2041,2049,2026,1977
2058,2051,2049,2048,2041,2040,2032,1973
2052,2050,2041,2045,2026,2023,2025,1966
2043,2039,2035,2035,2031,1977,2022,1978
2050,2039,2031,2044,2067,1971,2031,1982
2046,2044,2029,2043,2102,1980,2027,1984
2046,2039,2017,2036,2092,1981,2019,1989
2033,2037,2013,2033,2062,1981,2027,1991
2034,2037,2016,2025,2031,1986,2040,1999
2042,2048,2015,2023,2034,2003,2041,2018
2050,2057,2022,2040,2077,2034,2040,2023
2055,2054,2035,2061,2107,2048,2048,2029
2056,2052,2047,2072,2116,2073,2055,2036
2052,2047,2045,2057,2080,2078,2037,2027
2040,2045,2036,2044,2036,2066,2042,2017
2035,2030,2028,2030,2021,2055,2027,2017
2027,2032,2029,2041,2035,2029,2032,2035
2039,2046,2037,2059,2084,2011,2039,2047
2056,2052,2042,2070,2125,2019,2038,2047
2051,2042,2034,2068,2139,2039,2042,2046
2040,2044,2034,2057,2126,2063,2045,2044
2044,2044,2032,2033,2089,2050,2040,2036
2039,2031,2021,2009,2045,2031,2048,2029
2036,2040,2026,1993,2025,2020,2049,2025
2042,2047,2038,1993,2057,2023,2055,2034
2053,2069,2077,2003,2082,2040,2068,2040
2067,2094,2105,2023,2090,2036,2068,2036
2075,2110,2113,2028,2090,2026,2062,2029
2072,2099,2101,2032,2064,2003,2034,2006
2055,2083,2088,2030,2090,2016,2045,1997
2056,2072,2078,2043,2120,2035,2059,2008
2066,2069,2076,2055,2122,2043,2055,2016
2066,2065,2072,2055,2114,2043,2043,1998
2063,2067,2072,2051,2104,2046,2020,1993
2054,2057,2068,2045,2090,2031,2033,1986
2046,2040,2056,2041,2078,2036,2042,1977
2044,2049,2052,2040,2071,2040,2042,1992
2056,2070,2072,2051,2058,2017,2035,2010
2068,2064,2064,2032,2038,1960,2022,2005
2054,2062,2050,2009,1963,1925,2015,2002
2049,2064,2043,2009,1966,1951,2020,2012
2051,2056,2043,2019,2020,1977,2009,2018
2052,2053,2047,2025,2030,1994,2023,2024
2052,2064,2058,2038,2032,1996,2026,2025
2051,2059,2061,2051,2049,1999,2039,2027
2045,2058,2060,2055,2076,2000,2036,2028
2052,2058,2055,2051,2080,2003,2050,2039
2054,2062,2060,2049,2078,2005,2037,2043
2054,2061,2065,2050,2089,2046,2041,2048
2051,2060,2067,2067,2103,2080,2056,2035
2051,2058,2072,2071,2120,2073,2057,2024
2038,2048,2071,2066,2105,2068,2021,2021
2033,2037,2073,2078,2109,2016,2024,2047
2056,2057,2090,2109,2092,1986,2032,2057
2058,2052,2077,2098,2025,2005,2044,2053
2051,2045,2064,2085,2019,2028,2035,2038
2055,2046,2058,2079,2049,2044,2044,2036
2046,2044,2048,2071,2054,2037,2063,2024
2050,2042,2037,2064,2025,2032,2054,2021
2054,2052,2046,2080,2027,2012,2052,2020
2052,2047,2035,2068,2031,2005,2043,2006
2050,2037,2024,2053,2031,2010,2021,1999
2054,2028,2015,2038,2048,2023,2020,1988
2041,2019,1998,2019,2042,2044,2025,1985
2038,2015,1992,2002,2019,2056,2037,1985
2041,2034,2005,1994,2010,2058,2039,1982
2034,2037,2003,1986,2009,2032,2035,1975
2020,2018,1991,1976,2022,1993,2026,1984
2029,2026,2014,1983,2061,1999,2040,1998
2054,2057,2056,2005,2087,2026,2059,2014
2065,2060,2068,2011,2093,2040,2058,2016
2054,2061,2074,2007,2083,2041,2054,2021
2055,2062,2069,2016,2076,2057,2050,2033
2060,2070,2082,2030,2072,2067,2054,2036
2062,2078,2090,2030,2047,2060,2054,2049
2059,2073,2085,2030,2012,2039,2069,2056
2058,2060,2073,2023,1964,2020,2051,2054
2050,2044,2064,2010,1926,2003,2026,2043
2042,2038,2048,1988,1949,2004,2017,2041
2038,2037,2053,2009,2011,1999,2034,2054
2046,2052,2068,2040,2078,2001,2045,2060
2054,2065,2070,2047,2118,2056,2073,2061
2056,2068,2065,2042,2154,2111,2077,2052
2053,2050,2043,2022,2135,2120,2050,2046
2038,2041,2044,2018,2121,2089,2049,2048
2047,2065,2064,2043,2104,2014,2047,2048
2062,2068,2062,2041,2049,2006,2039,2046
2061,2066,2055,2019,1912,1982,2009,2040
2049,2067,2053,2002,1843,1918,2029,2045
2060,2061,2057,2022,1935,1925,2032,2053
2060,2061,2059,2049,2025,1961,2046,2046
2053,2055,2051,2046,2099,2023,2046,2033
2048,2045,2047,2058,2164,2054,2050,2025
2049,2047,2053,2061,2161,2062,2048,2029
2042,2052,2052,2064,2163,2067,2057,2024
2050,2052,2060,2064,2155,2067,2060,2018
2042,2056,2062,2054,2121,2052,2055,2013
2036,2052,2059,2049,2096,2039,2043,2013
2044,2050,2054,2049,2075,2030,2035,2006
2035,2040,2056,2040,2068,2015,2026,2006
2034,2046,2059,2039,2062,2016,2030,2014
2042,2060,2068,2056,2075,2024,2020,2020
2052,2061,2060,2050,2069,2026,2037,2028
2050,2057,2060,2046,2059,2022,2039,2031
2051,2061,2054,2043,2052,2022,2031,2036
2053,2055,2055,2048,2063,2025,2037,2039
2052,2050,2050,2048,2067,2020,2045,2049
2042,2049,2052,2043,2074,2025,2037,2047
2040,2050,2044,2049,2071,2028,2051,2059
2041,2049,2036,2051,2071,2029,2052,2074
2045,2047,2025,2045,2066,2025,2046,2065
2040,2039,2020,2052,2061,2025,2049,2059
2040,2044,2024,2062,2066,2022,2034,2063
2042,2049,2025,2059,2067,2020,2031,2052
2038,2041,2016,2049,2069,2021,2028,2053
2034,2023,1997,2029,2053,2008,2034,2045
2025,2022,1993,2029,2053,2010,2004,2053
2037,2032,2004,2030,2063,2024,2044,2058
2049,2032,1994,2031,2058,2033,2012,2053
2049,2036,1985,2028,2064,2032,2026,2054
2049,2034,1982,2025,2060,2018,2030,2062
2062,2025,1989,2020,2063,2015,2038,2059
2052,2025,2002,2019,2064,2009,2038,2044
2040,2033,2031,2028,2080,2012,2022,2040
2036,2056,2058,2041,2094,2018,2047,2037
2019,2052,2068,2045,2107,2017,2047,2042
2020,2066,2082,2050,2100,2022,2055,2051
2047,2086,2091,2053,2096,2021,2053,2047
2053,2090,2093,2056,2080,2019,2040,2036
2045,2085,2088,2040,2048,2013,2039,2030
2037,2068,2086,2025,2025,2012,2045,2018
2032,2072,2084,2048,2032,2006,2033,2011
2026,2070,2096,2062,2029,2012,2036,2027
2031,2074,2102,2065,2045,2027,2061,2033
2041,2084,2108,2060,2053,2032,2041,2034
2040,2076,2101,2057,2054,2037,2039,2034
2038,2077,2093,2057,2058,2044,2053,2035
2046,2081,2091,2059,2081,2060,2068,2049
2052,2082,2087,2066,2083,2065,2073,2068
2063,2086,2087,2061,2063,2051,2065,2068
2056,2081,2079,2062,2089,2048,2059,2073
2050,2077,2082,2063,2124,2053,2058,2077
2062,2081,2080,2068,2144,2058,2065,2080
2055,2076,2078,2058,2134,2040,2065,2077
2061,2078,2079,2044,2098,2024,2055,2072
2061,2072,2078,2050,2133,2022,2052,2079
2055,2072,2075,2049,2180,2019,2050,2077
2049,2070,2076,2052,2169,2004,2055,2079
2048,2055,2059,2036,2116,1980,2036,2070
2037,2044,2055,2030,2063,1970,2035,2079
2046,2064,2063,2032,2025,1983,2009,2078
2045,2065,2064,2024,1936,2001,2026,2075
2040,2066,2062,2026,1989,2030,2029,2070
2039,2060,2062,2036,2041,2066,2045,2054
2028,2057,2065,2036,2055,2091,2028,2042
2026,2060,2060,2042,2044,2088,2025,2041
2031,2061,2057,2034,2027,2083,2030,2051
2041,2062,2053,2031,2019,2054,2047,2049
2041,2072,2065,2043,2037,2015,2050,2057
2042,2078,2071,2054,2089,2001,2050,2059
2052,2077,2069,2058,2113,2023,2047,2055
2050,2066,2062,2057,2115,2045,2050,2042
2045,2060,2059,2049,2106,2052,2047,2031
2043,2061,2058,2050,2090,2023,2063,2030
2045,2065,2050,2042,2069,1999,2042,2023
2036,2054,2040,2034,2050,1983,2037,2016
2036,2047,2039,2036,2050,1998,2039,2026
2041,2056,2044,2045,2057,2014,2033,2029
2049,2055,2035,2047,2052,2022,2039,2032
2039,2051,2030,2047,2065,2032,2044,2039
2040,2051,2033,2047,2073,2040,2054,2048
2043,2054,2037,2047,2088,2039,2063,2063
2048,2058,2036,2046,2091,2041,2068,2081
2055,2059,2040,2052,2095,2015,2036,2078
2050,2048,2034,2049,2091,1994,2029,2082
2054,2054,2034,2049,2084,1997,2042,2073
2051,2055,2036,2050,2075,2017,2038,2062
2042,2043,2035,2039,2072,2032,2045,2061
2032,2041,2037,2025,2060,2044,2042,2061
2034,2046,2040,2024,2042,2052,2051,2067
2036,2059,2053,2024,2036,2044,2034,2077
2036,2056,2054,2035,2032,2001,2018,2077
2036,2046,2047,2025,2020,1987,2010,2080
2042,2058,2054,2035,2024,1964,2034,2092
2052,2069,2057,2042,2030,1968,2042,2089
2053,2067,2050,2036,2036,1994,2039,2069
2048,2062,2050,2030,2049,2017,2044,2066
2041,2056,2046,2040,2077,2039,2053,2071
2038,2065,2063,2055,2096,2060,2062,2082
2049,2075,2069,2053,2074,2051,2051,2078
2057,2071,2064,2038,2061,2043,2052,2075
2058,2062,2054,2036,2050,1998,2056,2060
2057,2062,2051,2027,2051,1972,2050,2058
2053,2066,2053,2030,2056,1988,2052,2052
2047,2057,2051,2029,2056,1999,2057,2044
2040,2054,2053,2030,2063,2006,2052,2048
2036,2053,2049,2031,2077,2008,2047,2043
2034,2051,2046,2033,2089,2013,2024,2039
2017,2042,2039,2031,2094,2013,2012,2026
2019,2036,2032,2039,2100,2015,2013,2033
2022,2053,2039,2052,2117,2033,2020,2041
2034,2062,2050,2069,2126,2048,2044,2048
2034,2066,2046,2068,2124,2044,2037,2042
2035,2063,2044,2062,2114,2021,2023,2041
2034,2064,2045,2054,2103,2001,2015,2055
2038,2067,2049,2050,2084,2008,2019,2069
2037,2067,2047,2043,2074,2024,2025,2068
2039,2058,2043,2044,2075,2010,2022,2072
2042,2060,2044,2047,2074,1995,2023,2078
2043,2061,2050,2047,2077,2005,2035,2079
2040,2066,2051,2054,2076,2008,2036,2080
2044,2069,2056,2052,2076,2002,2029,2081
2044,2070,2050,2047,2076,2002,2052,2082
2050,2070,2047,2048,2074,2002,2051,2094
2052,2068,2056,2049,2073,2005,2028,2090
2032,2053,2042,2043,2065,2007,2028,2084
2024,2048,2038,2038,2067,2018,2039,2087
2035,2062,2044,2042,2076,2032,2062,2096
2034,2064,2050,2040,2088,2037,2070,2093
2040,2058,2050,2046,2091,2042,2068,2097
2045,2061,2046,2050,2105,2044,2064,2091
2041,2053,2048,2049,2104,2038,2065,2082
2030,2058,2045,2047,2098,2031,2057,2074
2033,2056,2051,2047,2089,2026,2076,2070
2034,2060,2055,2048,2093,2027,2068,2058
2028,2057,2051,2043,2079,2030,2062,2052
2027,2063,2054,2044,2078,2047,2059,2051
2027,2065,2051,2051,2092,2061,2055,2040
2032,2061,2055,2054,2094,2073,2068,2042
2036,2064,2051,2049,2091,2068,2076,2030
2034,2058,2050,2045,2076,2062,2074,2029
2026,2056,2045,2035,2042,2049,2040,2025
2021,2042,2029,2019,2024,2031,2023,2032
2015,2037,2031,2024,2014,2023,2053,2046
2021,2050,2046,2031,2024,1990,2043,2059
2027,2061,2053,2045,2058,1989,2056,2072
2037,2069,2056,2061,2097,2007,2081,2077
2040,2072,2052,2060,2096,2019,2069,2075
2029,2059,2046,2051,2095,2025,2026,2077
2025,2051,2034,2039,2072,2016,2023,2080
2030,2051,2034,2034,2059,2008,2029,2078
2022,2064,2044,2039,2053,1998,2028,2088
2039,2085,2069,2054,2051,2004,2044,2100
2042,2086,2061,2053,2025,1986,2044,2096
2034,2073,2050,2043,2052,1973,2017,2091
2037,2069,2046,2056,2090,1990,2045,2092
2031,2070,2048,2056,2090,2011,2044,2092
2037,2068,2049,2052,2074,2028,2044,2087
2036,2064,2042,2041,2025,2021,2004,2081
2019,2057,2042,2035,1988,2014,2017,2073
2027,2065,2054,2041,1988,1999,2013,2083
2031,2074,2051,2043,2007,1981,2028,2089
