CH1,CH2,CH3,CH4,CH5,CH6,CH7,CH8
2044,2053,2050,2036,2033,2038,2064,2048
2048,2054,2046,2040,2043,2046,2033,2043
2046,2052,2043,2038,2048,2036,2051,2039
2045,2045,2038,2042,2047,2039,2043,2039
2041,2044,2036,2039,2046,2053,2064,2032
2044,2050,2032,2030,2034,2071,2061,2021
2037,2045,2027,2029,2026,2072,2054,2018
2039,2044,2027,2032,2024,2072,2057,2012
2033,2046,2022,2028,2013,2045,2022,2008
2033,2035,2013,2033,2016,1994,1997,2024
2040,2037,2024,2046,2035,1961,2039,2042
2056,2061,2037,2067,2052,1972,2054,2044
2059,2057,2042,2069,2065,2005,2071,2029
2057,2053,2053,2071,2070,2028,2080,2030
2048,2050,2055,2065,2075,2033,2059,2032
2052,2052,2061,2063,2064,2025,2051,2038
2047,2053,2061,2070,2066,2026,2031,2040
2053,2049,2050,2068,2057,2027,2053,2040
2048,2044,2053,2062,2058,2030,2050,2050
2045,2044,2057,2069,2051,2049,2044,2058
2037,2047,2066,2064,2053,2076,2054,2066
2037,2052,2077,2049,2051,2093,2059,2074
2041,2055,2080,2048,2052,2090,2059,2079
2040,2056,2076,2046,2051,2078,2070,2083
2041,2045,2068,2041,2049,2072,2065,2083
2035,2039,2045,2038,2037,2059,2064,2080
2033,2025,2027,2031,2028,2056,2047,2074
2030,2032,2033,2033,2030,2062,2056,2083
2044,2051,2047,2044,2038,2062,2081,2079
2045,2050,2048,2046,2034,2058,2063,2068
2040,2049,2040,2040,2027,2044,2062,2071
2046,2054,2041,2044,2022,2032,2050,2059
2044,2058,2045,2041,2023,2018,2044,2058
2048,2061,2054,2051,2025,2023,2037,2051
2056,2070,2056,2047,2025,2033,2033,2052
2059,2069,2054,2041,2021,2051,2033,2044
2054,2057,2046,2039,2021,2056,2051,2035
2043,2051,2034,2034,2024,2051,2055,2027
2041,2048,2034,2037,2050,2055,2050,2027
2039,2044,2042,2043,2065,2056,2060,2024
2038,2039,2046,2046,2070,2056,2067,2014
2033,2045,2051,2051,2067,2051,2049,2011
2037,2036,2050,2044,2054,2032,2053,2004
2036,2036,2049,2042,2045,2021,2054,2017
2042,2044,2064,2056,2054,2031,2062,2031
2048,2054,2059,2052,2060,2031,2065,2032
2051,2056,2054,2050,2057,2027,2057,2030
2051,2056,2056,2057,2057,2025,2052,2040
2052,2055,2052,2051,2050,2028,2063,2034
2052,2052,2046,2045,2053,2035,2064,2030
2047,2047,2037,2046,2048,2037,2062,2036
2046,2049,2042,2049,2054,2032,2051,2041
2048,2053,2043,2052,2053,2038,2063,2050
2050,2047,2042,2044,2046,2036,2057,2054
2045,2042,2045,2046,2052,2044,2060,2070
2047,2052,2052,2052,2051,2042,2064,2076
2042,2055,2053,2055,2054,2044,2041,2078
2046,2056,2053,2045,2052,2042,2045,2084
2044,2054,2050,2045,2039,2038,2033,2078
2034,2040,2048,2037,2033,2033,2028,2075
2042,2044,2058,2046,2033,2040,2039,2077
2050,2063,2066,2052,2031,2042,2034,2081
2048,2055,2066,2051,2034,2047,2049,2074
2048,2063,2056,2047,2030,2044,2056,2062
2053,2058,2049,2041,2033,2049,2049,2066
2049,2050,2046,2041,2034,2039,2041,2055
2052,2047,2042,2042,2033,2039,2032,2044
2052,2040,2042,2041,2036,2045,2047,2037
2049,2051,2041,2051,2042,2042,2053,2034
2055,2053,2043,2050,2044,2044,2068,2036
2060,2056,2044,2051,2049,2048,2052,2029
2044,2049,2038,2043,2042,2042,2042,2030
2036,2043,2034,2047,2040,2044,2038,2014
2044,2041,2037,2041,2043,2041,2025,2016
2043,2043,2041,2039,2044,2045,2031,2010
2038,2032,2031,2039,2040,2039,2038,2008
2031,2022,2026,2041,2041,2038,2038,2009
2037,2033,2039,2052,2051,2049,2043,2018
2047,2042,2049,2053,2052,2045,2048,2022
2044,2041,2049,2055,2045,2052,2023,2028
2045,2045,2044,2053,2053,2049,2024,2025
2046,2039,2043,2061,2053,2051,2023,2034
2043,2046,2045,2062,2058,2047,2039,2039
2045,2044,2040,2060,2037,2039,2047,2038
2043,2044,2039,2057,2016,2032,2046,2041
2042,2040,2045,2065,2018,2028,2037,2057
2034,2037,2046,2070,2022,2020,2032,2054
2036,2039,2047,2066,2042,2036,2023,2066
2043,2044,2056,2082,2069,2054,2054,2082
2056,2051,2060,2094,2084,2059,2052,2079
2047,2041,2038,2080,2074,2056,2028,2082
2046,2032,2021,2056,2059,2048,2034,2077
2029,2012,2001,2033,2041,2036,2007,2065
2027,2012,1995,2037,2036,2042,2013,2072
2047,2030,2021,2052,2042,2049,2028,2080
2052,2048,2036,2078,2046,2055,2035,2077
2049,2049,2043,2090,2051,2056,2033,2066
2044,2049,2059,2097,2056,2055,2050,2066
2053,2054,2072,2103,2060,2057,2036,2054
2047,2055,2075,2101,2056,2056,2049,2046
2048,2048,2072,2098,2046,2054,2037,2033
2041,2042,2074,2084,2041,2045,2047,2032
2041,2040,2069,2078,2041,2050,2037,2028
2046,2054,2079,2088,2042,2044,2025,2023
2050,2062,2091,2098,2048,2049,2008,2024
2051,2060,2080,2091,2043,2046,2036,2025
2043,2053,2056,2078,2039,2044,2044,2015
2048,2051,2047,2064,2041,2048,2034,2016
2039,2036,2024,2031,2024,2037,2020,2009
2036,2034,2018,1999,2015,2032,2029,2021
2049,2044,2023,1967,2009,2040,2035,2033
2051,2058,2031,1951,2014,2043,2061,2039
2060,2068,2053,1966,2024,2045,2075,2040
2067,2082,2067,1989,2040,2047,2071,2040
2076,2090,2070,2008,2052,2053,2032,2048
2069,2083,2060,2013,2052,2057,2043,2048
2067,2069,2049,2021,2056,2059,2055,2050
2066,2070,2052,2032,2055,2057,2074,2053
2065,2068,2060,2035,2050,2053,2054,2064
2062,2065,2047,2038,2037,2044,2047,2060
2064,2059,2043,2032,2045,2043,2038,2070
2055,2050,2036,2031,2041,2040,2056,2080
2054,2048,2037,2029,2032,2027,2058,2080
2056,2042,2031,2028,2002,2028,2034,2076
2048,2036,2033,2023,1985,2015,2005,2070
2041,2037,2043,2034,1978,2005,2022,2075
2038,2043,2064,2036,1979,2014,2027,2081
2046,2045,2081,2050,2010,2041,2049,2078
2053,2057,2090,2065,2040,2051,2058,2069
2055,2056,2087,2072,2063,2068,2052,2068
2050,2050,2076,2063,2050,2087,2050,2058
2045,2049,2064,2058,2022,2074,2014,2043
2044,2059,2063,2061,2004,2057,2016,2043
2048,2060,2062,2066,1996,2047,2031,2038
2052,2061,2053,2069,2018,2040,2035,2038
2056,2059,2057,2074,2050,2077,2051,2037
2058,2051,2054,2077,2075,2101,2049,2027
2052,2049,2045,2060,2068,2108,2028,2023
2043,2037,2029,2043,2075,2114,2035,2021
2039,2027,2009,2024,2060,2106,2048,2013
2049,2026,2011,2014,2052,2077,2044,2015
2047,2018,2014,2016,2062,2068,2037,2021
2043,2021,2020,2019,2062,2072,2053,2031
2054,2041,2026,2013,2067,2060,2060,2039
2054,2051,2026,2015,2064,2044,2051,2043
2057,2055,2024,2021,2065,2030,2064,2041
2058,2049,2038,2038,2060,2016,2055,2045
2060,2044,2045,2038,2057,2011,2055,2036
2050,2047,2049,2038,2049,2008,2043,2044
2045,2047,2054,2044,2048,2005,2040,2052
2048,2047,2060,2051,2047,2013,2052,2051
2047,2051,2052,2044,2037,2008,2035,2057
2052,2056,2051,2036,2043,2012,2035,2055
2052,2055,2047,2031,2043,2030,2029,2068
2051,2054,2043,2034,2042,2049,2052,2069
2051,2048,2041,2028,2042,2061,2039,2076
2053,2060,2045,2032,2048,2064,2053,2074
2044,2050,2040,2026,2035,2043,2026,2068
2042,2046,2037,2031,2026,2040,2045,2070
2041,2053,2039,2030,2011,2039,2033,2072
2048,2054,2048,2038,2015,2029,2053,2070
2052,2056,2040,2037,2009,2033,2045,2079
2056,2049,2035,2038,2002,2028,2045,2067
2050,2043,2037,2035,2014,2033,2042,2063
2057,2056,2036,2037,2021,2036,2030,2056
2055,2055,2033,2033,2020,2051,2031,2044
2040,2047,2031,2035,2039,2064,2037,2034
2045,2046,2040,2041,2053,2066,2046,2026
2045,2042,2047,2040,2050,2067,2050,2020
2042,2046,2051,2040,2044,2068,2053,2023
2040,2050,2061,2046,2048,2028,2041,2033
2043,2058,2071,2051,2048,2012,2045,2033
2046,2061,2066,2054,2049,2023,2043,2035
2058,2055,2059,2049,2051,2032,2041,2022
2040,2037,2041,2040,2045,2049,2038,2015
2041,2043,2046,2038,2047,2050,2028,2019
2050,2055,2059,2044,2051,2059,2042,2023
2056,2054,2060,2045,2051,2061,2049,2029
2055,2058,2063,2047,2055,2063,2043,2028
2060,2058,2064,2047,2058,2061,2064,2028
2053,2054,2052,2046,2056,2070,2046,2031
2057,2056,2055,2048,2062,2084,2041,2041
2054,2055,2054,2045,2060,2085,2038,2053
2055,2051,2047,2039,2057,2089,2061,2061
2053,2054,2044,2046,2063,2088,2054,2060
2060,2054,2041,2044,2054,2075,2043,2069
2051,2046,2034,2038,2056,2028,2024,2073
2037,2038,2025,2040,2047,1996,2029,2075
2036,2039,2019,2043,2054,2001,2024,2077
2045,2040,2024,2040,2049,2019,2034,2078
2039,2035,2016,2039,2045,2017,2036,2078
2037,2034,2013,2036,2040,2023,2048,2081
2044,2042,2029,2046,2043,2035,2050,2086
2047,2039,2026,2038,2045,2039,2052,2077
2037,2031,2023,2033,2047,2040,2034,2069
2035,2032,2021,2034,2042,2043,2047,2056
2034,2027,2024,2025,2036,2041,2060,2040
2034,2026,2027,2029,2037,2051,2042,2041
2033,2028,2025,2028,2034,2055,2048,2042
2033,2026,2028,2024,2033,2059,2044,2033
2036,2027,2041,2030,2035,2080,2042,2034
2042,2033,2046,2034,2040,2081,2055,2033
2038,2035,2050,2036,2045,2081,2052,2032
2043,2034,2053,2039,2038,2072,2046,2025
2042,2036,2044,2036,2038,2070,2050,2018
2045,2042,2049,2042,2036,2063,2048,2021
2047,2048,2055,2033,2033,2040,2042,2015
2042,2032,2057,2037,2028,2043,2025,2018
2042,2043,2065,2039,2038,2050,2025,2035
2054,2053,2069,2050,2039,2055,2046,2033
2054,2052,2063,2039,2033,2042,2061,2024
2046,2045,2055,2037,2038,2033,2053,2025
2044,2045,2058,2048,2040,2039,2048,2032
2051,2043,2064,2056,2038,2047,2055,2038
2053,2052,2065,2057,2047,2060,2053,2039
2049,2055,2075,2059,2054,2061,2061,2035
2044,2056,2076,2056,2055,2064,2045,2045
2044,2050,2072,2061,2055,2044,2046,2051
2046,2051,2072,2057,2053,2030,2049,2063
2055,2050,2070,2064,2064,2062,2045,2073
2054,2053,2067,2048,2065,2088,2054,2072
2046,2052,2067,2037,2062,2105,2038,2078
2051,2049,2064,2032,2058,2122,2040,2068
2038,2033,2053,2025,2045,2124,2022,2072
2041,2035,2060,2026,2040,2122,2035,2071
2046,2049,2065,2032,2044,2124,2045,2070
2047,2060,2068,2039,2054,2117,2054,2073
2055,2057,2073,2056,2069,2075,2055,2073
2060,2062,2070,2056,2074,2059,2075,2073
2061,2056,2064,2056,2069,2047,2061,2052
2057,2053,2064,2053,2067,2027,2059,2053
2046,2053,2060,2051,2056,1982,2055,2043
2047,2048,2052,2046,2044,1957,2044,2034
2052,2051,2053,2048,2036,1958,2038,2035
2051,2042,2042,2044,2025,1976,2036,2031
2042,2038,2037,2040,2016,2003,2042,2024
2035,2035,2031,2041,2027,2016,2033,2014
2032,2031,2030,2040,2022,2029,2048,2014
2023,2026,2026,2044,2030,2037,2033,2006
2024,2010,2023,2040,2024,2034,2030,2003
2021,2000,2012,2044,2029,2029,2017,1999
2024,2019,2030,2058,2037,2051,2041,2005
2039,2039,2043,2074,2049,2052,2050,2009
2046,2035,2039,2068,2052,2053,2049,2012
2043,2029,2027,2064,2044,2045,2036,2016
2040,2025,2027,2071,2039,2035,2026,2019
2039,2021,2033,2081,2037,2043,2026,2021
2046,2033,2044,2087,2047,2046,2034,2033
2058,2034,2041,2084,2061,2043,2057,2033
2049,2030,2030,2086,2057,2041,2038,2047
2050,2032,2009,2078,2052,2033,2031,2052
2043,2019,2004,2066,2050,2038,2026,2056
2041,2022,2006,2052,2044,2037,2039,2063
2032,2020,1993,2036,2041,2036,2044,2064
2032,2010,1985,2015,2035,2033,2034,2062
2022,1999,1987,2009,2032,2033,2059,2066
2029,2012,2012,2024,2034,2039,2043,2068
2044,2034,2030,2037,2042,2050,2064,2073
2055,2044,2046,2040,2037,2045,2047,2079
2058,2063,2068,2045,2021,2031,2042,2073
2067,2080,2093,2051,2009,2024,2045,2062
2065,2074,2087,2039,1996,2015,2047,2058
2060,2055,2071,2024,1989,2014,2034,2045
2044,2047,2051,2019,1997,2030,2037,2038
2046,2044,2052,2046,2031,2045,2042,2033
2058,2054,2067,2055,2045,2051,2037,2036
2059,2075,2093,2055,2049,2058,2053,2030
2063,2083,2101,2053,2043,2067,2060,2029
2069,2088,2108,2036,2040,2065,2055,2023
2059,2083,2084,2010,2033,2060,2050,2022
2059,2070,2069,1995,2029,2054,2045,2022
2045,2056,2057,2005,2032,2046,2026,2018
2041,2051,2060,2012,2034,2046,2025,2028
2044,2059,2057,2021,2044,2045,2051,2028
2060,2058,2050,2020,2053,2054,2032,2031
2056,2059,2052,2027,2052,2055,2049,2035
2061,2060,2056,2029,2047,2052,2072,2036
2064,2064,2064,2043,2056,2062,2058,2042
2060,2064,2070,2059,2063,2066,2063,2042
2052,2062,2073,2060,2063,2065,2058,2045
2054,2062,2071,2063,2069,2065,2062,2050
2052,2063,2067,2066,2071,2062,2063,2064
2053,2060,2071,2068,2071,2059,2053,2067
2058,2061,2067,2068,2074,2042,2064,2065
2057,2067,2058,2068,2062,2024,2046,2065
2054,2062,2065,2068,2064,2032,2041,2073
2047,2055,2068,2065,2058,2048,2008,2066
2039,2039,2054,2060,2049,2057,2031,2063
2038,2041,2063,2058,2056,2057,2049,2071
2045,2056,2084,2066,2072,2072,2060,2069
2053,2057,2080,2069,2069,2081,2064,2071
2049,2062,2067,2071,2054,2074,2053,2069
2052,2062,2063,2060,2056,2075,2061,2065
2064,2069,2050,2060,2059,2071,2033,2056
2060,2061,2037,2045,2057,2072,2043,2045
2062,2056,2026,2039,2055,2072,2054,2037
2055,2045,2020,2042,2059,2074,2062,2039
2045,2038,2007,2040,2057,2073,2049,2034
2052,2039,2002,2038,2066,2071,2066,2031
2048,2044,2000,2036,2070,2068,2053,2027
2056,2045,2001,2036,2074,2060,2050,2020
2059,2050,1996,2016,2063,2022,2066,2023
2064,2047,1991,2012,2060,2016,2039,2012
2052,2030,1980,2003,2035,2008,2040,2004
2046,2019,1984,2004,2031,2025,2058,2012
2049,2037,2013,2020,2039,2033,2062,2018
2057,2050,2032,2024,2039,2042,2065,2029
2053,2061,2050,2033,2044,2047,2056,2026
2054,2064,2063,2040,2045,2051,2055,2028
2049,2072,2070,2047,2052,2046,2051,2025
2051,2067,2066,2045,2045,2045,2058,2035
2054,2065,2065,2045,2050,2044,2034,2040
2057,2065,2065,2053,2057,2055,2073,2038
2057,2069,2068,2064,2061,2054,2074,2052
2063,2067,2072,2058,2062,2050,2072,2058
2053,2062,2075,2052,2051,2036,2065,2058
2052,2060,2072,2048,2030,2015,2048,2064
2050,2059,2071,2042,2003,1999,2052,2072
2051,2062,2074,2039,1991,1991,2048,2063
2042,2045,2047,2017,1976,1988,2029,2064
2030,2038,2030,2021,2005,2020,2051,2069
2049,2052,2048,2042,2046,2051,2070,2067
2053,2059,2049,2046,2077,2056,2055,2073
2053,2061,2052,2045,2095,2070,2043,2066
2058,2066,2044,2049,2084,2094,2061,2056
2055,2058,2039,2041,2060,2097,2050,2044
2054,2052,2045,2036,2026,2098,2042,2032
2048,2058,2047,2034,1999,2101,2031,2024
2051,2059,2039,2024,1981,2085,2045,2022
2047,2047,2029,2023,1974,2036,2031,2021
2050,2050,2034,2037,1999,1982,2025,2030
2050,2052,2035,2050,2020,1977,2043,2030
2061,2055,2039,2059,2063,2005,2044,2029
2061,2056,2047,2075,2092,2040,2049,2034
2058,2055,2046,2068,2098,2068,2055,2020
2050,2043,2034,2038,2080,2069,2053,2016
2044,2040,2028,2018,2055,2063,2061,2021
2049,2053,2035,2027,2055,2067,2043,2018
2049,2051,2035,2037,2050,2065,2033,2026
2054,2050,2040,2059,2054,2065,2051,2025
2047,2050,2045,2056,2055,2080,2031,2029
2053,2047,2040,2069,2059,2086,2042,2033
2055,2052,2052,2085,2068,2077,2030,2034
2049,2051,2054,2082,2062,2072,2039,2037
2047,2049,2062,2089,2059,2038,2033,2052
2049,2048,2067,2088,2042,2026,2042,2062
2050,2055,2053,2081,2026,2050,2046,2061
2044,2050,2048,2072,2037,2065,2031,2064
2044,2036,2034,2062,2038,2077,2020,2063
2043,2030,2035,2066,2038,2070,2028,2062
2037,2028,2038,2070,2056,2024,2048,2065
2033,2015,2047,2076,2067,2004,2016,2067
2038,2022,2057,2086,2069,2015,2043,2067
2044,2040,2085,2089,2070,2028,2042,2069
2052,2052,2101,2083,2054,2033,2039,2062
2049,2064,2096,2068,2031,2031,2054,2057
2056,2062,2089,2055,2029,2037,2055,2065
2058,2055,2062,2043,2031,2043,2057,2053
2063,2057,2051,2036,2043,2054,2062,2059
2067,2059,2040,2036,2052,2042,2049,2049
2063,2059,2045,2043,2060,2029,2046,2037
2054,2055,2048,2045,2057,2021,2030,2020
2042,2043,2042,2060,2066,2030,2028,2015
2031,2026,2035,2060,2062,2044,2020,2016
2032,2031,2038,2053,2063,2049,2027,2015
2037,2032,2029,2041,2054,2037,2053,2024
2041,2046,2046,2042,2041,2038,2047,2022
2039,2047,2064,2043,2033,2034,2038,2022
2049,2061,2085,2054,2035,2045,2046,2023
2058,2062,2091,2062,2062,2057,2042,2020
2050,2065,2088,2079,2094,2071,2056,2027
2059,2070,2085,2098,2133,2086,2058,2031
2059,2068,2078,2104,2147,2077,2060,2031
2054,2058,2076,2096,2138,2086,2058,2031
2054,2057,2063,2076,2099,2094,2056,2037
2055,2062,2061,2053,2049,2080,2053,2030
2055,2053,2039,2050,2046,2080,2053,2037
2051,2050,2045,2072,2106,2074,2056,2054
2057,2051,2062,2095,2133,2043,2059,2064
2055,2052,2065,2097,2118,2042,2054,2069
2050,2044,2047,2078,2044,2056,2036,2060
2039,2040,2027,2060,1990,2035,2050,2060
2045,2038,2032,2055,1960,2015,2025,2060
2032,2029,2026,2051,1924,1988,2021,2056
2034,2033,2023,2056,1964,1956,2023,2079
2057,2069,2060,2110,2083,1976,2048,2094
2067,2075,2065,2132,2116,2025,2053,2080
2063,2068,2043,2100,2016,2060,2047,2072
2052,2047,2030,2067,1996,2076,2046,2052
2044,2034,1999,2033,1991,2067,2064,2038
2035,2025,1987,2016,2033,2059,2062,2024
2038,2023,1984,2020,2063,2078,2040,2023
2043,2033,2014,2050,2101,2087,2051,2027
2051,2047,2037,2068,2102,2096,2049,2031
2051,2049,2040,2062,2088,2079,2041,2026
2051,2049,2039,2052,2051,2042,2044,2038
2062,2046,2047,2065,2050,2020,2063,2038
2068,2056,2044,2083,2092,2051,2057,2042
2066,2061,2050,2105,2123,2073,2050,2032
2061,2034,2022,2098,2088,2072,2052,2032
2040,2024,2015,2076,2028,2063,2057,2026
2050,2032,2026,2059,2036,2052,2038,2017
2049,2046,2037,2030,1934,2020,2044,2025
2041,2048,2031,1984,1882,1990,2034,2018
2044,2036,2017,1950,1940,1996,2015,2007
2033,2031,2016,1938,1998,2010,1999,1998
2026,2028,2011,1962,2004,2017,1997,2007
2030,2028,2038,2027,2019,2045,2024,2024
2036,2047,2068,2084,2065,2075,2055,2045
2047,2062,2085,2117,2111,2063,2070,2071
2059,2070,2083,2120,2134,2079,2086,2075
2056,2064,2070,2106,2112,2094,2074,2074
2051,2061,2080,2104,2068,2060,2059,2083
2048,2063,2111,2108,2076,2026,2060,2082
2055,2068,2123,2114,2124,2017,2053,2086
2042,2060,2122,2107,2118,2001,2038,2085
2046,2063,2120,2077,2084,2006,2029,2088
2045,2078,2119,2076,2081,2031,2051,2082
2042,2072,2116,2089,2103,2057,2057,2064
2044,2069,2105,2091,2116,2071,2069,2058
2053,2066,2096,2096,2146,2083,2066,2058
2055,2066,2092,2099,2175,2087,2048,2056
2061,2069,2080,2089,2174,2088,2047,2048
2056,2065,2077,2081,2134,2093,2050,2047
2057,2060,2069,2067,2057,2129,2054,2038
2054,2056,2060,2024,2000,2158,2054,2034
2052,2061,2055,1950,1973,2158,2065,2036
2056,2061,2054,1919,1932,2130,2062,2032
2055,2057,2053,1939,1952,2096,2055,2041
2059,2064,2061,1978,1974,2080,2053,2027
2055,2052,2062,1990,1981,2080,2053,2021
2041,2043,2057,1996,1934,2063,2047,2009
2039,2037,2058,1983,1956,2031,2048,1999
2041,2036,2066,2009,2022,1990,2024,1995
2031,2026,2059,2002,1997,1932,2028,1997
2032,2027,2059,2031,2090,1912,2050,2010
2039,2040,2064,2054,2148,1946,2068,2019
2036,2039,2065,2045,2071,1972,2055,2028
2039,2042,2058,2037,1954,1986,2048,2034
2036,2037,2044,2036,1981,2023,2056,2040
2029,2031,2050,2048,2025,2038,2041,2040
2035,2032,2066,2053,2021,2051,2052,2046
2038,2043,2069,2047,2000,2049,2047,2054
2044,2043,2067,2045,1991,2028,2028,2068
2043,2044,2067,2062,2024,2057,2052,2074
2047,2049,2068,2082,2048,2086,2046,2078
2046,2046,2061,2076,2033,2113,2038,2067
2040,2027,2037,2057,2076,2133,2046,2064
2041,2039,2033,2053,2083,2100,2062,2081
2056,2054,2042,2051,2054,2033,2057,2087
2055,2058,2029,2043,2031,2024,2038,2080
2057,2058,2037,2056,2053,2039,2054,2083
2060,2061,2050,2066,2046,2059,2036,2076
2057,2065,2056,2065,2047,2063,2053,2064
2056,2059,2046,2061,2046,2062,2066,2047
2056,2058,2047,2043,2037,2058,2076,2048
2060,2071,2057,2040,1985,2045,2041,2046
2057,2063,2049,2009,1978,2046,2047,2042
2059,2056,2042,2018,2019,2043,2062,2035
2047,2059,2055,2037,2050,2053,2067,2022
2048,2064,2059,2045,2077,2052,2056,2027
2052,2064,2059,2048,2094,2053,2074,2029
2050,2058,2051,2037,2097,2046,2053,2026
2050,2050,2044,2023,2100,2056,2038,2030
2050,2049,2043,2025,2140,2073,2049,2026
2056,2067,2052,2037,2224,2089,2062,2020
2056,2067,2055,2045,2297,2098,2055,2026
2066,2061,2053,2052,2300,2103,2064,2033
2066,2070,2050,2059,2250,2081,2074,2040
2069,2066,2047,2047,2193,2047,2067,2034
2059,2062,2043,2026,2050,2023,2047,2033
2057,2060,2037,2008,1997,2018,2042,2037
2050,2050,2036,2012,1979,2010,2043,2046
2048,2043,2038,2016,1985,1994,2041,2040
2038,2039,2028,2017,1846,1961,2017,2034
2026,2022,2029,2008,1806,1978,2011,2034
2030,2022,2042,2070,2072,2045,2034,2053
2035,2021,2041,2104,2202,2085,2062,2054
2035,2016,2041,2095,2191,2071,2037,2052
2024,2016,2035,2069,2166,2031,2029,2054
2024,2029,2040,2054,2172,2044,2043,2064
2041,2054,2058,2051,2143,2055,2032,2066
2048,2054,2062,2032,2016,2054,2051,2064
2049,2060,2054,2018,1975,2029,2030,2056
2048,2053,2043,2024,2010,2017,2024,2046
2054,2046,2037,2038,2016,2019,2031,2052
2048,2050,2057,2054,1958,1987,2021,2060
2059,2065,2073,2050,1905,1988,2053,2050
2054,2066,2078,2050,1912,2014,2049,2044
2054,2076,2083,2076,1951,2032,2082,2044
2059,2074,2083,2087,1966,2040,2081,2038
2055,2076,2079,2084,1984,2038,2051,2024
2052,2064,2070,2086,2020,2031,2043,2024
2045,2056,2065,2089,2047,2033,2054,2022
2045,2052,2073,2099,2027,2036,2069,2020
2042,2045,2077,2085,2002,2033,2046,2008
2034,2044,2083,2074,1959,2030,2050,2014
2039,2047,2080,2070,1931,2019,2043,1998
2038,2045,2070,2063,1950,2036,2039,2002
2034,2037,2053,2067,1964,2059,2052,1992
2024,2031,2035,2029,1877,2031,2018,1995
2030,2030,2026,2000,1830,1983,2045,2004
2040,2040,2035,1995,1844,1977,2025,2009
2039,2041,2025,1977,1884,2004,2011,2015
2037,2045,2030,1994,1997,2038,2040,2029
2054,2058,2051,2026,2104,2080,2060,2044
2052,2058,2058,2062,2200,2112,2071,2052
2045,2059,2059,2086,2215,2144,2048,2063
2051,2061,2054,2064,2101,2103,2056,2066
2042,2050,2042,2047,2140,2039,2051,2077
2047,2060,2045,2063,2233,2053,2074,2087
2041,2049,2032,2053,2205,2057,2059,2083
2039,2040,2031,2056,2153,2069,2060,2077
2040,2051,2036,2064,2183,2076,2054,2076
2054,2047,2042,2062,2174,2076,2053,2076
2060,2054,2048,2067,2170,2078,2070,2078
2060,2055,2052,2080,2172,2068,2061,2068
2062,2066,2058,2083,2145,2049,2055,2061
2059,2064,2059,2077,2104,2032,2037,2053
2058,2068,2056,2069,2047,2028,2033,2051
2053,2062,2052,2042,1931,2022,2038,2043
2060,2058,2045,2013,1893,2020,2055,2044
2066,2062,2044,2000,1873,2035,2065,2035
2058,2061,2046,2017,1919,2051,2045,2030
2048,2052,2046,2034,1982,2068,2067,2024
2051,2052,2052,2038,1980,2079,2085,2020
2056,2056,2054,2021,1891,2083,2069,2010
2047,2046,2030,1973,1759,2075,2034,1991
2043,2032,2017,1965,1745,2060,2012,1996
2036,2031,2024,1988,1858,2064,2005,1990
2032,2026,2020,2011,1928,2038,1995,1997
2036,2030,2030,2047,2096,2023,2035,2030
2048,2050,2046,2104,2276,2073,2077,2045
2062,2063,2061,2123,2277,2107,2088,2041
2062,2064,2064,2123,2234,2151,2094,2046
2052,2055,2056,2118,2282,2192,2070,2047
2048,2060,2054,2095,2213,2182,2080,2057
2048,2062,2064,2073,2140,2159,2077,2065
2057,2061,2064,2046,2020,2124,2062,2083
2058,2060,2070,2052,2049,2072,2077,2093
2052,2059,2070,2074,2121,2068,2058,2099
2055,2057,2067,2065,2086,2078,2088,2102
2055,2059,2069,2080,2158,2095,2069,2091
2050,2059,2059,2086,2173,2091,2067,2096
2051,2052,2056,2081,2123,2050,2072,2094
2052,2047,2042,2073,2121,2026,2043,2077
2038,2025,2019,2039,2019,2010,2029,2059
2030,2018,2004,1995,1900,1978,2035,2043
2028,2013,2007,2002,1941,1948,2002,2042
2035,2017,2021,2005,1932,1946,2016,2046
2040,2030,2034,2019,1933,1954,2026,2040
2044,2050,2050,2047,2035,1973,2042,2028
2052,2059,2064,2087,2136,2002,2044,2029
2051,2060,2066,2103,2155,2030,2056,2030
2050,2055,2070,2130,2204,2050,2068,2024
2050,2052,2070,2126,2225,2043,2049,2018
2039,2044,2062,2103,2169,2022,2059,2016
2036,2042,2061,2051,2047,1998,2043,2016
2035,2053,2067,2023,2059,2026,2055,2005
2036,2047,2060,2004,2050,2037,2046,1997
2032,2034,2043,2001,1984,2020,2029,2008
2035,2042,2043,2008,1941,2036,2057,2014
2045,2053,2050,2031,1951,2008,2036,2030
2049,2058,2057,2038,1973,2000,2027,2033
2051,2061,2065,2061,2037,2021,2051,2041
2061,2075,2077,2091,2115,2053,2074,2045
2059,2073,2076,2110,2218,2070,2085,2048
2060,2062,2070,2135,2314,2107,2098,2049
2059,2057,2076,2135,2339,2137,2084,2061
2059,2066,2080,2133,2331,2168,2079,2062
2057,2065,2076,2128,2359,2155,2078,2074
2062,2066,2084,2124,2371,2149,2066,2080
2060,2068,2090,2092,2297,2108,2049,2097
2064,2074,2088,2070,2196,2094,2060,2106
2068,2068,2089,2058,1970,2076,2040,2094
2051,2042,2059,2026,1773,2038,2024,2082
2043,2025,2050,2033,1764,2047,2031,2080
2045,2028,2042,2054,1825,2046,2041,2065
2041,2019,2031,2018,1743,2002,2019,2054
2028,2021,2021,1974,1583,1950,2009,2050
2033,2020,2010,1938,1537,1921,2004,2036
2028,2009,2003,1947,1743,1941,2012,2040
2043,2014,2015,2017,2022,2004,2037,2044
2045,2031,2032,2068,2230,2056,2048,2036
2036,2031,2044,2084,2357,2111,2061,2031
2026,2035,2047,2080,2347,2122,2061,2030
2040,2041,2044,2073,2249,2104,2058,2030
2045,2037,2046,2066,2216,2070,2056,2030
2048,2040,2052,2065,2167,2019,2050,2030
2044,2037,2047,2048,2037,1994,2041,2030
2046,2032,2044,2044,2080,1998,2055,2027
2039,2028,2036,2016,1947,1972,2021,2014
2031,2024,2018,1966,1758,1957,2002,2005
2036,2025,2026,2005,2005,2024,2016,1997
2044,2027,2033,2066,2166,2062,2022,1993
2040,2030,2040,2066,2135,2078,2046,1994
2039,2025,2041,2056,2103,2078,2053,2006
2042,2025,2048,2057,2093,2078,2067,2018
2039,2030,2055,2060,2054,2080,2069,2031
2043,2037,2057,2073,2039,2116,2097,2055
2048,2041,2059,2073,2013,2125,2082,2054
2045,2038,2056,2065,1994,2111,2080,2044
2045,2038,2046,2063,2014,2107,2070,2051
2053,2041,2044,2064,2043,2119,2068,2056
2053,2051,2056,2081,2141,2121,2081,2053
2031,2057,2062,2089,2165,2075,2074,2079
2051,2065,2068,2077,2090,2023,2069,2108
2058,2052,2053,2042,2017,1992,2061,2100
2040,2032,2040,2024,2030,1986,2039,2081
2029,2038,2029,2024,2084,2000,2031,2072
2028,2039,2021,2045,2234,2060,2050,2072
2037,2046,2039,2094,2302,2125,2065,2084
2042,2052,2045,2081,2150,2107,2056,2061
2029,2036,2030,2030,1992,2078,2035,2053
2029,2030,2030,2028,2001,2074,2039,2056
2044,2039,2035,2038,1946,2037,2045,2042
2048,2048,2041,2040,1947,1994,2041,2036
2053,2056,2036,2038,1997,1972,2023,2030
2056,2056,2036,2043,2092,1983,2027,2015
2045,2039,2028,2049,2134,2018,2024,2001
2041,2051,2037,2061,2200,2065,2014,2002
2046,2054,2042,2088,2264,2129,2059,2016
2058,2053,2034,2114,2233,2127,2093,2035
2068,2051,2022,2096,2133,2065,2070,2024
2049,2034,1999,2038,2018,2018,2054,2016
2036,2023,1997,2001,1886,2002,2054,2020
2032,2041,2026,2039,1925,2021,2070,2017
2046,2054,2058,2090,1983,2040,2062,2018
2043,2047,2072,2130,2115,2074,2071,2009
2040,2037,2077,2133,2151,2067,2072,2013
2037,2034,2069,2115,2111,2064,2054,2016
2031,2033,2072,2106,2066,2045,2061,2028
2033,2040,2062,2118,2066,2015,2067,2041
2034,2038,2058,2114,2028,2003,2068,2055
2032,2038,2049,2085,1881,2018,2064,2067
2039,2035,2045,2070,1872,2092,2065,2080
2049,2040,2057,2044,1810,2154,2073,2097
2061,2053,2070,2041,1847,2173,2101,2105
2065,2057,2083,2048,1839,2146,2102,2105
2059,2054,2073,2030,1774,2040,2069,2090
2038,2027,2053,1994,1752,1997,2051,2084
2034,2032,2047,1992,1742,2027,2054,2073
2049,2044,2068,1995,1718,1983,2030,2050
2043,2039,2045,1982,1777,1954,2010,2034
2027,2027,2033,1994,1938,1962,2021,2043
2033,2043,2052,2059,2154,1988,2048,2058
2044,2055,2071,2114,2323,2078,2071,2064
2057,2068,2081,2105,2233,2125,2066,2055
2058,2070,2089,2092,2182,2132,2050,2043
2063,2077,2084,2086,2166,2130,2082,2034
2055,2067,2080,2078,2188,2117,2067,2036
2052,2064,2072,2077,2120,2063,2056,2041
2061,2071,2078,2072,1998,2025,2025,2040
2058,2066,2069,2053,1977,2033,2033,2028
2052,2057,2050,2058,2136,2080,2054,2019
2052,2049,2038,2057,2212,2084,2052,2003
2028,2021,2016,2026,2079,2010,2018,1991
2019,2012,2010,2024,2043,1992,2023,1988
2032,2024,2031,2037,2075,2001,2022,1993
2039,2029,2031,2031,2027,1993,2019,1994
2037,2030,2032,2032,2057,1988,2030,2001
2043,2034,2038,2052,2071,2017,2016,2011
2051,2046,2047,2056,2072,2019,2046,2009
2056,2039,2044,2041,2076,2011,2045,2008
2047,2032,2040,2032,2078,2004,2034,2004
2035,2028,2048,2049,2079,2007,2041,2013
2030,2020,2061,2056,2071,2001,2040,2028
2028,2030,2073,2068,2057,2016,2039,2032
2027,2031,2078,2075,2062,2029,2052,2049
2039,2038,2082,2088,2065,2039,2051,2049
2040,2040,2079,2083,2066,2043,2053,2056
2043,2040,2082,2091,2064,2057,2036,2052
2031,2025,2071,2089,2057,2051,2031,2048
2031,2022,2057,2089,2057,2045,2000,2049
2040,2033,2064,2104,2068,2052,2018,2047
2043,2036,2060,2110,2087,2046,2012,2033
2039,2034,2056,2114,2109,2022,2023,2033
2041,2035,2041,2111,2107,2016,2042,2032
2042,2031,2028,2100,2093,2017,2029,2027
2040,2030,2014,2090,2090,2020,2036,2013
2043,2028,2013,2088,2110,2032,2040,2017
2046,2034,2020,2075,2106,2049,2056,2028
2048,2041,2020,2060,2098,2049,2067,2033
2054,2035,2011,2046,2021,2041,2046,2020
2044,2031,1998,2029,1926,2036,2041,2004
2044,2022,1989,2052,2023,2057,2054,1998
2036,2010,1993,2061,2088,2055,2047,1997
2029,2008,1994,2042,2080,2061,2047,2003
2032,2003,1990,2005,1967,2074,2038,1985
2015,1990,1984,1977,1872,2089,2040,1984
2021,2000,2003,1980,1833,2125,2033,1982
2035,2012,2011,1963,1746,2132,2019,1970
2028,2012,2003,1943,1728,2077,2024,1985
2032,2017,2009,1970,1839,1967,2028,2015
2046,2033,2029,2015,1959,1879,2028,2036
2058,2045,2044,2050,2057,1899,2041,2056
2065,2060,2076,2090,2152,2000,2078,2052
2070,2070,2089,2114,2227,2085,2085,2048
2065,2062,2079,2093,2237,2113,2085,2040
2058,2047,2073,2071,2221,2099,2055,2041
2046,2036,2064,2050,2156,2086,2058,2038
2046,2035,2065,2038,2105,2077,2053,2051
2050,2039,2062,2032,2102,2082,2039,2058
2044,2040,2054,2030,2123,2078,2056,2062
2052,2038,2042,2046,2134,2065,2053,2061
2038,2020,2025,2056,2121,2062,2043,2055
2035,2030,2035,2073,2113,2061,2056,2061
2052,2046,2057,2081,2097,2064,2058,2062
2054,2058,2070,2082,2079,2054,2045,2066
2065,2070,2084,2080,2070,2068,2047,2066
2070,2074,2084,2072,2056,2079,2051,2059
2070,2069,2078,2069,2061,2080,2068,2062
2066,2060,2065,2057,2050,2078,2070,2050
2052,2055,2051,2052,2039,2074,2068,2039
2058,2051,2045,2054,2057,2071,2068,2034
2054,2048,2042,2062,2097,2080,2061,2033
2050,2047,2034,2064,2110,2075,2062,2027
2051,2039,2039,2053,2083,2055,2050,2020
2051,2036,2034,2049,2068,2052,2040,2019
2046,2037,2035,2046,2044,2043,2039,2018
2054,2036,2035,2050,2069,2040,2040,2004
2046,2026,2035,2045,2058,2034,2051,2008
2047,2024,2040,2046,2054,2029,2052,2007
2053,2038,2046,2051,2058,2026,2050,2007
2046,2041,2052,2066,2045,2014,2044,2006
2049,2042,2047,2066,2037,2015,2053,2011
2052,2042,2039,2064,2040,2017,2035,2016
2044,2032,2033,2070,2044,2026,2032,2021
2052,2035,2026,2070,2056,2042,2033,2019
2044,2036,2028,2069,2064,2044,2058,2023
2046,2034,2024,2070,2067,2041,2054,2028
2042,2027,2022,2070,2064,2037,2056,2028
2034,2029,2024,2073,2071,2050,2053,2038
2036,2023,2024,2071,2074,2046,2037,2045
2040,2018,2028,2072,2072,2051,2039,2046
2036,2025,2031,2072,2070,2058,2026,2059
2037,2020,2033,2070,2072,2083,2055,2055
2038,2016,2030,2057,2063,2110,2031,2048
2027,2016,2029,2051,2067,2121,2030,2051
2030,2024,2029,2054,2064,2127,2039,2051
2041,2036,2027,2051,2058,2103,2034,2055
2041,2035,2037,2048,2052,2052,2024,2054
2034,2041,2045,2049,2046,2031,2019,2046
2042,2045,2055,2052,2049,2058,2021,2038
2043,2049,2055,2056,2049,2076,2026,2032
2044,2045,2056,2053,2051,2079,2021,2023
2039,2043,2053,2058,2065,2070,2016,2013
2040,2031,2055,2060,2072,2072,2049,2016
2042,2046,2058,2058,2075,2067,2057,2024
2057,2055,2062,2061,2066,2056,2056,2016
2050,2052,2059,2061,2067,2059,2051,2019
2060,2053,2056,2057,2059,2050,2032,2013
2052,2048,2055,2056,2051,2022,2040,2015
2058,2049,2053,2058,2054,2006,2018,2009
2048,2037,2051,2056,2054,1998,2014,2013
2048,2047,2043,2052,2056,1997,2024,2016
2057,2054,2050,2075,2064,2016,2040,2014
2052,2057,2047,2075,2073,2039,2036,2015
2045,2055,2048,2071,2063,2061,2026,2017
2045,2049,2049,2072,2068,2061,2047,2026
2048,2053,2061,2077,2122,2066,2056,2038
2053,2057,2060,2083,2144,2071,2074,2044
2054,2061,2063,2080,2126,2076,2072,2052
2058,2065,2069,2072,2123,2082,2071,2062
2063,2064,2074,2072,2122,2075,2078,2062
2054,2059,2061,2060,2072,2057,2051,2061
2050,2056,2063,2040,2001,2019,2028,2054
2047,2060,2066,2035,1950,1990,2034,2053
2045,2060,2072,2050,1927,2003,2056,2063
2040,2056,2064,2047,1878,2035,2030,2054
2038,2040,2053,2052,1991,2064,2054,2044
2024,2023,2043,2057,2113,2101,2054,2043
2021,2025,2053,2088,2165,2107,2070,2054
2030,2030,2056,2084,2138,2102,2073,2050
2041,2036,2057,2077,2128,2097,2066,2054
2043,2034,2045,2078,2125,2081,2080,2058
2045,2028,2042,2066,2098,2038,2059,2046
2032,2025,2030,2055,2069,2027,2039,2039
2042,2031,2024,2058,2067,2036,2041,2040
2037,2030,2027,2062,2056,2042,2061,2033
2044,2028,2017,2067,2051,2027,2053,2021
2036,2022,2025,2076,2045,2035,2040,2007
2028,2017,2028,2079,2037,2037,2036,2005
2024,2021,2026,2080,2029,2045,2015,2003
2028,2024,2018,2080,2032,2040,2034,1997
2035,2024,2013,2087,2028,2014,2038,1995
2035,2029,2007,2089,2039,2012,2038,1989
2032,2016,1993,2087,2040,2030,2047,1991
2025,2017,1994,2080,2036,2050,2062,1996
2033,2025,2005,2087,2048,2066,2058,2004
2038,2022,2005,2081,2048,2056,2065,2007
2036,2022,2013,2080,2047,1995,2054,2014
2042,2031,2026,2082,2047,1971,2046,2017
2039,2033,2033,2065,2050,1987,2040,2013
2040,2027,2019,2039,2037,2012,2038,2014
2036,2021,2016,2010,2024,2027,2030,2021
2040,2030,2029,2000,2017,2036,2032,2022
2041,2046,2060,2011,2030,2037,2040,2025
2052,2064,2095,2014,2047,2060,2039,2042
2054,2076,2107,2013,2054,2072,2033,2053
2058,2085,2117,2023,2058,2076,2065,2064
2049,2079,2115,2037,2063,2064,2066,2062
2045,2071,2112,2054,2063,2056,2056,2060
2048,2070,2109,2052,2045,2042,2044,2059
2045,2053,2088,2047,2036,2039,2052,2066
2034,2058,2084,2057,2039,2045,2065,2078
2050,2074,2086,2057,2047,2046,2061,2082
2053,2064,2073,2051,2050,2048,2074,2076
2052,2071,2078,2063,2067,2043,2064,2074
2053,2069,2078,2062,2073,2026,2065,2066
2053,2067,2071,2059,2066,2021,2072,2053
2056,2062,2060,2052,2061,2015,2078,2050
2049,2055,2057,2048,2053,2012,2062,2048
2051,2051,2054,2047,2045,2020,2055,2051
2050,2053,2060,2042,2049,2033,2071,2040
2051,2058,2057,2046,2045,2053,2043,2028
2049,2053,2060,2041,2050,2061,2059,2022
2047,2055,2057,2048,2062,2056,2051,2026
2048,2055,2058,2050,2068,2069,2065,2022
2046,2055,2060,2051,2067,2072,2045,2008
2038,2046,2053,2036,2062,2074,2046,2000
2041,2045,2042,2033,2058,2069,2041,2005
2042,2049,2050,2038,2059,2058,2037,2004
2044,2051,2049,2046,2050,2056,2033,2001
2040,2048,2050,2051,2056,2049,2011,2005
2047,2057,2054,2063,2079,2041,2038,2016
2051,2056,2054,2066,2088,2070,2052,2023
2048,2057,2053,2068,2087,2081,2041,2027
2045,2052,2045,2064,2076,2069,2029,2029
2042,2042,2041,2060,2073,2068,2038,2036
2039,2045,2036,2062,2074,2073,2042,2044
2039,2044,2043,2066,2078,2071,2068,2055
2042,2043,2043,2067,2084,2062,2063,2062
2049,2054,2045,2073,2079,2027,2043,2062
2040,2051,2042,2061,2064,2014,2029,2066
2038,2047,2028,2041,2043,2011,2044,2070
2027,2029,2017,2022,2033,2006,2044,2066
2023,2025,2024,2026,2032,2010,2042,2066
2034,2041,2042,2036,2040,2018,2053,2069
2039,2041,2053,2041,2053,2021,2055,2061
2045,2042,2048,2035,2044,2030,2060,2064
2040,2039,2043,2034,2046,2031,2058,2053
2036,2038,2043,2036,2042,2033,2051,2053
2036,2038,2046,2032,2046,2038,2041,2040
2038,2043,2048,2040,2045,2053,2062,2035
2039,2042,2047,2041,2054,2068,2062,2031
2040,2042,2047,2045,2062,2076,2048,2028
2039,2043,2043,2041,2064,2088,2058,2027
2049,2039,2034,2043,2065,2114,2064,2027
2044,2036,2026,2042,2058,2136,2076,2030
2050,2036,2026,2040,2059,2141,2050,2025
2045,2040,2029,2041,2054,2102,2042,2022
2041,2038,2037,2041,2053,1991,2035,2010
2036,2036,2043,2043,2048,1955,2038,2014
2034,2043,2052,2048,2058,2000,2046,2019
2046,2047,2054,2050,2064,2025,2063,2025
2051,2042,2061,2056,2065,2027,2057,2025
2042,2043,2060,2051,2067,2037,2061,2028
2046,2044,2062,2056,2071,2052,2052,2022
2047,2044,2060,2062,2066,2058,2050,2029
2041,2045,2065,2056,2070,2059,2066,2036
2046,2047,2066,2060,2067,2061,2064,2036
2042,2043,2062,2056,2064,2046,2037,2042
2038,2050,2065,2054,2057,2053,2052,2052
2048,2053,2066,2052,2055,2056,2055,2064
2045,2057,2066,2051,2061,2066,2064,2069
2050,2052,2061,2050,2055,2063,2066,2071
2046,2046,2056,2049,2039,2049,2047,2088
2050,2045,2056,2049,2009,2036,2018,2081
2042,2039,2045,2033,1953,2019,2019,2058
2025,2033,2037,2006,1905,1987,1994,2042
2030,2041,2043,1998,1901,1997,1988,2038
2034,2045,2045,2019,1943,2014,2005,2040
2038,2045,2047,2038,2001,2010,2024,2050
2044,2049,2044,2063,2084,2021,2046,2056
2049,2055,2052,2076,2133,2047,2041,2054
2047,2052,2055,2076,2134,2060,2047,2047
2051,2051,2051,2074,2127,2072,2024,2050
2047,2054,2051,2063,2105,2075,2032,2038
2054,2058,2054,2062,2085,2062,2016,2042
2058,2058,2052,2062,2071,2055,2023,2038
2049,2051,2049,2058,2070,2057,2024,2027
2045,2041,2050,2059,2064,2060,2023,2008
2035,2040,2048,2056,2065,2065,2023,2013
2033,2032,2053,2063,2065,2070,2014,2002
2024,2017,2048,2047,2064,2065,2015,1998
2018,2019,2052,2056,2068,2059,2012,2004
2031,2034,2062,2065,2084,2059,2036,2008
2033,2027,2057,2067,2079,2080,2040,2007
2038,2028,2056,2053,2025,2091,2057,2006
2037,2028,2058,2043,1962,2077,2043,2011
2032,2023,2052,2020,1900,2053,2024,2010
2033,2030,2045,2013,1888,2002,2014,2030
2037,2035,2044,2025,1915,1951,2023,2041
2045,2043,2041,2051,2015,1987,2054,2062
2059,2058,2061,2079,2104,2047,2074,2077
2066,2072,2077,2102,2149,2048,2083,2094
2072,2079,2080,2107,2163,2044,2039,2093
2067,2069,2076,2089,2128,2070,2035,2087
2053,2054,2057,2057,2078,2061,2053,2080
2045,2053,2051,2037,2056,2042,2051,2077
2035,2034,2034,2029,2060,2018,2043,2073
2037,2031,2028,2022,2061,2031,2031,2075
2040,2035,2026,2031,2055,2068,2060,2082
2041,2031,2020,2031,2058,2075,2060,2076
2045,2039,2024,2030,2050,2064,2017,2064
2040,2042,2030,2027,2049,2039,2027,2064
2046,2053,2041,2023,2044,2036,2012,2057
2049,2051,2042,2026,2056,2053,2030,2059
2054,2053,2039,2024,2064,2069,2056,2056
2054,2052,2031,2030,2065,2076,2058,2049
2046,2044,2028,2037,2078,2068,2044,2037
2046,2045,2028,2037,2086,2065,2046,2036
2046,2042,2035,2035,2081,2059,2054,2034
2045,2052,2052,2046,2083,2060,2058,2026
2046,2050,2068,2055,2092,2057,2047,2028
2044,2057,2062,2052,2082,2054,2042,2023
2048,2046,2052,2044,2066,2035,2046,2022
2036,2041,2041,2031,2061,2033,2039,2026
2036,2040,2044,2037,2066,2043,2052,2035
2048,2051,2053,2039,2070,2044,2059,2040
2049,2044,2048,2042,2072,2047,2070,2036
2045,2049,2038,2045,2072,2055,2064,2034
2049,2045,2037,2052,2072,2071,2076,2038
2041,2047,2028,2046,2084,2076,2063,2042
2040,2038,2035,2041,2076,2084,2076,2042
2040,2035,2029,2049,2075,2079,2068,2056
2042,2036,2028,2045,2069,2073,2061,2062
2048,2041,2022,2044,2069,2070,2072,2068
2040,2040,2023,2038,2065,2075,2069,2075
2042,2037,2028,2039,2053,2056,2054,2080
2039,2039,2025,2035,2041,2031,2035,2084
2039,2041,2020,2036,2034,2046,2036,2079
2032,2034,2020,2030,1996,2049,2025,2071
2025,2021,2016,2017,1961,2033,2014,2067
2026,2024,2026,2020,1943,2035,2018,2066
2034,2033,2036,2017,1933,2019,2010,2062
2036,2037,2046,2023,1980,1988,2016,2072
2043,2048,2064,2052,2061,1989,2022,2068
2053,2060,2081,2075,2102,2017,2059,2071
2062,2067,2084,2082,2100,2049,2064,2066
2062,2070,2073,2081,2101,2070,2063,2053
2062,2064,2071,2076,2097,2092,2061,2043
2057,2063,2058,2072,2093,2107,2066,2040
2063,2061,2056,2069,2082,2106,2078,2047
2053,2064,2048,2061,2070,2091,2071,2034
2051,2053,2049,2052,2053,2072,2063,2034
2052,2048,2052,2048,2032,2050,2059,2026
2051,2053,2057,2043,2013,2044,2062,2029
2052,2053,2060,2030,2006,2052,2028,2032
2038,2044,2052,2023,2023,2063,2031,2025
2047,2044,2061,2028,2044,2082,2041,2043
2052,2062,2091,2050,2078,2050,2061,2045
2059,2073,2105,2059,2068,2025,2040,2038
2060,2081,2106,2055,2054,2028,2016,2037
2057,2072,2092,2043,2045,2028,2011,2036
2049,2063,2069,2028,2027,2049,2007,2046
2050,2056,2051,2021,2021,2033,2029,2060
2053,2059,2055,2034,2035,2052,2040,2062
2056,2060,2052,2031,2028,2090,2012,2058
2049,2051,2048,2017,2035,2127,2025,2058
2051,2050,2038,2024,2060,2114,2026,2062
2049,2050,2049,2041,2090,2033,2027,2074
2049,2056,2050,2043,2096,2015,2034,2088
2054,2052,2047,2047,2094,2046,2041,2095
2051,2049,2045,2052,2085,2063,2045,2086
2051,2038,2035,2033,2058,2052,2052,2076
2042,2037,2033,2030,2059,2043,2058,2082
2044,2041,2040,2049,2066,2045,2063,2089
2048,2054,2044,2051,2070,2030,2057,2090
2051,2056,2039,2056,2063,1991,2054,2085
2062,2050,2039,2049,2059,1958,2038,2080
2057,2041,2037,2046,2046,1957,2029,2069
2057,2041,2025,2055,2040,1987,2045,2065
2059,2042,2013,2053,2041,2021,2068,2060
2052,2038,2013,2059,2047,2059,2063,2055
2050,2036,2016,2062,2049,2076,2067,2054
2052,2036,2018,2062,2051,2076,2087,2051
2053,2036,2013,2054,2038,2075,2055,2043
2052,2031,2014,2047,2046,2076,2064,2039
2045,2029,1994,2051,2049,2079,2059,2037
2044,2027,1990,2051,2048,2075,2061,2031
2046,2027,1981,2045,2034,2064,2047,2016
2037,2012,1976,2041,2003,2058,2043,2016
2036,2020,1986,2049,2046,2096,2048,2024
2045,2036,2000,2055,2081,2105,2064,2027
2047,2043,2003,2059,2093,2124,2056,2023
2045,2045,2013,2055,2084,2119,2040,2020
2048,2044,2025,2047,2049,2092,2043,2031
2044,2044,2030,2049,2044,2056,2031,2040
2044,2040,2035,2038,2049,2047,2042,2049
2052,2046,2033,2025,2023,2023,2028,2058
2056,2052,2044,2017,1997,1986,2055,2075
2060,2064,2069,2046,2053,1995,2080,2079
2063,2069,2072,2055,2039,2022,2079,2083
2062,2065,2080,2038,1955,2007,2049,2080
2049,2060,2076,2021,1885,1991,2045,2080
2045,2048,2066,1991,1822,1974,2026,2078
2034,2036,2045,1953,1788,1972,2018,2068
2029,2025,2034,1952,1822,1952,2017,2077
2034,2036,2072,1991,1946,1959,2025,2103
2049,2074,2122,2054,2132,1997,2043,2121
2075,2093,2142,2087,2205,2051,2058,2120
2080,2090,2137,2074,2146,2055,2071,2111
2069,2076,2113,2056,2098,2052,2055,2087
2054,2065,2089,2040,2071,2055,2056,2062
2041,2054,2075,2019,2015,2072,2032,2038
2043,2042,2074,2006,1970,2081,2032,2027
2026,2029,2066,2002,1940,2076,2035,2019
2028,2027,2054,2004,1905,2054,2053,2027
2020,2032,2053,2005,1838,1992,2055,2047
2035,2043,2056,2024,1954,1986,2071,2048
2038,2055,2066,2049,2108,2015,2073,2047
2046,2051,2065,2057,2166,2039,2058,2041
2053,2053,2061,2054,2151,2042,2025,2035
2043,2041,2047,2033,2103,2050,2030,2021
2043,2027,2045,2042,2120,2060,2045,2032
2043,2040,2055,2072,2146,2065,2069,2050
2059,2055,2054,2078,2133,2053,2043,2057
2067,2062,2058,2086,2112,2053,2045,2047
2064,2055,2050,2072,2056,2112,2045,2033
2052,2040,2042,2053,2006,2136,2049,2023
2046,2031,2027,2035,1983,2112,2035,2024
2042,2026,2027,2038,1978,2085,2016,2026
2037,2031,2039,2040,2002,2035,2048,2050
2044,2036,2042,2046,2062,1963,2039,2070
2052,2050,2045,2052,2115,1966,2059,2076
2046,2048,2048,2052,2112,2010,2058,2088
2051,2046,2043,2047,2099,2030,2048,2086
2046,2052,2041,2043,2090,2043,2039,2083
2043,2047,2042,2041,2081,2048,2045,2089
2051,2045,2038,2035,2077,2044,2060,2083
2043,2038,2017,2022,2068,2046,2041,2087
2040,2032,2016,2024,2082,2045,2068,2088
2056,2045,2027,2042,2077,2041,2060,2098
2056,2057,2050,2044,2084,2050,2071,2093
2067,2066,2057,2044,2079,2069,2049,2088
2060,2059,2065,2031,2060,2094,2041,2084
2064,2067,2075,2030,2037,2112,2055,2077
2066,2072,2072,2031,2015,2128,2045,2072
2067,2065,2063,2025,1994,2115,2046,2067
2063,2059,2064,2033,2016,2135,2066,2065
2066,2067,2073,2066,2101,2168,2079,2071
2067,2066,2078,2086,2159,2161,2084,2067
2066,2063,2068,2068,2146,2018,2058,2052
2057,2061,2074,2052,2077,1940,2055,2047
2056,2060,2077,2011,1922,1928,2055,2035
2055,2056,2071,2008,1884,1929,2042,2031
2049,2042,2070,2030,1925,1956,2048,2038
2042,2047,2067,2042,1983,1972,2046,2032
2050,2047,2067,2042,2032,2001,2051,2029
2046,2051,2071,2069,2090,2054,2061,2047
2052,2058,2070,2074,2116,2080,2062,2045
2054,2051,2059,2073,2125,2095,2066,2047
2050,2050,2056,2069,2118,2103,2069,2048
2051,2051,2051,2066,2109,2078,2073,2056
2051,2042,2039,2053,2089,2067,2069,2056
2048,2040,2040,2049,2052,2049,2057,2056
2038,2037,2043,2044,2028,2035,2039,2059
2030,2038,2040,2041,2017,2030,2048,2071
2032,2033,2034,2040,2035,2060,2041,2073
2038,2032,2032,2037,2048,2075,2033,2073
2042,2034,2029,2030,2064,2074,2026,2083
2037,2033,2019,2021,2044,2045,2030,2077
2025,2010,2013,2007,2028,2027,2026,2076
2027,2016,2013,2022,2020,2019,2026,2077
2041,2033,2030,2034,2024,2023,2041,2067
2037,2028,2024,2035,2029,2022,2045,2071
2037,2035,2018,2032,2028,2022,2039,2065
2034,2035,2026,2024,2024,2023,2037,2062
2038,2033,2016,2021,2026,2026,2012,2060
2040,2033,2021,2011,2021,2034,2024,2054
2043,2042,2025,2020,2014,2038,2046,2055
2047,2056,2029,2024,2037,2046,2062,2049
2054,2054,2035,2026,2071,2050,2052,2053
2056,2043,2035,2026,2062,2043,2047,2040
2052,2046,2030,2026,2064,2037,2053,2035
2047,2040,2026,2023,2045,2034,2043,2036
2049,2036,2026,2020,2029,2026,2036,2028
2051,2032,2027,2031,2035,2020,2024,2026
2037,2030,2026,2024,1998,2010,2031,2032
2050,2048,2036,2011,1941,1986,2034,2035
2052,2055,2043,2017,1975,1988,2028,2033
2051,2049,2037,2020,2004,2008,2028,2043
2046,2047,2041,2042,2044,2033,2041,2044
2040,2043,2038,2056,2093,2047,2054,2046
2041,2036,2041,2057,2084,2060,2065,2047
2044,2041,2036,2042,2019,2096,2076,2053
2048,2042,2028,2052,2070,2131,2087,2047
2048,2037,2032,2051,2084,2128,2072,2043
2041,2027,2031,2054,2074,2127,2075,2053
2031,2019,2034,2048,2063,2097,2061,2069
2030,2023,2038,2050,2056,2055,2067,2081
2034,2028,2043,2061,2063,2029,2059,2085
2034,2036,2052,2063,2082,2035,2058,2089
2036,2038,2045,2060,2067,2035,2036,2082
2037,2033,2042,2044,2042,2027,2020,2076
2036,2038,2044,2040,2035,2031,2029,2083
2041,2046,2040,2043,2024,2029,2049,2096
2053,2050,2035,2041,1999,2012,2049,2093
2047,2048,2029,2041,2004,2014,2041,2082
2051,2050,2034,2046,2010,2026,2050,2078
2049,2046,2032,2035,2002,2038,2045,2072
2046,2045,2032,2034,2004,2048,2069,2070
2038,2046,2037,2025,2028,2063,2057,2064
2046,2047,2043,2033,2054,2073,2068,2062
2052,2067,2078,2050,2071,2069,2082,2052
2062,2080,2110,2064,2076,2076,2073,2053
2063,2091,2115,2059,2060,2074,2071,2051
2059,2079,2099,2062,2026,2052,2035,2050
2060,2073,2096,2070,2005,2034,2040,2041
2059,2075,2090,2080,2018,2013,2046,2040
2068,2074,2090,2089,2054,2002,2056,2046
2063,2059,2072,2087,2078,2017,2052,2046
2062,2058,2068,2089,2068,2047,2067,2046
2060,2062,2071,2078,1985,2071,2072,2042
2061,2057,2071,2072,2004,2075,2041,2042
2060,2053,2059,2063,2027,2078,2056,2043
2044,2060,2058,2064,2029,2056,2045,2043
2049,2062,2066,2071,2051,2039,2033,2054
2055,2068,2052,2076,2071,2045,2044,2056
2054,2057,2026,2069,2078,2060,2043,2056
2047,2053,2011,2083,2140,2068,2061,2052
2046,2047,2010,2087,2146,2057,2063,2058
2047,2044,2010,2077,2072,2049,2064,2059
2046,2037,1997,2050,1946,2042,2053,2064
2036,2036,1990,2041,1957,2047,2034,2068
2043,2037,1996,2034,2012,2060,2039,2081
2034,2036,2007,1997,2015,2075,2034,2080
2031,2033,1997,1956,1965,2070,2012,2063
2024,2019,2002,1929,1919,2060,2007,2061
2020,2014,2011,1941,1922,2050,2031,2074
2027,2023,2024,1959,1936,2022,2035,2068
2035,2030,2033,1997,1980,1986,2036,2079
2040,2032,2036,2018,2020,2011,2026,2073
2044,2031,2030,2009,2016,2028,2025,2065
2044,2029,2026,2020,2034,2035,2028,2071
2049,2043,2041,2041,2053,2020,2053,2060
2052,2052,2039,2042,2052,2035,2062,2056
2054,2046,2029,2027,2043,2047,2051,2053
2057,2053,2023,2015,2013,2062,2046,2044
2061,2052,2025,1992,1928,2049,2044,2037
2054,2047,2011,1980,1939,1996,2034,2038
2059,2047,2019,2009,2045,2000,2056,2047
2058,2052,2032,2037,2092,2025,2070,2038
2054,2052,2022,2047,2070,2036,2056,2024
2051,2035,2006,2029,2055,2032,2014,2019
2027,2024,2000,2024,2046,2034,2046,2012
2029,2024,2008,2023,2048,2050,2063,2020
2036,2040,2035,2033,2054,2068,2071,2023
2049,2054,2047,2029,2036,2087,2062,2024
2046,2049,2047,2011,2006,2094,2062,2024
2036,2043,2044,2001,1983,2084,2054,2027
2030,2036,2048,1979,1957,2056,2037,2030
2037,2033,2069,1967,1952,1999,2042,2053
2053,2047,2091,1995,2024,1992,2036,2069
2057,2048,2100,2010,2062,2013,2048,2067
2049,2049,2097,2019,2066,2041,2064,2067
2053,2059,2098,2034,2080,2064,2062,2081
2065,2068,2089,2044,2044,2033,2063,2094
2071,2061,2072,2033,2012,2016,2046,2092
2060,2037,2052,2018,1997,2023,2036,2082
2041,2026,2035,2018,2019,2044,2039,2079
2037,2018,2033,2038,2050,2059,2028,2098
2050,2031,2055,2054,2088,2052,2051,2104
2058,2059,2078,2058,2104,2061,2040,2100
2067,2076,2090,2054,2091,2086,2057,2091
2067,2075,2088,2036,2054,2093,2073,2082
2066,2079,2091,2042,2044,2095,2069,2079
2063,2088,2101,2059,2037,2101,2072,2072
2059,2085,2097,2062,2036,2094,2074,2063
2055,2078,2084,2058,2036,2063,2064,2053
2053,2065,2075,2053,2014,2027,2065,2047
2052,2062,2063,2064,2027,2026,2064,2038
2046,2061,2062,2074,2049,2031,2052,2042
2050,2054,2043,2073,2069,2043,2060,2032
2048,2047,2035,2059,2054,2068,2053,2033
2047,2066,2044,2056,2030,2079,2063,2031
2043,2072,2045,2046,2016,2065,2047,2028
2042,2062,2051,2051,2024,2068,2049,2027
2046,2063,2076,2073,2056,2090,2043,2033
2053,2081,2099,2080,2045,2090,2062,2036
2056,2085,2107,2080,2015,2065,2063,2042
2056,2083,2106,2084,2034,2085,2080,2057
2063,2075,2092,2084,2063,2087,2080,2056
2061,2055,2087,2078,2085,2076,2071,2043
2049,2052,2098,2090,2073,2064,2068,2034
2035,2047,2106,2105,2072,2064,2055,2038
2042,2043,2114,2113,2080,2064,2056,2040
2035,2025,2092,2115,2041,2003,2038,2051
2037,2025,2083,2116,2005,1987,2043,2064
2036,2021,2080,2121,2042,2009,2055,2077
2039,2028,2077,2120,2072,2033,2035,2082
2040,2026,2072,2096,2056,2068,2037,2080
2038,2031,2066,2078,2066,2042,2046,2082
2034,2044,2054,2057,2010,2018,2015,2068
2036,2035,2026,2025,1958,2002,1989,2064
2039,2036,2009,2010,1920,2044,1986,2060
2030,2027,2002,1988,1900,2036,2006,2071
2032,2024,1994,1966,1914,1947,2033,2090
2053,2036,1997,1982,2046,1981,2060,2087
2060,2046,2016,2003,2104,2036,2058,2085
2067,2051,2028,2033,2142,2089,2073,2084
2066,2059,2046,2042,2166,2100,2055,2071
2072,2069,2057,2053,2177,2077,2041,2067
2066,2065,2052,2058,2159,2035,2073,2049
2050,2056,2050,2050,2117,1979,2047,2036
2048,2048,2042,2033,2076,1944,2041,2033
2044,2044,2037,2036,2095,1952,2030,2024
2051,2050,2043,2037,2144,1969,2054,2031
2053,2057,2052,2039,2119,2000,2061,2041
2052,2060,2051,2026,2011,2012,2054,2038
2042,2052,2049,2034,1973,2048,2038,2044
2051,2057,2051,2038,1997,2076,2052,2045
2058,2053,2046,2040,2012,2084,2062,2050
2055,2049,2041,2030,2027,2096,2064,2046
2056,2044,2048,2026,2023,2082,2038,2043
2057,2050,2053,1982,1872,2037,2045,2036
2057,2049,2051,1958,1857,2022,2035,2046
2061,2049,2051,1985,1985,2035,2039,2050
2055,2044,2049,1995,2032,2032,2039,2044
2053,2041,2044,1997,2040,2032,2027,2039
2044,2032,2038,2004,2085,2054,2039,2050
2046,2036,2040,2023,2101,2079,2056,2066
2040,2036,2058,2040,2072,2067,2065,2076
2044,2043,2091,2052,2050,2064,2050,2085
2045,2048,2093,2068,2043,2061,2055,2085
2042,2045,2089,2065,2041,2044,2030,2073
2029,2030,2074,2059,2035,2038,2020,2059
2028,2028,2072,2074,2038,2034,2011,2073
2044,2035,2079,2082,2049,2038,2039,2074
2053,2043,2071,2084,2032,2029,2009,2073
2056,2049,2069,2082,2013,2026,2037,2069
2055,2055,2067,2084,2010,2023,2020,2075
2047,2057,2058,2086,2002,2017,2041,2051
2047,2054,2049,2090,2026,2024,2037,2043
2046,2045,2037,2098,2074,2053,2030,2040
2046,2042,2029,2098,2094,2062,2025,2030
2039,2032,2022,2073,2090,2074,2044,2032
2041,2033,2017,2043,2048,2080,2037,2031
2042,2034,2015,2029,2069,2078,2074,2017
2041,2042,2039,2042,2119,2078,2062,2024
2050,2053,2053,2038,2143,2093,2069,2031
2063,2065,2054,2030,2161,2093,2078,2028
2058,2055,2039,2015,2173,2082,2057,2041
2060,2054,2033,2025,2162,2082,2051,2043
2072,2054,2031,2033,2088,2092,2066,2038
2068,2049,2020,2006,1950,2056,2048,2032
2052,2041,2018,1983,1838,2008,2000,2026
2047,2037,2016,1970,1704,1959,1985,2023
2050,2040,2017,1968,1727,1913,2013,2049
2060,2052,2030,2000,1932,1918,2053,2072
2074,2052,2046,2030,2099,1968,2061,2076
2073,2052,2055,2033,2139,2024,2057,2082
2063,2051,2051,2024,2079,2061,2067,2079
2064,2051,2054,2006,2034,2078,2073,2076
2053,2045,2051,1987,2010,2082,2063,2076
2047,2047,2049,1965,2023,2082,2081,2077
2056,2054,2058,2009,2079,2060,2084,2106
2068,2060,2064,2020,2127,2076,2104,2105
2064,2045,2044,2004,2092,2088,2079,2089
2052,2033,2036,2000,2074,2067,2050,2083
2045,2037,2037,2003,2054,2058,2048,2085
2060,2044,2045,2019,2058,2052,2053,2077
2054,2046,2047,2024,2037,2061,2053,2068
2048,2041,2046,2041,2052,2072,2049,2061
2043,2036,2038,2046,2001,2042,2020,2056
2038,2031,2027,2037,1996,2033,2034,2051
2047,2028,2027,2052,2024,2039,2030,2042
2054,2037,2033,2058,2028,2036,2051,2047
2056,2043,2038,2069,2050,2043,2069,2045
2054,2038,2036,2075,2064,2048,2062,2032
2045,2021,2016,2078,2065,2042,2039,2021
2029,2009,2003,2081,2061,2045,2027,2019
2041,2011,2018,2090,2094,2056,2023,2015
2034,2022,2019,2101,2119,2068,2046,2010
2041,2031,2033,2100,2125,2094,2048,2013
2038,2026,2034,2114,2126,2121,2069,2017
2041,2024,2034,2110,2094,2150,2081,2032
2052,2038,2037,2091,2067,2180,2093,2041
2056,2045,2033,2068,2034,2196,2092,2048
2059,2041,2033,2026,1972,2143,2063,2053
2056,2040,2041,2003,1934,2030,2077,2044
2061,2045,2058,2024,1971,1999,2077,2054
2065,2053,2073,2032,1964,2039,2068,2063
2062,2052,2070,2015,1957,2057,2059,2064
2064,2047,2065,2017,1984,2050,2063,2080
2069,2055,2082,2026,1991,2009,2073,2102
2065,2066,2097,2029,1984,1950,2045,2100
2059,2072,2101,2022,1930,1919,2023,2092
2062,2078,2105,2032,1863,1944,2030,2093
2064,2094,2118,2022,1840,1943,2035,2085
2059,2081,2099,2000,1907,1955,2027,2067
2038,2049,2057,1980,2035,1979,2001,2068
2035,2029,2033,1999,2115,2047,2025,2070
2041,2036,2045,2028,2102,2094,2043,2068
2038,2029,2032,2020,2063,2104,2053,2055
2035,2028,2023,2021,2098,2090,2022,2053
2040,2035,2022,2024,2136,2068,2031,2047
2046,2037,2038,2036,2137,2030,2026,2055
2055,2049,2063,2077,2174,2048,2024,2047
2051,2046,2072,2102,2194,2062,2038,2045
2054,2053,2088,2112,2204,2082,2037,2031
2050,2048,2088,2090,2157,2083,2045,2031
2047,2045,2093,2073,2076,2076,2050,2030
2045,2042,2084,2056,2017,2070,2055,2024
2040,2030,2072,2043,2029,2085,2063,2030
2042,2035,2069,2036,2002,2095,2065,2030
2039,2037,2069,2066,2066,2110,2079,2027
2045,2037,2073,2063,2070,2095,2061,2021
2050,2040,2078,2068,2074,2081,2061,2034
2062,2051,2082,2079,2079,2064,2048,2035
2050,2039,2055,2043,1984,2047,2019,2019
2037,2016,2031,2010,1945,2043,2026,2008
2038,2027,2033,2016,1921,2008,2029,2021
2057,2053,2047,2002,1846,1949,2020,2031
2064,2059,2040,1977,1880,1941,2020,2042
2065,2050,2028,2015,2101,1977,2032,2030
2053,2036,2016,2036,2167,2008,2051,2040
2050,2014,1996,2036,2151,2033,2051,2049
2044,2002,1996,2033,2125,2055,2050,2054
2044,2015,2023,2052,2131,2072,2052,2058
2051,2036,2054,2059,2095,2065,2036,2058
2039,2033,2065,2043,2040,2067,2054,2081
2055,2043,2071,2043,1972,2047,2065,2090
2058,2045,2079,2060,1920,2067,2066,2090
2057,2044,2094,2091,2012,2110,2078,2097
2053,2059,2105,2110,2108,2133,2085,2102
2056,2064,2099,2108,2120,2133,2078,2094
2058,2061,2087,2117,2119,2114,2054,2087
2058,2058,2074,2107,2085,2127,2066,2076
2050,2049,2065,2101,2062,2118,2046,2059
2050,2054,2042,2061,2001,2070,2040,2043
2048,2042,2026,2007,1856,1966,2015,2034
2048,2041,2022,2001,1912,1890,2017,2024
2050,2046,2027,2021,2039,1924,2029,2019
2036,2028,2018,2004,1987,1956,2014,2013
2026,2024,2001,1997,1999,2008,2030,2017
2032,2028,2003,2014,2039,2040,2026,2032
2050,2041,2026,2043,2052,2044,2026,2037
2059,2049,2036,2062,2069,2063,2016,2043
2068,2055,2048,2087,2091,2068,2041,2046
2068,2045,2046,2088,2082,2067,2047,2039
2067,2033,2044,2079,2078,2064,2055,2050
2057,2031,2042,2074,2053,2056,2047,2055
2056,2033,2045,2070,2009,2043,2063,2058
2056,2038,2040,2064,1984,2048,2076,2060
2063,2040,2044,2056,1939,2060,2069,2061
2062,2048,2046,2051,1904,2066,2064,2074
2066,2050,2047,2036,1866,2083,2063,2071
2062,2052,2060,2070,1901,2117,2065,2067
2065,2066,2060,2093,1934,2131,2094,2085
2077,2064,2054,2090,1945,2111,2085,2091
2062,2054,2045,2079,1950,2084,2070,2090
2065,2055,2053,2090,1999,2090,2060,2095
2063,2054,2065,2085,2031,2078,2053,2088
2056,2049,2061,2048,2001,2040,2033,2075
2047,2032,2044,1999,1970,1990,2007,2059
2027,2006,2019,1987,2013,1967,2020,2053
2013,1994,2009,1982,2006,1956,2017,2057
2021,2012,2020,2008,1988,1954,2005,2058
2027,2033,2041,2038,2066,1985,2010,2054
2032,2042,2054,2052,2209,2016,2023,2049
2047,2053,2073,2053,2306,2069,2012,2050
2060,2062,2081,2062,2351,2109,2021,2050
2057,2068,2072,2044,2222,2088,2009,2039
2049,2057,2050,2016,2176,2053,2010,2036
2042,2054,2034,2000,2129,2013,2005,2034
2047,2060,2035,2005,2078,1990,2026,2039
2041,2046,2028,2000,2030,2030,2043,2037
2053,2043,2042,2008,2028,2091,2062,2030
2059,2048,2045,2000,1832,2102,2071,2035
2062,2053,2054,2030,1862,2087,2075,2051
2075,2062,2070,2069,1951,1974,2080,2055
2060,2050,2058,2075,2016,1943,2058,2049
2046,2043,2055,2072,2025,1991,2052,2045
2048,2048,2051,2046,1949,1998,2019,2030
2034,2040,2039,2017,1945,2004,2035,2038
2035,2044,2041,2027,2073,2055,2024,2042
2052,2052,2043,2066,2220,2052,2023,2050
2053,2059,2057,2104,2297,2040,2027,2049
2058,2068,2062,2105,2225,2033,1996,2039
2051,2066,2053,2097,2197,2016,2000,2041
2054,2055,2052,2094,2220,2034,2030,2055
2046,2055,2052,2090,2225,2068,2037,2066
2050,2060,2051,2095,2206,2090,2038,2082
2053,2060,2053,2086,2204,2105,2057,2092
2052,2064,2063,2103,2202,2115,2054,2099
2064,2064,2065,2095,2141,2090,2048,2099
2058,2057,2061,2065,2027,2070,2042,2102
2045,2035,2043,2050,1885,2074,2029,2099
2053,2032,2036,2016,1845,2122,2048,2108
2059,2050,2043,2027,1973,2162,2052,2099
2056,2052,2048,2053,1959,2152,2047,2090
2058,2060,2058,2088,1962,2079,2038,2090
2062,2065,2054,2082,2002,1999,2005,2078
2057,2059,2057,2072,2040,2010,2038,2068
2055,2060,2054,2067,2057,2024,2009,2057
2055,2059,2046,2053,2012,2019,2016,2046
2049,2053,2043,2056,1974,2033,2023,2037
2044,2054,2042,2036,1782,2000,2009,2030
2052,2050,2048,2028,1678,1959,2005,2044
2056,2062,2062,2036,1814,1976,2040,2048
2069,2075,2067,2049,1876,1996,2043,2056
2071,2075,2064,2052,1942,2022,2052,2052
2066,2070,2064,2076,2105,2046,2057,2043
2058,2057,2058,2091,2276,2085,2060,2042
2047,2052,2060,2090,2355,2084,2058,2041
2058,2057,2061,2104,2472,2075,2051,2034
2042,2044,2042,2084,2467,2069,2037,2016
2024,2030,2025,2045,2390,2052,2038,2004
2014,2012,2007,1996,2305,2027,2009,2000
2021,2016,2010,2005,2314,2065,2037,2022
2043,2026,2028,2014,2070,2094,2061,2027
2040,2030,2028,1992,1813,2056,2053,2028
2034,2023,2025,1971,1695,2049,2058,2029
2035,2024,2034,2001,1804,2107,2051,2033
2026,2031,2046,2067,2051,2148,2054,2042
2022,2030,2054,2094,2156,2144,2053,2060
2032,2034,2056,2104,2155,2167,2054,2067
2036,2037,2063,2118,2161,2176,2084,2089
2039,2042,2064,2130,2178,2167,2071,2080
2032,2036,2056,2106,2101,2097,2049,2083
2035,2040,2055,2068,1962,2044,2046,2089
2051,2059,2065,2058,1975,2044,2045,2098
2059,2071,2074,2073,2046,2060,2056,2098
2066,2075,2070,2058,2062,2053,2060,2096
2056,2071,2061,2041,2085,1981,2049,2084
2056,2061,2046,2011,1977,1855,2024,2065
2048,2046,2024,1961,1850,1825,1988,2043
2035,2035,2020,1978,1975,1877,1972,2032
2024,2036,2025,2004,1955,1930,2002,2027
2035,2043,2025,2021,1908,1953,2003,2022
2042,2054,2036,2046,1978,1994,2025,2026
2047,2059,2049,2054,1971,2016,2027,2034
2055,2057,2047,2051,1960,2014,2016,2029
2062,2064,2048,2039,1961,2024,2025,2029
2056,2053,2035,2034,1976,2022,2022,2022
2043,2032,2024,2038,2035,2013,2034,2013
2044,2034,2025,2046,2056,2026,2007,2018
2048,2049,2033,2057,2075,2040,2042,2019
2048,2047,2029,2054,2096,2032,2047,2032
2053,2049,2042,2052,2122,2041,2056,2037
2060,2062,2050,2058,2074,2039,2066,2048
2070,2066,2059,2072,2059,2014,2042,2059
2072,2068,2064,2066,2041,2033,2065,2070
2062,2065,2062,2046,2024,2059,2073,2069
2058,2058,2058,2051,2019,2086,2081,2070
2058,2054,2056,2063,2028,2112,2074,2076
2057,2054,2052,2055,1966,2107,2072,2077
2050,2054,2047,2044,1936,2091,2046,2078
2047,2055,2048,2062,1954,2077,2026,2080
2051,2058,2063,2032,1840,1991,2021,2092
2053,2061,2071,2049,1906,1914,2014,2109
2055,2062,2071,2062,1982,1939,2030,2099
2053,2054,2061,2046,2130,1982,2036,2100
2062,2065,2058,2069,2253,2055,2037,2101
2073,2067,2056,2060,2053,2079,2016,2091
2065,2066,2053,2035,1888,2128,2025,2080
2054,2055,2044,2016,1910,2166,1987,2057
2045,2046,2031,2018,1975,2149,1988,2056
2046,2040,2037,2039,2008,2078,2000,2036
2037,2031,2019,2002,1901,1953,1983,2013
2028,2021,2008,1966,1836,1917,1996,2019
2024,2021,2021,1993,1974,1975,2020,2029
2040,2039,2041,2059,2132,2004,2043,2034
2035,2033,2036,2084,2213,2036,2029,2011
2020,2036,2039,2111,2268,2091,2054,1993
2024,2035,2040,2101,2213,2104,2046,1999
2030,2030,2036,2035,2088,2087,2006,1991
2022,2019,2014,1999,2048,2065,2013,2006
2025,2018,2018,2000,1983,2048,2028,2028
2041,2031,2037,2000,1920,2030,2033,2022
2045,2038,2033,2005,1936,2004,2046,2008
2032,2032,2027,2010,1972,1990,2052,2022
2041,2041,2048,2062,2090,2000,2079,2051
2061,2050,2062,2088,2114,2034,2088,2053
2065,2045,2059,2081,2072,2062,2078,2049
2051,2040,2046,2067,2021,2086,2074,2033
2048,2037,2037,2062,2003,2116,2081,2043
2053,2033,2024,2052,1993,2129,2075,2055
2050,2039,2029,2047,1998,2142,2045,2064
2034,2035,2030,2031,1957,2141,2041,2069
2035,2034,2032,2034,2004,2093,2047,2061
2021,2032,2029,2044,2158,2037,2027,2054
2014,2025,2022,2070,2252,2010,2018,2066
2022,2028,2026,2121,2354,2006,2017,2074
2036,2030,2033,2124,2343,2032,2030,2077
2042,2045,2045,2101,2258,2039,2028,2074
2041,2045,2040,2075,2197,2036,2030,2056
2043,2047,2042,2054,2081,2035,2034,2058
2049,2045,2042,2058,2025,2047,2050,2066
2060,2045,2041,2060,2098,2067,2056,2072
2071,2042,2037,2063,2150,2085,2054,2071
2070,2049,2043,2068,2194,2092,2052,2058
2067,2056,2058,2081,2190,2075,2034,2047
2056,2060,2071,2065,2045,2048,2035,2035
2050,2069,2088,2070,1972,2062,2032,2026
2048,2069,2082,2057,1923,2045,2020,2012
2043,2048,2060,1990,1729,1985,2010,2005
2027,2032,2041,2001,1925,2014,2028,2003
2027,2030,2040,2043,2106,2057,2050,2004
2017,2022,2035,2060,2196,2069,2046,2005
2032,2032,2043,2058,2146,2058,2045,2017
2046,2054,2056,2060,2096,2034,2047,2016
2051,2056,2056,2050,2068,2033,2046,2012
2044,2044,2056,2053,2056,2027,2033,2010
2041,2047,2061,2059,2034,2009,2032,2018
2050,2055,2068,2060,2044,1998,2027,2027
2053,2059,2072,2066,2051,1999,2033,2044
2056,2056,2072,2068,2038,2009,2040,2043
2054,2058,2067,2063,2047,2026,2044,2047
2050,2046,2051,2054,2050,2029,2062,2059
2048,2052,2053,2049,2041,2030,2075,2069
2053,2053,2059,2053,2018,2026,2070,2078
2047,2049,2048,2043,2000,2039,2078,2089
2054,2049,2055,2046,2024,2071,2071,2087
2055,2057,2055,2064,2060,2097,2067,2093
2047,2045,2054,2047,1994,2070,2077,2094
2048,2045,2050,2037,1929,2044,2082,2091
2043,2051,2052,2040,1923,2049,2053,2067
2037,2040,2045,2034,1945,2074,2051,2058
2024,2033,2035,2044,1985,2090,2054,2047
2029,2043,2042,2059,2042,2101,2054,2042
2040,2047,2059,2076,2082,2091,2062,2039
2044,2053,2054,2079,2094,2057,2044,2036
2037,2043,2047,2066,2114,2034,2039,2032
2038,2040,2046,2059,2219,2046,2040,2032
2041,2045,2050,2073,2283,2074,2036,2032
2045,2048,2056,2067,2199,2085,2034,2029
2036,2053,2053,2028,2022,2057,2041,2020
2029,2049,2044,2000,1908,2036,2020,2014
2036,2047,2040,2019,2002,2048,2040,2016
2043,2042,2046,2031,2081,2081,2051,2013
2032,2036,2040,2041,2086,2104,2057,2018
2029,2033,2036,2052,2118,2124,2075,2021
2046,2044,2045,2046,2081,2098,2046,2021
2048,2047,2045,2041,2065,2056,2043,2021
2050,2051,2041,2041,2036,2020,2055,2023
2045,2044,2043,2035,1988,1996,2035,2016
2042,2046,2049,2049,1962,2004,2046,2023
2041,2047,2052,2055,1945,2012,2056,2029
2050,2050,2050,2049,1943,2012,2054,2036
2052,2045,2045,2047,1956,2026,2062,2050
2052,2047,2046,2069,2025,2029,2070,2057
2053,2051,2048,2083,2085,2040,2071,2059
2045,2041,2046,2084,2088,2043,2056,2065
2039,2041,2046,2077,2165,2047,2056,2068
2043,2039,2045,2077,2234,2062,2055,2076
2046,2042,2051,2091,2234,2074,2062,2082
2038,2041,2045,2076,2125,2065,2058,2076
2042,2038,2041,2069,2027,2063,2039,2079
2047,2052,2050,2062,2012,2073,2052,2074
2054,2048,2046,2043,1990,2057,2051,2064
2055,2055,2043,2024,1911,2006,2024,2056
2049,2056,2038,2018,1843,1958,2027,2048
2049,2052,2035,2008,1908,1935,2031,2029
2049,2058,2026,1997,2006,1956,2035,2032
2053,2053,2032,2008,2060,1996,2060,2029
2055,2059,2046,2028,2113,2045,2075,2039
2063,2067,2053,2050,2129,2070,2084,2040
2062,2062,2044,2045,2078,2070,2086,2033
2055,2055,2042,2049,2075,2069,2065,2028
2047,2056,2037,2040,2077,2042,2063,2013
2043,2038,2033,2009,2006,1997,2034,2004
2037,2036,2030,1994,1915,1976,2023,1996
2033,2022,2024,2006,1962,1984,2022,1991
2029,2024,2023,2051,2097,2052,2045,2002
2040,2029,2044,2122,2300,2125,2061,2005
2036,2034,2044,2120,2310,2121,2058,2008
2037,2027,2036,2080,2186,2086,2054,2004
2034,2022,2032,2055,2118,2078,2060,2014
2036,2024,2042,2054,2115,2087,2074,2021
2042,2033,2051,2042,2056,2069,2059,2028
2042,2037,2060,2027,1981,2049,2061,2032
2041,2035,2059,2032,2007,2048,2069,2041
2047,2033,2051,2034,2019,2049,2045,2041
2037,2030,2043,2031,2041,2050,2041,2036
2038,2027,2038,2038,2059,2036,2047,2043
2037,2030,2045,2056,2084,2030,2058,2056
2038,2040,2044,2060,2099,2041,2051,2072
2040,2044,2049,2062,2092,2057,2052,2076
2039,2045,2040,2052,2069,2071,2062,2072
2031,2032,2033,2051,2065,2075,2061,2072
2036,2035,2040,2055,2059,2066,2078,2082
2040,2029,2034,2060,2048,2040,2065,2079
2039,2029,2037,2063,2045,1996,2050,2082
2039,2030,2030,2066,2052,2014,2045,2073
2038,2025,2018,2067,2055,2036,2044,2066
2037,2019,2002,2055,2064,2076,2065,2054
2041,2009,1989,2056,2081,2118,2102,2050
2048,2015,1983,2064,2092,2127,2089,2048
2054,2024,1983,2067,2089,2100,2083,2041
2050,2024,1991,2068,2081,2077,2069,2041
2049,2033,1993,2062,2073,2045,2052,2027
2047,2032,1992,2058,2057,2057,2045,2028
2044,2029,1984,2053,2052,2061,2036,2028
2045,2028,1988,2050,2053,2029,2044,2021
2040,2029,1991,2042,2037,2001,2023,2010
2034,2026,2004,2043,2038,2018,2027,2012
2039,2037,2032,2032,2006,2092,2020,2002
2036,2047,2049,2011,1929,2119,2018,1994
2033,2044,2060,1997,1872,2102,2004,1990
2032,2055,2075,1994,1858,1984,1982,1999
2041,2060,2097,2017,1936,1841,1991,2029
2051,2080,2118,2072,2115,1903,2043,2052
2057,2086,2126,2108,2210,2017,2071,2054
2065,2083,2123,2116,2233,2093,2065,2050
2060,2078,2112,2108,2198,2114,2066,2058
2057,2074,2101,2092,2156,2107,2087,2062
2064,2072,2096,2083,2122,2085,2068,2076
2060,2073,2088,2066,2080,2041,2040,2076
2064,2069,2085,2063,2062,2015,2022,2084
2045,2066,2073,2045,2028,1982,2023,2082
2052,2058,2066,2039,1973,1970,2008,2078
2040,2037,2049,2020,1912,1987,2036,2081
2036,2035,2036,2025,1970,2023,2034,2078
2039,2043,2041,2028,2012,2050,2040,2080
2044,2049,2040,2046,2070,2063,2075,2079
2052,2063,2054,2085,2147,2061,2058,2075
2061,2069,2064,2092,2167,2031,2042,2077
2060,2080,2060,2080,2216,2005,2004,2069
2066,2072,2051,2079,2278,2040,2046,2059
2063,2060,2045,2069,2135,2061,2036,2046
2060,2056,2041,2053,2016,2054,2046,2035
2056,2048,2047,2046,1997,2031,2060,2040
2058,2056,2060,2062,2026,2055,2054,2046
2061,2055,2063,2066,2057,2079,2042,2030
2049,2050,2059,2065,2055,2099,2041,2024
2044,2041,2061,2062,2064,2144,2044,2015
2044,2045,2061,2067,2078,2159,2049,2009
2039,2038,2056,2061,2053,2090,2053,2007
2046,2041,2057,2060,2028,1949,2021,2007
2051,2054,2068,2060,2014,1869,2023,2016
2049,2056,2074,2063,2003,1889,2004,2017
2050,2058,2085,2078,2056,1970,2038,2024
2054,2066,2088,2095,2103,2044,2058,2038
2060,2069,2089,2098,2123,2086,2079,2045
2058,2069,2080,2092,2118,2096,2076,2039
2051,2060,2071,2081,2108,2098,2071,2036
2050,2057,2069,2079,2092,2102,2070,2036
2043,2050,2070,2074,2091,2116,2056,2045
2044,2051,2065,2067,2091,2107,2041,2042
2048,2048,2060,2068,2079,2101,2039,2054
2046,2054,2057,2077,2104,2094,2030,2065
2052,2051,2058,2078,2096,2086,2048,2078
2052,2054,2056,2080,2090,2094,2035,2089
2050,2053,2057,2078,2085,2105,2051,2085
2037,2037,2044,2071,2074,2075,2041,2084
2039,2039,2044,2076,2066,2039,2036,2075
2054,2050,2066,2084,2060,2013,2043,2079
2056,2043,2085,2094,2052,2035,2052,2071
2050,2048,2084,2097,2049,2037,2056,2065
2050,2041,2080,2094,2038,2038,2058,2052
2049,2044,2080,2090,2042,2038,2042,2048
2046,2040,2072,2096,2056,2048,2034,2039
2052,2051,2072,2104,2055,2047,2039,2035
2048,2046,2074,2102,2057,2047,2048,2026
2049,2044,2073,2099,2063,2053,2018,2024
2041,2037,2065,2099,2063,2057,2027,2018
2035,2034,2055,2090,2066,2062,2052,2013
2025,2034,2039,2085,2065,2067,2032,2003
2032,2033,2031,2078,2053,2069,2027,2005
2037,2037,2020,2072,2045,2078,1999,1994
2026,2017,2014,2055,2038,2062,1994,1990
2025,2018,2019,2044,2035,2024,2011,2007
2039,2026,2035,2043,2046,2000,2017,2015
2035,2033,2052,2034,2056,1995,2021,2026
2045,2055,2081,2046,2053,2009,2038,2037
2049,2064,2102,2050,2046,2034,2051,2034
2047,2061,2088,2036,2029,2074,2050,2028
2044,2050,2061,2011,1982,2084,2040,2018
2038,2034,2037,2004,1958,2068,2032,2018
2037,2022,2027,1998,1941,2027,2016,2032
2033,2029,2031,2024,1997,1955,2027,2041
2049,2045,2050,2070,2078,1963,2043,2055
2049,2051,2052,2086,2129,1993,2053,2068
2051,2050,2045,2089,2145,2039,2065,2067
2054,2045,2030,2068,2136,2072,2044,2069
2050,2036,2014,2041,2096,2065,2037,2072
2048,2029,2012,2040,2108,2060,2036,2066
2046,2031,2021,2040,2101,2060,2042,2079
2053,2041,2027,2031,2085,2056,2035,2075
2058,2046,2032,2020,2072,2044,2029,2066
2056,2049,2025,2006,2058,2035,2041,2064
2055,2064,2030,2008,2052,2024,2026,2063
2055,2061,2026,1998,2052,2016,2025,2057
2063,2067,2028,2008,2054,2026,2050,2060
2066,2068,2035,2011,2060,2023,2058,2052
2064,2069,2045,2024,2070,2024,2059,2046
2066,2072,2046,2027,2072,2026,2037,2047
2069,2073,2058,2039,2068,2023,2047,2041
2055,2070,2052,2039,2060,2016,2027,2027
2047,2054,2056,2041,2056,2021,2037,2031
2046,2054,2051,2031,2060,2036,2053,2028
2046,2053,2045,2034,2052,2059,2050,2032
2045,2055,2041,2029,2050,2061,2042,2023
2042,2042,2042,2027,2053,2056,2048,2019
2047,2045,2047,2033,2068,2066,2046,2024
2053,2056,2061,2041,2085,2082,2056,2026
2052,2063,2061,2051,2082,2084,2045,2028
2049,2063,2068,2052,2089,2081,2047,2034
2053,2064,2067,2059,2092,2089,2048,2033
2055,2066,2069,2047,2087,2083,2051,2034
2052,2061,2064,2046,2075,2073,2029,2034
2046,2059,2062,2043,2072,2066,2033,2040
2048,2060,2053,2046,2069,2060,2031,2043
2043,2056,2050,2043,2059,2059,2052,2048
2041,2050,2044,2038,2058,2056,2030,2058
2041,2052,2044,2043,2054,2055,2036,2067
2042,2052,2051,2040,2062,2058,2068,2080
2043,2049,2043,2044,2066,2072,2036,2083
2045,2047,2039,2040,2072,2069,2049,2075
2044,2041,2027,2029,2057,2052,2049,2074
2039,2037,2032,2025,2053,2050,2047,2074
2046,2047,2038,2034,2056,2052,2061,2077
2046,2045,2040,2037,2054,2063,2063,2076
2046,2048,2037,2039,2053,2074,2075,2075
2049,2055,2043,2048,2059,2085,2082,2070
2048,2053,2042,2043,2067,2082,2066,2066
2056,2050,2044,2044,2063,2071,2065,2061
2054,2054,2043,2048,2062,2047,2068,2052
2056,2058,2048,2044,2058,2015,2025,2038
2052,2053,2050,2044,2047,2006,2033,2038
2055,2052,2049,2042,2056,2019,2047,2033
2056,2055,2060,2051,2060,2022,2023,2022
2051,2052,2061,2055,2057,2052,2037,2012
2041,2053,2057,2048,2061,2069,2035,2010
2036,2050,2059,2048,2064,2054,2045,2009
2039,2042,2050,2041,2056,2037,2024,1997
2021,2032,2053,2042,2061,2041,2009,1995
2027,2038,2055,2049,2063,2053,2056,2012
2042,2047,2057,2049,2064,2052,2049,2016
2039,2046,2054,2044,2053,2053,2060,2025
2042,2049,2054,2045,2060,2066,2053,2035
2051,2059,2054,2042,2061,2080,2058,2042
2052,2062,2064,2050,2055,2080,2055,2041
2044,2056,2055,2045,2042,2084,2062,2041
2047,2050,2049,2037,2038,2085,2052,2034
2036,2040,2045,2039,2037,2084,2035,2036
2036,2040,2051,2038,2044,2083,2015,2054
2039,2043,2056,2057,2054,2042,1999,2066
2041,2044,2060,2062,2066,2012,2015,2074
2044,2044,2057,2068,2112,2008,2015,2084
2043,2042,2056,2073,2146,2036,2032,2080
2036,2034,2049,2068,2122,2020,2023,2066
2031,2020,2032,2060,2135,2024,2031,2062
2022,2010,2026,2064,2145,2053,2044,2063
2033,2034,2042,2071,2117,2067,2055,2069
2038,2041,2041,2069,2055,2070,2053,2062
2035,2040,2034,2045,1910,2086,2057,2056
2031,2037,2032,2021,1863,2111,2053,2046
2032,2032,2018,2002,1854,2089,2030,2036
2039,2031,2011,1983,1868,2076,2027,2042
2032,2032,2014,1998,1935,2051,2039,2036
2039,2045,2029,2027,2009,2040,2059,2041
2048,2051,2039,2045,2103,2086,2057,2043
2049,2052,2042,2051,2145,2102,2059,2038
2050,2049,2048,2049,2155,2022,2043,2031
2047,2051,2044,2032,2105,2004,2038,2018
2046,2052,2042,2031,2072,2051,2042,2018
2037,2048,2031,2023,2043,2078,2032,2005
2031,2033,2019,2006,2002,2046,2018,2011
2023,2031,2024,2012,2006,2013,2034,2020
2049,2055,2050,2044,2080,2027,2060,2030
2051,2058,2053,2060,2127,2052,2043,2042
2046,2056,2056,2055,2125,2064,2059,2035
2050,2056,2049,2049,2099,2045,2047,2044
2050,2056,2046,2048,2080,2027,2062,2053
2053,2060,2048,2048,2080,2025,2054,2053
2047,2062,2043,2053,2085,2031,2054,2058
2047,2064,2054,2061,2086,2024,2068,2060
2044,2068,2064,2057,2070,2043,2069,2059
2039,2065,2067,2057,2067,2116,2066,2056
2035,2055,2060,2050,2058,2114,2051,2061
2044,2056,2055,2048,2047,2044,2051,2079
2044,2055,2053,2044,2052,2020,2031,2080
2044,2054,2048,2046,2056,2024,2028,2080
2035,2040,2036,2035,2058,2029,2018,2084
2032,2037,2038,2033,2066,2043,2032,2086
2039,2051,2048,2044,2072,2061,2066,2088
2045,2059,2055,2044,2060,2051,2054,2086
2054,2061,2056,2046,2056,2029,2048,2070
2051,2065,2058,2044,2060,2029,2051,2072
2057,2062,2053,2043,2048,2044,2057,2067
2058,2065,2056,2047,2032,2045,2066,2056
2057,2066,2057,2050,2053,2039,2055,2045
2052,2058,2052,2047,2061,2039,2065,2035
2046,2057,2049,2037,2045,2063,2053,2033
2049,2057,2058,2035,2032,2082,2043,2031
2051,2057,2054,2036,2031,2081,2056,2030
2053,2057,2055,2041,2036,2063,2061,2038
2050,2066,2061,2044,2044,2042,2059,2042
2056,2063,2057,2046,2040,2054,2051,2033
2046,2046,2048,2033,1985,2075,2052,2039
2043,2042,2046,2021,1955,2119,2065,2035
2052,2059,2055,2024,1955,2138,2066,2031
2059,2051,2044,2015,1950,2061,2066,2028
2054,2044,2040,2019,1981,1909,2048,2029
2053,2045,2042,2036,2046,1915,2060,2041
2052,2050,2046,2050,2116,1984,2061,2057
2048,2050,2042,2058,2146,2032,2067,2052
2050,2038,2037,2051,2135,2045,2075,2056
2042,2038,2038,2035,2071,2023,2064,2062
2045,2036,2041,2030,2042,2023,2050,2058
2043,2031,2034,2028,2029,2025,2039,2055
2042,2033,2029,2035,2035,2033,2051,2070
2041,2045,2041,2054,2078,2060,2067,2083
2046,2052,2050,2062,2089,2070,2074,2083
2042,2045,2044,2052,2059,2072,2056,2081
2033,2030,2030,2032,2055,2069,2066,2074
2036,2020,2025,2036,2078,2077,2069,2086
2038,2037,2033,2044,2094,2085,2051,2080
2044,2036,2037,2039,2075,2084,2079,2082
2044,2044,2036,2035,2027,2073,2103,2086
2060,2050,2043,2026,2002,2059,2101,2085
2056,2054,2045,2028,2012,2053,2072,2072
2056,2055,2045,2037,2030,2045,2054,2058
2057,2050,2049,2045,2043,2038,2057,2055
2051,2053,2059,2055,2024,2025,2034,2049
2054,2051,2054,2052,2005,2029,2019,2043
2052,2049,2043,2057,2035,2045,2038,2037
2049,2036,2034,2032,2057,2078,2046,2031
2045,2028,2032,2022,2058,2116,2069,2021
2048,2032,2049,2025,2022,2098,2057,2007
2044,2035,2043,2006,1946,2055,2055,1998
2039,2026,2033,1978,1934,2032,2034,1994
2043,2026,2027,1981,1975,1999,2041,2008
2054,2047,2053,2014,2024,1987,2050,2013
2055,2052,2068,2045,2072,2023,2065,2030
2065,2062,2087,2083,2125,2031,2061,2041
2070,2073,2101,2099,2149,2000,2030,2042
2068,2073,2098,2100,2168,2023,2070,2045
2061,2066,2093,2089,2134,2046,2054,2045
2060,2060,2076,2080,2108,2045,2050,2040
2047,2048,2072,2083,2095,2026,2048,2052
2050,2044,2071,2088,2121,2041,2066,2062
2039,2050,2069,2092,2153,2073,2070,2070
2046,2049,2068,2082,2130,2074,2072,2078
2045,2050,2060,2065,2103,2076,2068,2074
2049,2046,2053,2048,2070,2089,2077,2072
2052,2045,2049,2042,2043,2086,2072,2073
2050,2037,2045,2031,2022,2061,2050,2077
2050,2031,2041,2022,2013,2049,2033,2071
2049,2036,2042,2027,2021,2065,2034,2077
2040,2037,2033,2018,2022,2078,2058,2069
2044,2045,2030,2008,2017,2080,2067,2068
2043,2052,2031,2003,2019,2076,2073,2069
2042,2048,2030,2010,2064,2098,2078,2070
2048,2054,2034,2025,2063,2084,2064,2073
2057,2052,2038,2027,2040,2034,2065,2059
2054,2056,2028,2018,2004,2006,2056,2046
2057,2052,2025,2021,2013,2034,2054,2037
2054,2053,2026,2029,2018,2058,2069,2036
2054,2046,2027,2028,2019,2077,2065,2030
2057,2044,2029,2029,2014,2078,2060,2030
2054,2057,2030,2028,2012,2074,2056,2021
2052,2064,2031,2019,2013,2050,2051,2019
2043,2055,2037,2028,2042,2028,2039,2019
2049,2061,2048,2040,2057,2020,2037,2026
2056,2065,2050,2042,2059,2004,2024,2023
2056,2058,2048,2035,2053,2021,2024,2027
2054,2057,2046,2030,2040,2037,2048,2034
2057,2050,2045,2021,2041,2038,2038,2040
2052,2049,2028,2015,2039,2024,2020,2037
2049,2045,2037,2006,2037,2008,2017,2046
2055,2058,2057,2018,2045,2024,2023,2054
2050,2069,2058,2029,2044,2033,2041,2066
2057,2068,2059,2034,2046,2035,2056,2072
2049,2056,2053,2029,2043,2036,2044,2071
2049,2050,2044,2028,2041,2028,2037,2072
2046,2039,2037,2028,2033,2031,2033,2083
2043,2039,2042,2035,2036,2038,2036,2081
2039,2042,2040,2031,2032,2046,2045,2081
2042,2037,2042,2022,2024,2056,2053,2080
2048,2050,2051,2020,2031,2057,2060,2089
2064,2060,2052,2021,2032,2061,2055,2076
2062,2053,2054,2017,2032,2066,2035,2072
2054,2056,2057,2027,2033,2094,2051,2063
2051,2053,2047,2022,2022,2081,2035,2065
2040,2051,2050,2024,2024,2010,1992,2055
2050,2050,2049,2021,2017,1976,1990,2046
2052,2054,2045,2027,2023,1994,2012,2045
2043,2041,2033,2018,2015,2032,2038,2026
2036,2026,2012,2000,1977,2068,2037,2016
2030,2029,2001,1985,1952,2082,2035,2013
2047,2037,2016,1993,1954,2076,2025,2022
2049,2037,2014,1999,1966,2011,2043,2032
2057,2041,2026,2027,2042,1984,2052,2035
2056,2045,2021,2033,2072,2011,2056,2030
2053,2041,2019,2046,2118,2036,2058,2034
2055,2043,2026,2048,2125,2068,2077,2038
2061,2046,2030,2040,2064,2073,2065,2023
2045,2042,2017,2012,1970,2057,2065,2026
2050,2040,2016,2001,1912,2050,2046,2032
2049,2045,2015,2000,1885,2008,2019,2040
2051,2046,2018,1989,1912,1960,2024,2041
2051,2050,2034,2004,1974,1963,2030,2060
2070,2059,2052,2056,2076,2026,2057,2065
2062,2054,2045,2066,2120,2053,2062,2068
2058,2049,2035,2059,2102,2060,2069,2065
2053,2046,2031,2048,2076,2066,2070,2078
2054,2054,2024,2037,2053,2057,2072,2087
2057,2059,2013,2038,2056,2064,2069,2094
2059,2055,2021,2039,2060,2068,2058,2097
2064,2057,2022,2024,2043,2048,2049,2088
2053,2042,2015,2007,2023,2035,2035,2085
2050,2037,2015,1994,2008,2070,2038,2080
2058,2051,2031,1991,1992,2082,2044,2074
2056,2055,2044,1991,1988,2094,2041,2080
2060,2078,2065,2009,2006,2113,2015,2071
2059,2086,2073,2027,2039,2077,2030,2082
2060,2084,2075,2042,2063,2039,2032,2078
2059,2079,2068,2043,2057,2038,2021,2068
2053,2075,2062,2029,2029,2029,2048,2052
2047,2069,2064,2020,1989,2017,2045,2053
2049,2060,2071,2014,1975,2012,2057,2045
2046,2050,2072,2014,1962,2010,2031,2031
2045,2048,2072,2013,1961,2034,2040,2020
2044,2045,2074,2022,1990,2054,2067,2023
2047,2042,2072,2034,2035,2087,2074,2026
2050,2045,2069,2037,2044,2098,2062,2022
2042,2025,2054,2035,2028,2084,2066,2025
2040,2018,2052,2040,2026,2091,2066,2036
2054,2032,2061,2059,2077,2120,2068,2037
2040,2023,2060,2058,2063,2128,2045,2039
2044,2017,2047,2048,2006,2113,2039,2048
2045,2008,2037,2033,1970,2075,2048,2027
2037,2006,2023,2015,1952,1957,2027,2030
2030,2002,2015,1995,1950,1924,2017,2044
2045,2013,2021,2033,2045,2003,2050,2071
2057,2034,2042,2053,2101,2096,2091,2080
2062,2040,2049,2040,2092,2143,2093,2066
2051,2032,2044,2024,2092,2142,2084,2074
2054,2035,2046,2028,2082,2095,2070,2075
2055,2033,2042,2026,2068,2046,2067,2090
2054,2045,2051,2040,2097,2013,2066,2112
2061,2044,2057,2052,2113,2022,2066,2116
2056,2035,2044,2031,2074,2015,2070,2105
2042,2023,2048,2024,2034,2036,2054,2098
2047,2027,2057,2022,2013,2089,2057,2087
2042,2022,2045,2011,2003,2128,2067,2067
2029,2028,2045,2004,1997,2125,2072,2061
2036,2041,2044,2004,2012,2119,2084,2059
2045,2048,2048,2016,2047,2117,2057,2064
2052,2067,2058,2041,2074,2057,2062,2076
2062,2072,2061,2046,2058,2042,2027,2071
2063,2067,2056,2032,2052,2045,2044,2056
2051,2052,2045,2013,2022,2050,2044,2032
2032,2021,2035,1997,1989,2023,2028,2027
2030,1998,2031,1993,1969,1948,2031,2025
2036,1994,2051,2010,1987,1902,2024,2028
2032,1988,2059,2018,1946,1879,2013,2023
2038,1997,2080,2022,1921,1874,2014,2029
2043,2002,2081,2044,1969,1882,2030,2029
2043,2007,2083,2061,1970,1910,2036,2026
2041,2013,2088,2087,1983,1994,2061,2049
2064,2040,2105,2126,2085,2066,2097,2050
2067,2037,2093,2137,2154,2122,2090,2054
2066,2042,2079,2128,2181,2169,2106,2055
2069,2042,2071,2116,2176,2166,2096,2053
2057,2038,2056,2102,2150,2121,2088,2047
2055,2048,2056,2083,2107,2080,2072,2049
2054,2059,2053,2074,2073,2055,2070,2047
2060,2057,2053,2065,2040,2034,2055,2061
2052,2054,2046,2052,2044,2027,2042,2067
2057,2057,2043,2052,2048,2028,2050,2069
2052,2061,2042,2037,2054,2036,2043,2077
2051,2054,2038,2030,2054,2034,2057,2088
2055,2052,2033,2009,2037,2031,2055,2090
2052,2054,2030,1996,2020,2044,2060,2093
2053,2045,2021,1973,2006,2052,2057,2090
2046,2040,2011,1967,2005,2062,2061,2086
2041,2037,2012,1979,2028,2078,2089,2098
2056,2055,2022,1998,2033,2090,2088,2099
2064,2069,2038,2006,2031,2104,2081,2108
2066,2074,2057,2015,2018,2105,2092,2099
2068,2073,2057,2013,2009,2106,2096,2088
2062,2066,2054,2011,2013,2105,2091,2081
2061,2067,2046,2021,2047,2104,2101,2078
2064,2062,2042,2029,2090,2095,2068,2074
2072,2059,2042,2033,2116,2080,2064,2064
2067,2056,2044,2027,2085,2083,2075,2048
2064,2065,2040,2019,1992,2130,2064,2046
2068,2067,2056,2032,1923,2168,2089,2042
2074,2065,2078,2047,1905,2116,2066,2027
2060,2056,2072,2045,1917,1956,2032,2019
2060,2053,2070,2063,2014,1886,2010,2022
2051,2049,2058,2089,2112,1949,2042,2024
2055,2050,2053,2081,2084,1978,2043,2031
2060,2061,2051,2061,2018,1973,2040,2033
2063,2056,2034,2040,1982,1942,2044,2039
2059,2045,2023,2041,1979,1938,2037,2043
2054,2046,2019,2050,2012,1976,2065,2044
2056,2046,2016,2052,2061,2006,2067,2044
2061,2034,2000,2045,2080,2024,2058,2047
2052,2024,1995,2036,2080,2053,2063,2052
2051,2039,2008,2040,2087,2068,2061,2060
2051,2044,2023,2039,2077,2072,2060,2068
2052,2041,2037,2036,2058,2060,2068,2069
2054,2044,2041,2034,2052,2040,2051,2074
2051,2049,2035,2023,2045,2049,2044,2080
2052,2045,2041,2013,2041,2053,2049,2083
2057,2042,2039,2012,2043,2072,2054,2091
2056,2043,2032,2001,2036,2076,2034,2087
2046,2035,2017,1993,2039,2085,2033,2091
2047,2038,2015,1997,2036,2080,2025,2094
2051,2044,2028,2005,2049,2078,2034,2099
2050,2048,2028,2030,2061,2077,2067,2089
2056,2054,2046,2044,2048,2053,2052,2079
2058,2065,2056,2054,2026,2034,2054,2074
2058,2078,2069,2049,2053,2024,2062,2069
2056,2074,2065,2044,2022,2012,2064,2065
2052,2066,2056,2035,2008,2004,2055,2063
2059,2061,2066,2034,2005,2022,2058,2060
2069,2078,2076,2046,1966,2047,2049,2062
2070,2077,2083,2045,1961,2032,2053,2056
2071,2077,2081,2046,1969,2028,2042,2040
2060,2066,2068,2020,1947,2062,2039,2039
2057,2056,2061,2027,1989,2122,2063,2044
2061,2045,2050,2039,2031,2174,2076,2035
2050,2038,2037,2039,2046,2161,2077,2031
2042,2032,2032,2029,2045,2107,2065,2018
2047,2048,2039,2035,2056,2058,2054,2029
2056,2056,2048,2051,2107,2007,2042,2043
2054,2058,2057,2061,2132,2007,2042,2043
2050,2042,2045,2056,2140,2010,2045,2035
2039,2041,2034,2065,2151,2006,2038,2030
2041,2041,2045,2064,2122,1994,2060,2033
2042,2044,2051,2056,2074,2008,2047,2046
2045,2050,2056,2048,2066,2011,2040,2061
2058,2055,2065,2043,2001,1972,2031,2066
2060,2060,2065,2031,1918,1974,2038,2067
2058,2054,2064,2046,1978,2007,2054,2071
2055,2051,2061,2052,2006,2028,2075,2075
2051,2047,2059,2047,2020,2026,2050,2070
2045,2048,2057,2047,2025,2018,2052,2082
2046,2045,2060,2048,2027,2040,2052,2075
2040,2037,2050,2039,2003,2029,2065,2080
2040,2033,2046,2043,2004,2046,2084,2088
2053,2053,2054,2054,2019,2056,2076,2091
2053,2052,2059,2058,2023,2050,2075,2085
2059,2053,2053,2049,2018,2028,2069,2084
2052,2053,2048,2032,2000,2004,2056,2075
2053,2048,2047,2016,1978,1990,2051,2065
2054,2045,2038,2020,1985,2007,2054,2062
2063,2056,2037,2024,1999,2024,2058,2051
2058,2064,2033,2016,2000,2047,2065,2035
2059,2054,2021,2004,1990,2043,2035,2046
2060,2049,2018,2002,1973,2035,2026,2033
2061,2046,2006,1999,1966,2056,2037,2031
2059,2047,2006,1981,1959,2042,2040,2014
2054,2046,2002,1973,1993,2045,2026,2023
2064,2050,2008,2000,2064,2073,2048,2036
2065,2042,2020,2019,2089,2091,2055,2025
2054,2045,2026,2018,2076,2086,2054,2026
2055,2056,2041,2024,2068,2086,2060,2032
2073,2064,2050,2041,2062,2076,2064,2033
2073,2055,2050,2044,2064,2075,2056,2038
2068,2057,2054,2047,2068,2067,2051,2039
2062,2053,2054,2043,2069,2037,2067,2038
2062,2051,2063,2046,2064,2001,2057,2034
2062,2051,2058,2042,2058,1994,2052,2045
2060,2047,2054,2037,2045,2014,2057,2050
2064,2040,2051,2035,2040,2014,2065,2054
2056,2042,2049,2027,2034,2019,2058,2054
2051,2042,2047,2029,2039,2025,2058,2066
2052,2044,2044,2026,2035,2027,2056,2069
2044,2039,2043,2024,2038,2026,2065,2068
2040,2038,2030,2027,2030,2036,2058,2081
2040,2044,2031,2028,2042,2063,2064,2086
2048,2036,2016,2029,2042,2062,2053,2088
2048,2038,2016,2031,2043,2073,2058,2097
2057,2049,2022,2035,2048,2046,2059,2089
2062,2045,2022,2029,2038,2033,2046,2080
2058,2050,2030,2033,2033,2051,2048,2076
2054,2053,2033,2031,2031,2049,2033,2065
2060,2056,2034,2033,2031,1968,2015,2053
2051,2055,2037,2035,2022,1941,2033,2045
2055,2043,2038,2040,2027,2000,2020,2040
2051,2048,2052,2039,2030,2073,2046,2036
2047,2053,2062,2045,2037,2090,2052,2040
2059,2057,2073,2049,2033,2090,2052,2034
2055,2059,2069,2035,2010,2103,2054,2028
2058,2051,2064,2020,1961,2118,2041,2020
2053,2050,2054,2009,1928,2108,2014,2009
2046,2043,2046,1998,1916,2081,2029,2000
2040,2039,2039,1995,1940,1990,2021,2024
2055,2051,2057,2039,2039,1927,2038,2035
2060,2064,2074,2063,2120,1990,2066,2043
2068,2065,2074,2061,2129,2043,2077,2041
2064,2063,2075,2059,2120,2068,2071,2048
2068,2071,2078,2062,2098,2058,2066,2050
2072,2070,2075,2054,2077,2049,2067,2048
2069,2070,2065,2044,2062,2034,2064,2050
2065,2072,2050,2041,2056,2029,2062,2047
2063,2056,2040,2040,2052,2027,2063,2047
2056,2052,2036,2036,2049,2043,2057,2056
2052,2045,2037,2045,2051,2055,2061,2067
2048,2040,2033,2046,2058,2064,2060,2076
2048,2040,2028,2037,2043,2045,2037,2079
2048,2041,2031,2036,2041,2042,2020,2077
2054,2044,2031,2038,2045,2054,2034,2079
2049,2040,2018,2028,2026,2051,2032,2067
2042,2024,2009,2011,1990,2058,2023,2070
2038,2034,2016,2005,1950,2060,2039,2071
2048,2033,2014,1997,1945,2057,2042,2065
2040,2033,2011,1999,1974,2034,2059,2059
2043,2044,2039,2021,2027,2052,2053,2059
2051,2052,2065,2031,2007,2112,2063,2052
2046,2054,2070,2006,1894,2094,2042,2038
2046,2052,2062,1990,1843,2080,2032,2033
2045,2057,2064,1994,1814,1988,2006,2049
2056,2062,2072,2000,1895,1897,2028,2065
2077,2078,2092,2065,2142,1972,2075,2075
2090,2081,2093,2102,2274,2062,2095,2066
2089,2074,2075,2101,2302,2135,2099,2051
2076,2064,2063,2095,2289,2162,2094,2046
2078,2064,2056,2081,2229,2122,2082,2034
2067,2059,2040,2056,2170,2070,2048,2025
2056,2047,2033,2049,2137,2047,2051,2019
2046,2038,2026,2047,2104,2052,2066,2025
2050,2053,2031,2050,2026,2045,2058,2026
2056,2052,2027,2039,1938,2034,2058,2036
2060,2057,2029,2051,1985,2059,2057,2047
2073,2061,2040,2059,2046,2085,2059,2057
2071,2060,2028,2058,2065,2090,2086,2060
2063,2058,2033,2054,2059,2094,2080,2062
2058,2050,2027,2054,2068,2091,2077,2055
2053,2046,2028,2049,2069,2077,2065,2050
2051,2045,2047,2054,2046,2046,2040,2057
2052,2053,2049,2047,2034,2011,2024,2053
2050,2046,2060,2044,2027,2017,2050,2055
2041,2045,2059,2041,2023,2032,2043,2066
2030,2042,2058,2057,2026,2048,2034,2073
2033,2041,2071,2066,2028,2044,2033,2080
2029,2038,2086,2066,2023,2060,2058,2090
2040,2045,2103,2079,2040,2079,2043,2093
2056,2078,2124,2098,2054,2091,2056,2097
2066,2086,2118,2090,2064,2087,2062,2081
2062,2080,2097,2074,2066,2074,2049,2074
2062,2073,2087,2072,2077,2077,2047,2066
2064,2078,2088,2088,2126,2092,2045,2061
2055,2074,2080,2082,2106,2081,2040,2053
2056,2069,2071,2072,2072,2047,2046,2047
2053,2068,2073,2062,2054,2030,2061,2043
2052,2068,2067,2066,2042,2033,2072,2039
2053,2062,2054,2053,2012,2035,2058,2039
2048,2056,2044,2039,2015,2029,2080,2034
2044,2050,2038,2038,2020,2022,2081,2027
2040,2050,2033,2027,2023,2009,2051,2027
2044,2048,2030,2020,2002,2006,2035,2015
2034,2032,2026,2019,2026,2018,2050,2021
2038,2035,2035,2040,2059,2060,2066,2026
2053,2054,2050,2049,2064,2080,2064,2029
2058,2066,2047,2045,2044,2074,2066,2033
2057,2059,2035,2045,2017,2072,2060,2031
2052,2059,2049,2055,2014,2036,2033,2031
2054,2065,2063,2056,2014,1995,2015,2033
2050,2056,2064,2048,1980,1970,2032,2035
2053,2057,2054,2027,1972,1978,2026,2050
2054,2058,2051,2033,1993,2006,2033,2053
2051,2053,2062,2037,1993,2020,2036,2054
2046,2051,2064,2037,1987,2030,2039,2052
2042,2050,2060,2035,2009,2039,2036,2060
2043,2050,2064,2044,2060,2063,2052,2076
2050,2050,2060,2050,2068,2076,2070,2078
2044,2047,2054,2039,2049,2068,2055,2069
2039,2042,2043,2034,2037,2062,2051,2064
2040,2038,2048,2034,2039,2070,2069,2070
2039,2043,2043,2034,2030,2073,2061,2073
2041,2042,2046,2039,2026,2050,2046,2066
2050,2048,2045,2048,2026,2050,2037,2063
2054,2051,2051,2043,2022,2060,2031,2054
2054,2051,2053,2034,2005,2050,2040,2046
2047,2056,2049,2035,2001,2035,2050,2030
2051,2062,2053,2040,2013,1989,2011,2042
2058,2066,2053,2051,2027,1948,2024,2042
2062,2060,2054,2047,2025,1970,2026,2044
2064,2064,2055,2051,2030,1998,2042,2039
2062,2064,2056,2053,2050,2029,2043,2031
2056,2057,2058,2056,2044,2035,2032,2016
2042,2053,2060,2057,2054,2034,2032,2013
2039,2049,2058,2048,2044,2035,2028,2010
2034,2036,2050,2046,2034,2044,2004,2003
2035,2028,2048,2062,2038,2096,2049,2014
2046,2044,2068,2077,2066,2135,2077,2014
2054,2054,2069,2091,2068,2150,2081,2026
2059,2058,2072,2090,2063,2141,2084,2040
2064,2054,2077,2095,2054,2092,2086,2057
2065,2055,2075,2095,2048,2007,2061,2057
2067,2062,2068,2093,2025,1882,2035,2055
2060,2058,2061,2085,2004,1874,2038,2049
2052,2049,2052,2077,2014,1978,2052,2047
2040,2037,2040,2069,2034,2065,2068,2048
2041,2032,2039,2067,2059,2118,2076,2062
2048,2030,2041,2069,2060,2106,2068,2060
2044,2032,2037,2065,2056,2096,2066,2066
2036,2031,2044,2064,2057,2086,2066,2069
2032,2035,2048,2063,2083,2074,2056,2061
2028,2030,2038,2050,2083,2058,2030,2059
2028,2028,2032,2036,2064,2072,2039,2053
2043,2040,2031,2023,2040,2072,2036,2055
2042,2040,2032,2013,2013,2040,2024,2050
2035,2039,2029,2018,2006,2019,2006,2045
2043,2039,2027,2016,2020,2024,2014,2045
2041,2042,2020,2019,2032,2049,2045,2038
2046,2036,2017,2030,2048,2059,2041,2034
2048,2041,2023,2036,2055,2065,2046,2031
2044,2037,2024,2032,2053,2062,2044,2021
2045,2037,2025,2035,2056,2061,2038,2020
2045,2041,2032,2036,2062,2064,2026,2020
2047,2042,2042,2040,2062,2078,2046,2023
2045,2043,2044,2043,2052,2070,2030,2021
2048,2042,2039,2031,2044,2073,2016,2012
2042,2038,2034,2026,2039,2082,2010,2007
2043,2030,2019,2013,2029,2086,2007,2001
2034,2020,2018,2002,2025,2100,2019,2005
2036,2027,2025,2010,2032,2114,2046,2019
2056,2044,2035,2014,2044,2124,2044,2024
2055,2045,2044,2026,2050,2080,2058,2027
2054,2056,2052,2023,2048,2024,2051,2028
2053,2049,2050,2017,2034,1992,2049,2023
2048,2043,2044,2019,2022,1978,2044,2030
2050,2046,2041,2021,2020,1992,2042,2035
2051,2044,2036,2016,2020,2001,2045,2043
2054,2049,2038,2020,2029,2018,2036,2054
2055,2049,2040,2026,2029,2020,2043,2052
2058,2048,2037,2026,2017,2022,2038,2063
2056,2049,2040,2039,2017,2031,2038,2065
2053,2055,2039,2055,2029,2041,2052,2069
2051,2050,2034,2063,2030,2047,2056,2069
2061,2053,2041,2064,2035,2050,2038,2073
2054,2048,2035,2047,2026,2041,2055,2070
2052,2047,2032,2045,2030,2040,2050,2081
2064,2061,2046,2043,2040,2042,2058,2079
2062,2058,2043,2047,2038,2048,2043,2073
2060,2057,2035,2050,2051,2051,2056,2063
2063,2050,2031,2054,2066,2057,2058,2060
2065,2049,2038,2054,2071,2066,2049,2050
2059,2050,2034,2055,2086,2063,2054,2048
2056,2045,2047,2067,2090,2070,2043,2041
2052,2040,2053,2075,2086,2092,2044,2041
2050,2043,2054,2062,2050,2085,2039,2025
2053,2046,2052,2050,2008,2063,2035,2029
2054,2041,2055,2045,1989,2041,2021,2022
2048,2039,2054,2034,1948,2009,2046,2023
2041,2042,2051,2037,1952,1998,2046,2022
2048,2050,2052,2028,1942,2017,2035,2012
2048,2040,2038,2007,1944,2043,2032,2003
2039,2041,2051,2035,1991,2065,2051,2016
2053,2047,2070,2059,2015,2054,2051,2037
2071,2066,2069,2073,2042,1992,2048,2050
2072,2072,2068,2087,2091,1955,2048,2055
2073,2067,2060,2090,2155,1974,2066,2039
