CH1,CH2,CH3,CH4,CH5,CH6,CH7,CH8
2057,2057,2061,2050,2055,2052,2029,2096
2057,2062,2052,2047,2057,2050,2020,2091
2049,2053,2044,2042,2058,2048,2037,2101
2047,2039,2036,2033,2055,2047,2039,2105
2042,2029,2020,2024,2039,2038,2039,2099
2032,2020,2018,2028,2039,2041,2041,2102
2042,2033,2035,2041,2050,2052,2037,2100
2042,2038,2051,2043,2048,2049,2058,2093
2046,2046,2059,2047,2050,2054,2047,2094
2050,2052,2063,2048,2047,2053,2047,2082
2042,2050,2057,2044,2046,2053,2055,2068
2043,2048,2046,2039,2040,2056,2022,2053
2039,2044,2042,2039,2038,2054,2029,2044
2034,2044,2037,2035,2035,2054,2029,2037
2041,2038,2033,2037,2035,2053,2042,2022
2044,2041,2031,2032,2040,2059,2032,2026
2043,2045,2031,2033,2041,2060,2033,2027
2043,2042,2034,2034,2041,2061,2047,2020
2044,2045,2035,2031,2045,2068,2054,2021
2044,2053,2045,2037,2053,2059,2045,2010
2049,2052,2042,2032,2043,2048,2018,1991
2032,2045,2043,2035,2040,2044,2004,1996
2032,2045,2043,2043,2047,2050,2028,2004
2042,2055,2047,2050,2041,2042,2054,2015
2046,2055,2045,2052,2046,2042,2039,2018
2047,2054,2044,2047,2050,2042,2042,2025
2044,2058,2045,2046,2050,2049,2043,2038
2051,2056,2042,2050,2059,2046,2056,2037
2056,2060,2044,2050,2063,2051,2055,2047
2052,2063,2056,2049,2061,2047,2046,2053
2057,2061,2066,2056,2062,2047,2051,2065
2059,2060,2060,2052,2057,2051,2043,2074
2051,2050,2060,2047,2064,2048,2057,2090
2043,2045,2055,2043,2062,2039,2049,2090
2036,2051,2057,2038,2055,2043,2034,2101
2043,2052,2058,2033,2058,2048,2045,2106
2045,2051,2055,2028,2042,2035,2025,2102
2034,2039,2053,2026,2036,2035,2031,2096
2030,2037,2056,2026,2041,2042,2038,2099
2043,2047,2053,2031,2043,2045,2055,2092
2039,2043,2042,2028,2034,2040,2034,2084
2033,2040,2032,2031,2032,2046,2028,2080
2040,2046,2026,2042,2043,2045,2043,2076
2043,2046,2021,2038,2045,2045,2040,2058
2040,2049,2018,2044,2038,2044,2042,2048
2045,2046,2016,2039,2048,2047,2059,2045
2040,2045,2010,2044,2050,2052,2027,2031
2033,2042,2010,2039,2049,2047,2013,2027
2034,2043,2018,2043,2051,2047,2014,2021
2038,2039,2021,2048,2042,2048,2045,2011
2038,2036,2034,2048,2048,2048,2045,2007
2032,2038,2026,2048,2042,2050,2060,2006
2033,2040,2030,2044,2032,2042,2032,2001
2029,2034,2028,2042,2033,2039,2033,2001
2029,2036,2021,2043,2036,2046,2051,2013
2035,2050,2016,2034,2043,2042,2054,2011
2037,2045,2015,2026,2034,2036,2048,2010
2033,2038,2021,2024,2031,2036,2048,2019
2038,2045,2034,2032,2039,2037,2066,2015
2040,2052,2060,2048,2045,2050,2054,2026
2043,2064,2070,2067,2057,2053,2062,2034
2043,2072,2070,2063,2063,2061,2061,2039
2042,2061,2068,2055,2061,2064,2047,2055
2039,2064,2081,2051,2067,2062,2045,2064
2050,2070,2090,2051,2064,2063,2055,2076
2045,2071,2083,2044,2065,2061,2045,2085
2052,2066,2079,2045,2060,2052,2048,2096
2044,2064,2075,2051,2057,2050,2058,2094
2037,2060,2071,2053,2051,2047,2048,2088
2026,2041,2070,2054,2048,2037,2044,2089
2030,2036,2072,2060,2042,2045,2044,2098
2038,2046,2080,2057,2038,2046,2052,2093
2034,2050,2075,2053,2042,2050,2060,2087
2036,2052,2065,2040,2035,2049,2053,2069
2039,2056,2070,2045,2041,2045,2049,2065
2044,2062,2072,2045,2046,2046,2044,2060
2046,2069,2075,2045,2047,2045,2030,2045
2052,2068,2074,2048,2044,2045,2036,2038
2051,2066,2070,2052,2053,2047,2049,2037
2052,2062,2068,2053,2055,2049,2032,2026
2047,2064,2064,2059,2051,2052,2023,2020
2048,2065,2067,2051,2052,2049,2031,2014
2041,2053,2055,2037,2043,2052,2047,2000
2039,2047,2040,2028,2045,2049,2042,1992
2040,2044,2037,2010,2042,2042,2026,1987
2030,2033,2028,2003,2044,2039,2024,1993
2028,2035,2030,2007,2036,2038,2021,2004
2044,2055,2054,2030,2048,2043,2037,2007
2047,2060,2053,2035,2055,2047,2038,2008
2051,2059,2050,2034,2051,2052,2029,2014
2046,2055,2049,2038,2054,2053,2042,2022
2049,2050,2053,2046,2055,2059,2036,2029
2052,2060,2050,2044,2062,2063,2066,2035
2047,2058,2058,2045,2064,2060,2050,2040
2046,2055,2061,2045,2062,2050,2042,2048
2048,2055,2062,2047,2056,2039,2045,2063
2049,2054,2058,2043,2057,2043,2051,2066
2049,2058,2065,2041,2062,2054,2061,2073
2044,2051,2065,2039,2054,2048,2043,2081
2043,2057,2071,2041,2056,2048,2031,2088
2037,2062,2066,2042,2056,2045,2045,2095
2029,2042,2052,2033,2045,2036,2047,2085
2030,2037,2045,2033,2042,2035,2041,2091
2036,2055,2057,2037,2044,2045,2029,2093
2045,2056,2056,2043,2050,2046,2037,2089
2040,2053,2056,2039,2043,2050,2077,2075
2038,2053,2052,2042,2041,2043,2056,2065
2041,2053,2051,2036,2043,2040,2043,2059
2046,2049,2048,2035,2042,2047,2019,2048
2039,2052,2047,2035,2046,2049,2045,2034
2042,2054,2048,2034,2043,2045,2042,2030
2041,2051,2048,2033,2047,2042,2052,2021
2044,2042,2046,2038,2047,2044,2029,2020
2040,2044,2045,2035,2041,2040,2048,2010
2038,2045,2049,2033,2036,2043,2053,2007
2038,2053,2053,2032,2030,2041,2055,2002
2043,2054,2056,2034,2045,2046,2052,2001
2042,2044,2052,2029,2034,2045,2042,1995
2037,2039,2050,2031,2029,2043,2046,1994
2042,2052,2054,2043,2041,2056,2063,2003
2047,2057,2059,2045,2039,2066,2069,2000
2048,2058,2056,2042,2042,2069,2047,2008
2044,2059,2054,2037,2044,2076,2052,2010
2052,2064,2058,2043,2049,2081,2069,2012
2055,2059,2058,2046,2049,2078,2081,2021
2050,2058,2054,2046,2042,2039,2066,2030
2042,2061,2054,2045,2042,2002,2058,2034
2045,2060,2056,2050,2044,2006,2065,2051
2049,2057,2053,2048,2052,2031,2060,2052
2048,2058,2055,2049,2056,2047,2053,2072
2050,2058,2051,2047,2049,2047,2050,2075
2047,2062,2049,2048,2049,2044,2046,2081
2042,2054,2050,2041,2049,2046,2069,2090
2039,2059,2045,2044,2042,2040,2048,2082
2033,2047,2035,2034,2043,2041,2047,2081
2028,2040,2030,2034,2039,2048,2047,2093
2034,2055,2045,2045,2043,2055,2066,2086
2038,2055,2044,2042,2039,2058,2068,2082
2044,2056,2039,2043,2037,2062,2070,2073
2039,2056,2042,2041,2032,2052,2066,2064
2051,2059,2037,2041,2033,2051,2051,2053
2038,2054,2039,2040,2032,2049,2042,2045
2042,2058,2042,2043,2036,2047,2044,2038
2046,2057,2050,2047,2040,2051,2063,2028
2053,2056,2049,2038,2040,2054,2034,2024
2050,2052,2041,2040,2045,2055,2027,2014
2042,2049,2042,2043,2032,2053,2047,2015
2040,2051,2040,2042,2036,2049,2053,2012
2037,2047,2040,2040,2034,2045,2052,2007
2041,2047,2039,2036,2036,2048,2050,2004
2035,2046,2030,2030,2031,2037,2029,1992
2028,2038,2030,2030,2033,2042,2054,2003
2038,2055,2040,2036,2043,2062,2057,2005
2038,2058,2041,2038,2046,2058,2077,2008
2041,2060,2044,2038,2050,2065,2083,2011
2044,2059,2048,2040,2048,2068,2074,2009
2046,2062,2052,2044,2056,2071,2058,2022
2050,2062,2058,2045,2060,2070,2053,2034
2047,2060,2056,2043,2064,2067,2051,2033
2046,2058,2051,2044,2064,2060,2063,2041
2042,2063,2057,2054,2070,2057,2063,2056
2039,2061,2054,2050,2063,2051,2076,2061
2040,2053,2051,2049,2065,2043,2066,2074
2032,2048,2046,2048,2062,2040,2036,2075
2033,2048,2036,2046,2057,2039,2036,2083
2035,2042,2029,2042,2053,2041,2018,2091
2030,2040,2025,2036,2042,2034,2049,2089
2023,2028,2023,2029,2037,2029,2051,2080
2020,2030,2031,2034,2034,2034,2066,2097
2029,2042,2030,2035,2035,2040,2050,2076
2027,2046,2028,2038,2027,2036,2053,2066
2026,2044,2020,2044,2032,2042,2061,2062
2033,2042,2026,2037,2029,2044,2062,2052
2029,2038,2016,2041,2025,2049,2070,2038
2024,2028,2011,2032,2023,2049,2056,2022
2028,2018,2008,2033,2027,2048,2052,2016
2030,2031,2015,2034,2024,2044,2055,2010
2032,2040,2029,2039,2030,2049,2060,2009
2033,2041,2030,2039,2038,2047,2049,2016
2045,2053,2031,2043,2041,2048,2051,2016
2045,2056,2035,2040,2033,2040,2065,2010
2048,2066,2046,2041,2037,2044,2065,2006
2049,2062,2053,2051,2038,2047,2044,2003
2042,2041,2046,2045,2034,2044,2059,2000
2038,2042,2037,2049,2039,2050,2056,2004
2045,2049,2052,2053,2050,2055,2069,2010
2043,2048,2049,2050,2049,2055,2058,2006
2053,2049,2053,2048,2051,2052,2068,2012
2053,2048,2057,2046,2054,2045,2053,2012
2047,2041,2049,2041,2049,2044,2054,2018
2047,2043,2043,2048,2048,2046,2066,2032
2047,2048,2046,2058,2056,2043,2064,2038
2047,2050,2056,2066,2058,2052,2047,2054
2053,2060,2058,2075,2066,2052,2065,2061
2053,2064,2064,2077,2068,2056,2063,2075
2055,2066,2072,2076,2064,2058,2072,2085
2051,2065,2070,2074,2070,2056,2068,2092
2052,2063,2064,2070,2062,2059,2067,2101
2051,2064,2057,2060,2058,2045,2056,2093
2050,2052,2054,2047,2043,2031,2023,2099
2039,2040,2056,2052,2041,2034,2038,2092
2045,2055,2068,2056,2048,2044,2055,2092
2053,2061,2072,2059,2054,2050,2053,2093
2048,2060,2073,2060,2051,2050,2067,2088
2047,2056,2069,2056,2044,2052,2057,2079
2047,2053,2080,2051,2043,2050,2078,2072
2049,2061,2085,2045,2045,2052,2065,2056
2051,2064,2081,2034,2042,2044,2057,2054
2047,2054,2060,2022,2039,2042,2061,2040
2046,2056,2050,2025,2037,2045,2058,2037
2043,2054,2042,2025,2039,2050,2068,2032
2052,2048,2042,2031,2048,2051,2066,2023
2050,2046,2039,2020,2044,2045,2051,2022
2052,2046,2040,2021,2042,2044,2058,2014
2052,2044,2035,2027,2042,2048,2038,2013
2052,2046,2028,2030,2044,2045,2046,2006
2044,2037,2022,2029,2042,2042,2052,2007
2045,2033,2023,2025,2043,2057,2062,2005
2054,2042,2032,2036,2055,2063,2080,2012
2050,2047,2030,2040,2058,2072,2072,2010
2053,2045,2032,2050,2060,2072,2079,2023
2054,2046,2036,2058,2065,2069,2066,2020
2052,2047,2041,2061,2062,2068,2074,2023
2050,2048,2041,2065,2066,2065,2059,2030
2050,2045,2044,2065,2073,2059,2070,2041
2045,2049,2057,2062,2068,2059,2069,2041
2057,2049,2056,2067,2066,2052,2063,2055
2056,2050,2050,2062,2072,2042,2065,2066
2057,2039,2055,2057,2069,2043,2037,2080
2050,2038,2054,2053,2059,2047,2046,2084
2048,2038,2053,2049,2055,2048,2069,2086
2046,2041,2054,2043,2057,2052,2063,2086
2044,2041,2060,2034,2057,2041,2053,2089
2036,2024,2043,2026,2046,2036,2050,2084
2033,2024,2038,2023,2045,2044,2066,2085
2038,2029,2034,2017,2045,2043,2065,2089
2037,2029,2024,2016,2047,2041,2057,2082
2036,2034,2025,2018,2041,2046,2044,2083
2035,2037,2020,2018,2046,2046,2054,2071
2048,2043,2020,2023,2054,2045,2055,2065
2047,2041,2027,2031,2049,2046,2044,2050
2052,2041,2025,2039,2049,2050,2052,2038
2050,2043,2034,2042,2046,2046,2054,2029
2048,2040,2037,2038,2049,2041,2046,2023
2053,2044,2045,2041,2052,2040,2042,2017
2047,2042,2049,2045,2052,2044,2036,2012
2048,2039,2053,2054,2056,2048,2024,2006
2044,2036,2045,2053,2056,2053,2047,2006
2045,2041,2044,2054,2059,2056,2039,2007
2042,2034,2038,2045,2050,2048,2045,2000
2043,2028,2049,2040,2051,2041,2048,2001
2039,2042,2061,2050,2052,2052,2060,2006
2050,2043,2059,2047,2056,2049,2062,2008
2047,2042,2058,2047,2050,2053,2055,2012
2047,2049,2060,2053,2051,2054,2061,2025
2049,2054,2064,2053,2053,2052,2072,2026
2055,2054,2067,2062,2061,2060,2064,2034
2052,2063,2069,2063,2065,2059,2068,2042
2057,2061,2063,2061,2069,2058,2068,2047
2054,2056,2060,2067,2069,2064,2071,2052
2055,2050,2066,2065,2070,2056,2072,2068
2058,2052,2067,2070,2065,2057,2072,2080
2055,2054,2069,2068,2069,2056,2065,2085
2053,2051,2069,2064,2071,2058,2065,2091
2050,2050,2072,2066,2069,2056,2057,2095
2048,2050,2061,2060,2063,2043,2052,2092
2038,2030,2046,2050,2047,2040,2057,2095
2040,2034,2041,2052,2054,2040,2060,2100
2049,2040,2052,2057,2058,2046,2069,2095
2049,2047,2047,2055,2052,2047,2061,2094
2048,2050,2052,2056,2050,2046,2062,2086
2046,2050,2042,2052,2052,2046,2060,2072
2047,2046,2038,2053,2051,2048,2049,2064
2050,2044,2035,2050,2043,2047,2043,2047
2040,2043,2033,2046,2045,2047,2048,2044
2050,2045,2027,2035,2039,2044,2041,2035
2045,2040,2027,2030,2044,2041,2026,2022
2048,2046,2030,2031,2038,2045,2031,2018
2045,2052,2035,2033,2046,2043,2036,2016
2051,2045,2033,2032,2044,2049,2036,2014
2056,2044,2034,2035,2050,2055,2042,2010
2050,2048,2048,2043,2048,2052,2041,2007
2052,2050,2056,2057,2052,2044,2028,1998
2043,2037,2054,2054,2043,2040,2021,1994
2045,2036,2050,2065,2052,2056,2042,2004
2051,2056,2055,2075,2061,2060,2041,2003
2055,2059,2055,2074,2062,2060,2041,2015
2054,2056,2054,2080,2062,2056,2036,2018
2053,2060,2064,2083,2075,2052,2035,2017
2052,2060,2061,2087,2068,2056,2048,2024
2048,2061,2060,2085,2066,2055,2047,2030
2053,2052,2050,2087,2064,2054,2040,2036
2053,2049,2052,2088,2066,2053,2044,2043
2055,2051,2047,2081,2065,2054,2043,2056
2046,2041,2038,2070,2050,2052,2066,2065
2046,2041,2029,2049,2050,2049,2063,2075
2040,2040,2025,2036,2050,2054,2055,2082
2043,2042,2034,2035,2054,2049,2064,2088
2039,2040,2049,2028,2053,2050,2045,2088
2045,2036,2041,2010,2044,2044,2037,2094
2036,2034,2044,2011,2048,2042,2058,2094
2047,2048,2064,2029,2050,2048,2062,2089
2048,2052,2072,2032,2055,2047,2048,2086
2048,2050,2060,2029,2053,2047,2051,2083
2050,2049,2052,2027,2042,2051,2050,2075
2046,2048,2051,2035,2056,2051,2044,2066
2047,2045,2052,2033,2050,2049,2017,2052
2046,2046,2048,2039,2054,2047,2042,2038
2047,2045,2048,2039,2053,2043,2052,2026
2045,2042,2043,2038,2049,2039,2042,2020
2046,2038,2040,2042,2041,2036,2057,2016
2047,2041,2033,2034,2041,2026,2058,2011
2045,2042,2039,2039,2040,2028,2054,2012
2043,2043,2041,2039,2041,2031,2050,2010
2046,2050,2047,2045,2048,2034,2041,2006
2050,2054,2056,2051,2049,2026,2029,1996
2052,2042,2048,2049,2041,2022,2026,1998
2046,2041,2045,2042,2054,2040,2034,2003
2057,2055,2053,2055,2058,2047,2038,2005
2050,2053,2050,2045,2051,2046,2044,2001
2048,2051,2053,2048,2048,2046,2044,2004
2044,2052,2056,2049,2055,2047,2051,2007
2047,2046,2058,2049,2055,2049,2065,2018
2049,2048,2057,2051,2059,2051,2061,2026
2044,2050,2056,2051,2059,2055,2067,2032
2049,2042,2053,2048,2066,2057,2060,2044
2048,2046,2057,2049,2061,2055,2054,2048
2048,2049,2064,2050,2061,2049,2061,2054
2041,2054,2061,2054,2059,2045,2052,2067
2040,2052,2061,2050,2063,2049,2045,2078
2044,2054,2060,2056,2061,2050,2066,2083
2041,2051,2051,2049,2061,2046,2062,2089
2038,2031,2044,2037,2053,2044,2059,2090
2037,2030,2040,2038,2053,2044,2056,2089
2036,2030,2040,2045,2056,2055,2061,2091
2037,2037,2037,2048,2057,2057,2071,2087
2039,2039,2037,2047,2058,2053,2060,2078
2042,2037,2038,2052,2052,2048,2034,2071
2047,2034,2033,2050,2047,2051,2033,2063
2036,2027,2032,2043,2045,2050,2029,2046
2045,2030,2029,2044,2044,2051,2017,2039
2042,2026,2025,2046,2052,2050,2027,2031
2040,2035,2027,2045,2049,2048,2037,2027
2045,2034,2026,2044,2055,2047,2044,2018
2046,2029,2019,2042,2055,2050,2027,2014
2038,2028,2016,2043,2044,2041,2020,2004
2040,2024,2003,2039,2047,2043,2030,1996
2034,2020,2000,2031,2054,2036,2021,1996
2033,2015,2007,2022,2040,2027,2021,1996
2026,2018,2017,2023,2046,2024,2022,1998
2029,2035,2040,2035,2052,2033,2026,2005
2042,2045,2039,2035,2050,2040,2021,2008
2037,2044,2038,2030,2048,2042,2035,2010
2043,2048,2043,2030,2058,2050,2052,2025
2050,2062,2051,2036,2069,2057,2063,2034
2053,2064,2057,2050,2071,2051,2043,2030
2051,2060,2058,2047,2066,2055,2037,2033
2054,2058,2069,2048,2068,2056,2048,2046
2047,2064,2063,2047,2069,2056,2036,2057
2048,2061,2066,2047,2068,2056,2037,2064
2043,2058,2063,2049,2075,2060,2045,2076
2047,2050,2058,2045,2068,2056,2043,2088
2043,2051,2058,2044,2065,2055,2037,2091
2043,2053,2053,2045,2073,2063,2057,2094
2053,2056,2053,2044,2071,2058,2040,2101
2040,2048,2046,2045,2064,2053,2039,2100
2038,2047,2044,2057,2067,2055,2048,2103
2051,2050,2045,2054,2065,2060,2039,2093
2052,2048,2042,2057,2064,2062,2053,2086
2054,2055,2036,2052,2057,2055,2053,2085
2060,2051,2034,2054,2050,2057,2057,2074
2060,2052,2022,2059,2051,2063,2029,2056
2062,2048,2024,2058,2044,2067,2039,2041
2060,2051,2026,2060,2050,2078,2033,2034
2057,2044,2027,2060,2047,2085,2039,2025
2049,2033,2024,2060,2046,2092,2047,2020
2043,2033,2024,2053,2042,2088,2035,2011
2041,2034,2034,2056,2042,2041,2018,2005
2042,2038,2043,2051,2042,2001,2017,2007
2038,2033,2047,2054,2043,2003,2024,2003
2042,2043,2056,2051,2040,2019,2032,2001
2041,2031,2043,2046,2040,2034,2028,2004
2038,2032,2050,2052,2047,2039,2037,2008
2050,2045,2060,2056,2046,2041,2034,2007
2047,2044,2072,2066,2052,2040,2034,2008
2050,2042,2066,2063,2046,2039,2036,2006
2045,2044,2067,2055,2042,2032,2036,2018
2047,2049,2085,2065,2048,2043,2048,2029
2053,2058,2089,2068,2051,2044,2050,2037
2052,2065,2086,2068,2058,2044,2063,2047
2056,2070,2081,2065,2063,2048,2039,2058
2061,2068,2075,2065,2061,2046,2034,2069
2059,2063,2074,2064,2069,2045,2032,2076
2059,2066,2072,2064,2060,2042,2049,2084
2055,2065,2070,2063,2059,2039,2051,2096
2055,2059,2061,2058,2055,2042,2042,2105
2044,2056,2057,2035,2043,2037,2047,2103
2032,2032,2058,2021,2039,2035,2027,2098
2037,2038,2064,2025,2038,2045,2035,2104
2042,2044,2060,2022,2043,2050,2049,2102
2051,2050,2048,2017,2040,2044,2044,2098
2053,2046,2037,2011,2037,2046,2040,2082
2051,2044,2034,2014,2038,2046,2040,2074
2049,2052,2040,2026,2030,2044,2036,2072
2052,2062,2049,2034,2037,2043,2046,2052
2054,2060,2055,2037,2032,2053,2049,2044
2050,2051,2051,2040,2033,2051,2043,2030
2043,2045,2046,2036,2029,2052,2053,2027
2054,2040,2046,2036,2034,2055,2070,2017
2041,2039,2049,2036,2033,2049,2061,2017
2048,2042,2054,2041,2046,2047,2055,2014
2052,2041,2057,2048,2049,2043,2057,2009
2051,2040,2049,2037,2037,2024,2038,1999
2048,2032,2043,2035,2046,2025,2050,2001
2042,2042,2053,2044,2051,2040,2052,2016
2049,2052,2050,2047,2056,2037,2048,2016
2045,2047,2054,2047,2059,2042,2059,2011
2047,2046,2051,2042,2060,2045,2055,2021
2046,2047,2049,2044,2057,2045,2059,2023
2051,2053,2047,2045,2056,2045,2060,2028
2052,2049,2047,2042,2060,2043,2063,2043
2057,2045,2049,2047,2055,2049,2074,2048
2046,2042,2049,2053,2066,2048,2066,2059
2042,2049,2045,2049,2064,2050,2051,2069
2044,2044,2042,2049,2062,2051,2053,2084
2052,2042,2032,2045,2065,2050,2064,2100
2046,2040,2032,2045,2060,2053,2052,2096
2044,2036,2028,2050,2055,2044,2022,2099
2042,2027,2019,2045,2037,2029,2019,2097
2032,2015,2019,2047,2045,2037,2020,2097
2036,2023,2027,2054,2043,2045,2037,2101
2041,2026,2026,2059,2049,2048,2031,2092
2041,2035,2028,2072,2049,2050,2031,2085
2046,2035,2029,2070,2044,2044,2051,2069
2044,2031,2035,2058,2045,2039,2034,2061
2041,2030,2036,2063,2041,2034,2036,2045
2044,2031,2038,2070,2042,2036,2043,2038
2042,2034,2056,2080,2046,2041,2036,2031
2045,2036,2073,2081,2045,2039,2032,2022
2044,2038,2070,2080,2043,2036,2025,2022
2042,2033,2051,2076,2034,2030,2032,2013
2035,2016,2036,2062,2035,2030,2021,2010
2030,2016,2035,2059,2039,2034,2041,2008
2031,2016,2031,2049,2038,2034,2036,2001
2023,2008,2015,2024,2033,2032,2015,1996
2030,2013,2015,2020,2035,2032,2009,2006
2048,2042,2042,2023,2045,2039,2050,2019
2053,2052,2052,2025,2046,2040,2038,2028
2055,2054,2064,2029,2053,2038,2042,2027
2057,2051,2057,2023,2041,2036,2055,2036
2056,2052,2054,2010,2035,2034,2039,2048
2062,2056,2066,2011,2048,2037,2046,2060
2071,2074,2086,2027,2047,2044,2037,2062
2073,2080,2091,2037,2051,2047,2054,2072
2072,2076,2089,2036,2056,2053,2050,2077
2071,2070,2077,2041,2061,2056,2057,2087
2063,2061,2073,2045,2062,2060,2030,2096
2065,2061,2072,2043,2063,2057,2046,2098
2065,2060,2070,2040,2055,2054,2028,2106
2061,2054,2064,2038,2047,2063,2029,2103
2059,2046,2053,2037,2045,2048,2029,2097
2047,2040,2048,2034,2044,2052,2025,2098
2053,2046,2055,2043,2044,2062,2052,2112
2056,2045,2049,2042,2046,2062,2035,2098
2056,2051,2053,2039,2047,2054,2021,2092
2056,2049,2050,2048,2044,2050,2035,2083
2062,2046,2050,2041,2036,2051,2051,2074
2056,2045,2050,2043,2029,2042,2041,2069
2055,2035,2041,2048,2031,2040,2045,2053
2058,2040,2043,2046,2037,2044,2040,2048
2058,2040,2032,2038,2034,2045,2035,2033
2057,2037,2027,2044,2041,2045,2036,2034
2058,2045,2027,2044,2038,2050,2034,2022
2052,2038,2027,2041,2041,2052,2033,2020
2050,2041,2033,2036,2043,2057,2043,2010
2050,2047,2027,2045,2044,2051,2050,2016
2052,2035,2025,2040,2039,2040,2021,2000
2042,2032,2020,2043,2038,2044,2020,2009
2057,2047,2029,2048,2052,2055,2025,2013
2052,2048,2030,2042,2054,2054,2048,2013
2053,2052,2035,2047,2053,2058,2037,2016
2054,2045,2039,2056,2061,2063,2053,2019
2050,2045,2048,2058,2066,2062,2053,2026
2055,2046,2059,2064,2064,2058,2046,2033
2059,2046,2067,2061,2064,2061,2051,2042
2057,2045,2070,2067,2068,2065,2065,2045
2050,2050,2076,2069,2071,2068,2062,2055
2050,2048,2069,2071,2069,2061,2059,2068
2052,2038,2060,2076,2065,2056,2052,2080
2054,2036,2054,2072,2055,2048,2033,2081
2044,2034,2056,2069,2051,2042,2044,2088
2041,2031,2049,2064,2044,2044,2037,2095
2041,2023,2037,2057,2038,2033,2016,2088
2033,2017,2034,2050,2035,2035,2037,2094
2040,2021,2037,2047,2037,2037,2032,2095
2038,2028,2034,2036,2031,2037,2045,2093
2043,2029,2030,2031,2029,2037,2026,2085
2049,2035,2044,2028,2029,2037,2030,2073
2046,2047,2047,2024,2023,2034,2030,2072
2045,2043,2043,2018,2015,2042,2029,2057
2050,2038,2038,2012,2016,2043,2034,2047
2052,2045,2046,2025,2023,2045,2034,2036
2057,2052,2048,2023,2025,2049,2047,2032
2059,2054,2043,2019,2028,2047,2016,2025
2058,2045,2047,2020,2034,2049,2028,2019
2055,2050,2053,2024,2042,2047,2050,2016
2057,2058,2057,2035,2040,2047,2045,2015
2057,2057,2061,2041,2042,2051,2049,2014
2047,2054,2058,2050,2037,2047,2041,2011
2041,2045,2062,2056,2034,2042,2028,2006
2050,2057,2069,2069,2054,2054,2038,2014
2049,2056,2077,2073,2048,2053,2050,2018
2057,2065,2084,2078,2051,2061,2049,2028
2052,2069,2090,2082,2060,2065,2046,2031
2050,2060,2084,2088,2056,2061,2055,2038
2051,2059,2086,2081,2064,2064,2059,2053
2054,2060,2080,2082,2060,2061,2057,2043
2048,2052,2065,2083,2057,2064,2050,2055
2053,2054,2062,2077,2057,2066,2062,2067
2052,2054,2059,2077,2055,2062,2061,2079
2051,2058,2059,2068,2057,2058,2059,2094
2050,2057,2053,2052,2055,2051,2064,2112
2045,2059,2057,2054,2051,2055,2067,2116
2048,2061,2051,2047,2049,2060,2056,2114
2042,2048,2034,2035,2040,2055,2047,2111
2042,2038,2020,2019,2033,2058,2057,2102
2046,2047,2038,2022,2033,2054,2051,2103
2045,2042,2049,2030,2029,2051,2040,2100
2051,2047,2042,2022,2023,2045,2038,2090
2043,2041,2025,2026,2021,2043,2034,2075
2047,2046,2026,2027,2020,2044,2037,2059
2053,2053,2027,2032,2028,2041,2040,2050
2051,2051,2036,2037,2031,2049,2038,2045
2048,2050,2037,2044,2034,2045,2042,2037
2044,2044,2040,2035,2029,2047,2036,2033
2045,2041,2043,2036,2034,2047,2054,2027
2045,2043,2043,2042,2031,2053,2048,2022
2046,2039,2044,2040,2037,2046,2045,2025
2043,2041,2040,2038,2034,2054,2048,2018
2047,2038,2037,2032,2035,2053,2043,2012
2034,2027,2027,2029,2034,2048,2049,2012
2041,2036,2032,2041,2033,2050,2069,2010
2050,2058,2049,2051,2045,2061,2047,2021
2047,2056,2050,2047,2045,2059,2055,2022
2042,2049,2047,2049,2046,2057,2058,2021
2049,2053,2056,2046,2047,2056,2050,2025
2047,2056,2067,2055,2051,2057,2052,2035
2055,2066,2075,2056,2058,2059,2052,2042
2054,2060,2077,2058,2055,2066,2064,2050
2054,2057,2069,2056,2054,2060,2056,2061
2056,2051,2058,2052,2056,2062,2051,2072
2056,2059,2059,2056,2051,2059,2036,2084
2056,2056,2055,2056,2058,2059,2048,2090
2048,2053,2055,2052,2061,2053,2047,2097
2052,2056,2056,2054,2053,2057,2036,2101
2049,2057,2062,2051,2052,2051,2043,2101
2046,2047,2052,2041,2039,2040,2034,2103
2037,2040,2047,2043,2040,2044,2032,2108
2042,2051,2060,2054,2043,2050,2037,2103
2046,2051,2056,2052,2038,2054,2049,2093
2042,2054,2052,2047,2037,2054,2042,2087
2044,2050,2057,2045,2038,2046,2043,2077
2049,2056,2056,2052,2032,2053,2038,2064
2054,2055,2051,2055,2031,2051,2025,2054
2056,2057,2053,2056,2038,2055,2034,2049
2050,2056,2052,2050,2039,2051,2046,2048
2049,2053,2047,2055,2038,2052,2054,2035
2054,2047,2050,2058,2038,2050,2041,2026
2050,2050,2051,2056,2034,2049,2051,2019
2049,2049,2046,2056,2038,2044,2051,2017
2046,2050,2047,2071,2044,2043,2041,2014
2044,2051,2050,2067,2040,2046,2034,2004
2036,2036,2046,2063,2036,2034,2032,2002
2033,2032,2035,2066,2031,2035,2020,2007
2044,2043,2046,2072,2045,2040,2035,2010
2049,2042,2043,2073,2049,2048,2037,2011
2048,2045,2047,2071,2049,2047,2031,2012
2045,2045,2044,2067,2054,2053,2036,2016
2044,2044,2044,2067,2052,2046,2052,2027
2042,2038,2032,2062,2050,2047,2059,2036
2045,2039,2025,2054,2055,2055,2065,2043
2044,2036,2022,2049,2055,2048,2045,2055
2046,2035,2021,2048,2049,2047,2051,2056
2045,2035,2019,2044,2046,2047,2058,2064
2036,2040,2027,2036,2051,2052,2064,2080
2041,2042,2033,2030,2044,2053,2058,2093
2036,2043,2029,2030,2042,2061,2072,2098
2040,2040,2029,2029,2047,2061,2051,2095
2037,2031,2021,2019,2038,2052,2030,2088
2028,2032,2025,2026,2026,2044,2048,2084
2036,2041,2042,2040,2040,2049,2051,2081
2041,2044,2052,2040,2044,2055,2059,2085
2041,2047,2043,2041,2033,2061,2052,2073
2046,2046,2041,2037,2033,2061,2052,2065
2046,2050,2045,2042,2032,2060,2047,2060
2040,2054,2052,2043,2036,2059,2064,2050
2054,2058,2054,2043,2040,2053,2053,2042
2050,2056,2058,2046,2037,2048,2036,2038
2055,2058,2051,2039,2037,2049,2051,2034
2053,2064,2044,2045,2042,2050,2052,2027
2058,2066,2034,2034,2035,2045,2063,2019
2055,2064,2033,2033,2030,2050,2076,2014
2056,2061,2023,2029,2033,2051,2049,2009
2055,2050,2021,2026,2029,2048,2054,2004
2043,2033,2007,2010,2021,2043,2065,1997
2042,2037,2015,2014,2025,2043,2036,2011
2053,2056,2029,2030,2036,2054,2053,2016
2054,2057,2040,2037,2040,2055,2054,2017
2052,2058,2048,2052,2040,2052,2047,2024
2054,2057,2056,2052,2049,2053,2037,2029
2050,2055,2058,2058,2051,2060,2047,2032
2058,2053,2071,2061,2055,2058,2061,2038
2055,2054,2072,2065,2059,2056,2060,2042
2060,2053,2078,2068,2063,2059,2067,2052
2054,2057,2083,2077,2062,2062,2052,2062
2058,2056,2088,2073,2055,2062,2060,2077
2065,2054,2088,2072,2063,2064,2063,2082
2060,2053,2085,2071,2054,2053,2062,2089
2057,2058,2086,2073,2055,2054,2056,2095
2055,2063,2090,2075,2049,2054,2050,2092
2049,2057,2076,2062,2044,2048,2052,2101
2043,2045,2064,2052,2034,2049,2061,2101
2051,2058,2054,2043,2037,2056,2053,2101
2053,2051,2042,2035,2029,2048,2064,2091
2055,2046,2033,2029,2027,2045,2054,2082
2053,2050,2026,2013,2026,2046,2047,2073
2056,2049,2029,2016,2028,2051,2035,2062
2057,2053,2031,2026,2032,2045,2059,2055
2059,2053,2038,2032,2028,2029,2059,2040
2059,2050,2046,2047,2029,2006,2054,2029
2060,2057,2054,2046,2022,2004,2047,2022
2057,2053,2057,2047,2030,2014,2034,2028
2056,2052,2064,2052,2034,2028,2058,2012
2057,2054,2072,2059,2036,2039,2057,2012
2056,2055,2081,2066,2038,2042,2061,2004
2050,2054,2086,2068,2042,2040,2047,1996
2052,2053,2080,2066,2033,2030,2027,1992
2047,2039,2069,2071,2036,2026,2025,1990
2045,2039,2070,2070,2036,2035,2059,2002
2057,2052,2075,2074,2050,2038,2073,2004
2054,2052,2061,2074,2051,2047,2068,2002
2054,2052,2064,2076,2055,2046,2063,2017
2055,2055,2055,2075,2057,2049,2056,2017
2053,2050,2052,2068,2053,2044,2054,2016
2054,2044,2039,2055,2053,2044,2060,2021
2050,2052,2037,2050,2052,2048,2065,2027
2050,2039,2037,2046,2055,2051,2061,2038
2049,2044,2032,2035,2048,2050,2062,2047
2045,2036,2027,2028,2052,2050,2063,2060
2049,2036,2026,2019,2048,2054,2058,2073
2050,2038,2025,2021,2038,2049,2058,2087
2050,2040,2023,2017,2029,2049,2040,2092
2048,2046,2023,2018,2028,2047,2030,2093
2046,2037,2018,2019,2019,2038,2033,2089
2039,2030,2020,2029,2016,2041,2050,2093
2046,2041,2025,2036,2016,2042,2057,2093
2054,2047,2034,2042,2006,2046,2071,2087
2052,2042,2030,2032,1997,2040,2048,2079
2051,2039,2028,2031,1995,2039,2047,2076
2059,2047,2037,2033,1991,2037,2051,2070
2055,2051,2044,2029,1999,2036,2048,2061
2051,2049,2040,2036,2004,2038,2043,2052
2056,2045,2040,2034,2015,2042,2052,2045
2050,2045,2035,2033,2030,2042,2050,2036
2055,2044,2036,2034,2062,2045,2054,2035
2059,2051,2041,2040,2088,2049,2044,2027
2064,2058,2039,2040,2122,2058,2042,2022
2066,2057,2044,2051,2122,2057,2057,2019
2059,2058,2043,2051,2114,2053,2047,2008
2061,2049,2030,2036,2105,2049,2052,2001
2046,2032,2012,2018,2091,2042,2046,2004
2049,2032,2011,2006,2076,2048,2042,2009
2059,2055,2034,2017,2084,2069,2053,2015
2059,2058,2038,2022,2074,2075,2057,2018
2071,2053,2030,2026,2061,2080,2058,2017
2070,2058,2035,2026,1996,2072,2067,2021
2063,2060,2035,2023,1983,2065,2057,2026
2066,2050,2035,2032,2015,2054,2060,2041
2065,2053,2042,2049,2053,2039,2062,2049
2063,2052,2049,2057,2066,2041,2075,2052
2067,2056,2056,2050,2046,2046,2086,2068
2062,2061,2055,2047,2012,2047,2084,2086
2065,2064,2063,2052,2009,2054,2097,2094
2067,2071,2065,2062,2017,2051,2097,2103
2063,2068,2060,2062,2016,2050,2083,2107
2064,2062,2047,2050,2028,2038,2080,2099
2060,2048,2037,2041,2045,2033,2061,2093
2046,2043,2028,2036,2041,2043,2040,2095
2048,2039,2037,2023,1987,2033,2037,2096
2055,2050,2040,2013,1951,2034,2058,2090
2063,2060,2049,2025,2016,2047,2070,2086
2063,2059,2057,2041,2050,2055,2050,2077
2057,2060,2070,2048,2058,2056,2052,2068
2060,2065,2088,2059,2058,2053,2062,2056
2057,2062,2088,2062,2042,2050,2052,2053
2057,2061,2082,2063,2022,2031,2055,2044
2055,2057,2084,2057,1992,2017,2069,2037
2057,2048,2075,2055,1993,2022,2071,2033
2052,2051,2070,2057,1991,2025,2060,2024
2055,2050,2064,2054,2001,2019,2062,2015
2050,2048,2063,2054,2015,2021,2065,2016
2048,2048,2064,2062,2036,2025,2064,2010
2055,2043,2061,2060,2051,2029,2058,2009
2045,2039,2054,2047,2040,2023,2058,2000
2040,2040,2053,2040,2027,2019,2056,2006
2058,2056,2060,2042,2045,2023,2065,2005
2053,2055,2068,2052,2090,2038,2076,2017
2055,2062,2077,2051,2095,2052,2079,2019
2056,2054,2073,2050,2082,2067,2075,2028
2059,2056,2067,2049,2079,2071,2080,2038
2059,2061,2065,2041,2084,2076,2074,2041
2058,2063,2063,2038,2077,2072,2078,2048
2056,2056,2062,2032,2086,2070,2070,2057
2060,2059,2066,2040,2093,2081,2079,2073
2062,2060,2062,2049,2111,2086,2079,2091
2065,2065,2069,2058,2131,2085,2072,2099
2066,2064,2066,2049,2121,2070,2079,2108
2063,2060,2059,2041,2100,2043,2064,2105
2059,2064,2060,2039,2089,2022,2061,2110
2056,2058,2053,2040,2125,2024,2063,2104
2055,2053,2056,2060,2174,2045,2062,2114
2064,2057,2071,2073,2180,2056,2052,2110
2066,2066,2069,2061,2063,2033,2035,2094
2059,2055,2058,2037,1926,2026,2008,2076
2056,2042,2049,2029,1925,2022,2008,2061
2046,2040,2042,2027,1907,2011,2021,2056
2048,2032,2036,2018,1821,1992,2019,2038
2043,2030,2031,1990,1696,1960,2005,2021
2042,2031,2025,1986,1715,1956,2006,2020
2046,2035,2044,2030,1813,1968,2046,2033
2060,2054,2073,2059,1822,1976,2028,2037
2070,2064,2072,2055,1884,2009,2021,2032
2065,2065,2068,2064,1982,2055,2047,2029
2068,2072,2071,2088,2063,2089,2055,2025
2066,2064,2068,2093,2115,2096,2050,2025
2068,2065,2062,2087,2192,2095,2051,2008
2053,2048,2047,2073,2219,2090,2046,2004
2049,2045,2047,2065,2221,2105,2051,2008
2061,2053,2052,2060,2169,2102,2034,1997
2056,2054,2053,2047,2111,2095,2040,2010
2065,2061,2058,2057,2098,2085,2052,2015
2062,2062,2058,2047,2068,2067,2048,2021
2061,2064,2058,2038,1984,2030,2056,2030
2053,2064,2057,2011,1871,1976,2042,2032
2059,2061,2045,1989,1842,1962,2039,2047
2060,2058,2054,2015,1953,1994,2059,2061
2062,2057,2054,2042,2055,2016,2049,2063
2057,2051,2049,2057,2099,2048,2043,2073
2054,2053,2048,2070,2127,2073,2058,2092
2057,2054,2046,2070,2118,2088,2064,2102
2058,2053,2042,2062,2154,2107,2066,2108
2053,2053,2047,2077,2204,2125,2076,2100
2050,2042,2041,2083,2218,2126,2061,2101
2046,2044,2044,2084,2165,2133,2077,2110
2061,2058,2050,2075,2130,2133,2077,2113
2066,2066,2052,2073,2169,2143,2083,2111
2065,2067,2051,2073,2235,2141,2081,2102
2064,2065,2048,2073,2231,2123,2084,2095
2067,2059,2041,2056,2096,2065,2072,2090
2066,2055,2050,2035,1983,2008,2038,2065
2057,2055,2044,2029,1959,1988,2048,2046
2056,2058,2053,2040,1954,1994,2055,2040
2055,2064,2055,2047,1944,1998,2043,2028
2054,2058,2051,2028,1983,1975,2039,2016
2042,2050,2037,2011,2034,1966,2011,2002
2033,2039,2028,2016,1969,1978,1999,1986
2029,2027,2028,2005,1829,1994,2010,1976
2019,2020,2019,2037,1960,2029,2034,1970
2017,2017,2012,2060,2109,2054,1999,1970
2019,2010,2012,2080,2174,2068,2000,1981
2034,2030,2033,2090,2158,2079,2030,1995
2039,2036,2028,2086,2122,2054,2058,2002
2044,2038,2027,2074,2106,2002,2035,2013
2049,2047,2028,2067,2085,1976,2026,2019
2060,2052,2028,2066,2086,1988,2045,2021
2059,2060,2035,2070,2058,1999,2049,2028
2050,2054,2042,2074,2005,1997,2029,2030
2049,2055,2055,2088,2033,2007,2037,2041
2050,2048,2063,2100,2058,2016,2020,2045
2049,2048,2072,2098,2081,2030,2039,2052
2051,2047,2074,2109,2099,2044,2039,2068
2050,2053,2074,2104,2117,2048,2052,2086
2052,2047,2073,2100,2108,2063,2060,2098
2058,2044,2076,2096,2101,2074,2064,2093
2056,2043,2073,2091,2118,2067,2063,2095
2048,2037,2068,2078,2070,2069,2064,2094
2049,2043,2080,2063,1990,2075,2072,2106
2068,2069,2099,2057,1957,2070,2059,2095
2064,2076,2097,2050,1946,2064,2047,2096
2063,2066,2084,2039,1915,2065,2059,2087
2060,2066,2067,2027,1908,2059,2069,2086
2058,2059,2056,2004,1870,2043,2053,2070
2059,2056,2043,1972,1891,2029,2034,2058
2056,2052,2033,1963,1898,2016,2052,2059
2059,2053,2040,1970,1967,2024,2050,2045
2058,2054,2047,1989,2024,2029,2029,2034
2060,2060,2052,2014,2067,2043,2036,2026
2058,2068,2064,2047,2123,2070,2059,2023
2056,2069,2070,2077,2182,2096,2069,2025
2058,2067,2066,2105,2207,2128,2064,2022
2062,2063,2061,2105,2214,2135,2084,2010
2048,2047,2037,2080,2148,2121,2058,2005
2040,2035,2019,2060,2107,2107,2069,2007
2049,2049,2031,2055,2092,2090,2069,2018
2049,2047,2025,2037,2052,2060,2038,2013
2042,2042,2015,2032,2067,2027,2036,2008
2044,2045,2021,2043,2093,2017,2052,2015
2051,2051,2035,2062,2129,2010,2065,2026
2052,2059,2038,2065,2112,2013,2069,2028
2047,2046,2029,2048,2066,2017,2050,2026
2043,2042,2031,2032,2025,2017,2039,2038
2038,2036,2032,2011,1959,1994,2042,2052
2033,2035,2040,2008,1973,1993,2037,2054
2032,2042,2048,2021,2030,1997,2030,2067
2040,2049,2051,2028,2024,2007,2030,2085
2043,2055,2048,2025,2010,2010,2044,2092
2054,2051,2053,2030,2033,2023,2039,2097
2040,2042,2044,2032,2067,2028,2023,2093
2043,2040,2042,2036,2059,2043,2028,2099
2046,2048,2050,2031,1998,2049,2045,2098
2047,2052,2061,2024,1971,2060,2039,2094
2045,2057,2059,2024,1940,2064,2043,2088
2052,2056,2053,2006,1910,2061,2028,2080
2054,2060,2055,2007,1896,2068,2026,2067
2053,2057,2051,2010,1898,2063,2034,2056
2058,2062,2057,2013,1910,2052,2020,2057
2057,2068,2051,2020,1949,2024,2009,2046
2060,2065,2046,2015,1925,1988,2017,2035
2060,2060,2039,2024,1898,1977,2030,2028
2053,2052,2025,2016,1896,1983,2042,2023
2054,2047,2025,2052,2013,2027,2047,2020
2057,2050,2032,2107,2167,2069,2055,2010
2056,2050,2043,2126,2196,2066,2057,2011
2048,2045,2033,2119,2172,2038,2037,1991
2042,2030,2026,2108,2162,2023,2027,1983
2039,2028,2028,2106,2217,2045,2052,2003
2047,2046,2036,2102,2245,2052,2063,2002
2050,2042,2037,2074,2261,2040,2043,2007
2052,2053,2042,2079,2296,2056,2058,2017
2055,2058,2059,2070,2226,2047,2046,2023
2060,2058,2064,2071,2102,2032,2057,2033
2060,2056,2058,2060,2039,2036,2016,2036
2053,2053,2056,2063,2129,2057,2024,2041
2049,2044,2054,2060,2174,2070,2031,2042
2048,2043,2052,2040,2113,2070,2037,2050
2046,2034,2040,1998,1890,2068,2036,2054
2041,2036,2044,2018,1931,2093,2053,2067
2041,2039,2051,2046,2029,2095,2058,2074
2045,2046,2049,2054,2060,2078,2041,2079
2044,2039,2049,2064,2092,2076,2028,2077
2033,2022,2047,2058,2071,2062,2044,2084
2030,2026,2045,2059,2061,2037,2052,2088
2042,2046,2042,2063,2053,2042,2059,2083
2045,2042,2039,2059,2038,2044,2031,2072
2046,2045,2042,2057,2006,2052,2053,2075
2051,2051,2051,2066,2027,2057,2046,2060
2054,2050,2047,2070,2053,2052,2047,2056
2052,2045,2046,2062,1988,2044,2049,2045
2055,2054,2050,2058,1990,2040,2046,2034
2056,2054,2047,2056,1978,2016,2047,2026
2059,2048,2045,2045,1940,2002,2049,2018
2056,2053,2044,2052,1974,2007,2040,2018
2058,2055,2041,2065,2049,2029,2041,2018
2061,2054,2033,2063,2097,2039,2049,2012
2053,2045,2030,2060,2135,2040,2044,2005
2050,2045,2030,2053,2128,2053,2042,1998
2046,2035,2019,2057,2121,2063,2038,1984
2044,2026,2014,2056,2114,2077,2053,1996
2053,2044,2019,2053,2041,2078,2045,2006
2062,2047,2022,2037,1961,2068,2071,2005
2061,2047,2024,2031,1945,2058,2067,2009
2062,2045,2028,2008,1913,2030,2053,2009
2053,2039,2028,2011,1930,2018,2066,2014
2054,2042,2031,2023,1978,2026,2063,2022
2053,2043,2036,2032,2060,2045,2054,2019
2047,2041,2044,2054,2163,2073,2060,2033
2055,2053,2056,2060,2180,2083,2076,2053
2058,2060,2057,2045,2133,2076,2060,2059
2062,2060,2057,2049,2131,2083,2073,2072
2063,2059,2055,2057,2136,2093,2055,2082
2051,2056,2055,2067,2142,2098,2046,2083
2050,2055,2041,2076,2114,2085,2045,2082
2061,2049,2029,2070,2058,2055,2011,2082
2046,2031,2021,2062,2028,2025,2011,2078
2030,2020,2017,2037,1973,1979,2009,2071
2036,2027,2017,2042,1963,1967,2029,2075
2050,2035,2034,2066,2006,2001,2019,2068
2062,2042,2036,2076,2047,2030,2039,2058
2056,2040,2024,2071,2110,2053,2021,2047
2046,2036,2020,2060,2136,2066,2015,2035
2049,2036,2031,2061,2090,2068,2027,2024
2048,2042,2034,2065,2058,2058,2028,2022
2059,2045,2041,2075,2103,2059,2025,2026
2060,2047,2043,2076,2123,2064,2015,2012
2058,2056,2047,2079,2098,2052,2031,2007
2055,2052,2043,2074,2072,2035,2021,2001
2049,2046,2049,2073,2082,2038,2026,1993
2047,2039,2049,2065,2038,2018,2014,1995
2049,2038,2052,2049,1937,2006,2027,1989
2041,2036,2041,2066,1962,2026,2019,1993
2047,2036,2042,2083,2029,2053,2040,2007
2058,2054,2054,2091,2028,2053,2051,2013
2059,2050,2045,2076,1993,2038,2056,2012
2058,2056,2047,2070,2008,2028,2068,2015
2061,2064,2053,2075,2057,2037,2072,2016
2066,2067,2054,2066,2077,2037,2059,2021
2059,2061,2051,2054,2042,2037,2058,2028
2053,2058,2065,2058,2009,2036,2063,2038
2057,2060,2076,2057,1992,2026,2053,2042
2057,2061,2075,2051,1973,2018,2056,2042
2055,2055,2068,2044,1994,2022,2060,2054
2053,2058,2068,2061,2044,2042,2072,2069
2057,2054,2073,2073,2048,2048,2071,2076
2056,2054,2060,2071,2063,2049,2065,2082
2058,2052,2061,2068,2064,2049,2064,2088
2055,2047,2052,2063,2063,2046,2050,2084
2048,2042,2039,2063,2084,2051,2040,2081
2046,2041,2041,2072,2120,2050,2045,2079
2047,2041,2039,2072,2143,2059,2056,2074
2048,2038,2040,2076,2131,2056,2053,2064
2049,2034,2042,2078,2116,2068,2067,2058
2045,2031,2047,2068,2095,2066,2050,2046
2045,2035,2044,2050,2013,2039,2045,2039
2049,2040,2039,2034,1960,2035,2041,2031
2049,2034,2044,2037,2018,2030,2061,2029
2052,2040,2049,2042,2043,2026,2052,2017
2051,2042,2043,2051,2034,2023,2045,2005
2048,2033,2038,2052,2042,2029,2051,2005
2053,2032,2027,2050,2038,2039,2063,2000
2052,2033,2024,2044,2038,2035,2065,2001
2050,2039,2018,2039,2039,2034,2045,1997
2053,2035,2020,2052,2052,2040,2048,1989
2042,2026,2017,2059,2062,2037,2056,1985
2037,2021,2013,2057,2060,2035,2066,1993
2046,2034,2020,2068,2064,2036,2054,2001
2053,2028,2019,2067,2082,2039,2060,1997
2050,2029,2020,2076,2099,2044,2065,1999
2051,2036,2021,2078,2090,2043,2060,2002
2050,2035,2017,2080,2076,2033,2053,1996
2050,2032,2020,2077,2071,2032,2040,2011
2046,2031,2026,2077,2062,2030,2045,2019
2040,2029,2022,2081,2062,2036,2054,2034
2039,2030,2024,2080,2068,2036,2049,2044
2037,2034,2026,2081,2065,2049,2057,2047
2052,2041,2019,2078,2074,2053,2051,2068
2049,2036,2025,2076,2067,2065,2053,2073
2042,2035,2033,2062,2052,2057,2039,2083
2043,2040,2044,2050,2039,2052,2043,2082
2043,2039,2046,2050,2038,2045,2054,2085
2036,2050,2068,2050,2046,2050,2061,2093
2048,2063,2076,2054,2046,2058,2050,2093
2058,2069,2067,2046,2049,2058,2038,2086
2059,2064,2061,2040,2048,2054,2045,2080
2057,2069,2072,2045,2047,2053,2036,2062
2057,2066,2082,2057,2044,2054,2064,2062
2058,2062,2083,2064,2046,2050,2032,2045
2049,2060,2094,2069,2050,2048,2041,2031
2051,2060,2091,2069,2053,2044,2045,2022
2053,2055,2091,2075,2048,2053,2062,2013
2047,2053,2081,2072,2053,2052,2041,2017
2052,2047,2076,2077,2039,2053,2030,2010
2050,2053,2069,2079,2039,2044,2031,2004
2052,2046,2061,2081,2039,2050,2030,2001
2049,2042,2059,2083,2042,2050,2045,1995
2047,2048,2063,2088,2049,2050,2036,1992
2041,2040,2052,2079,2037,2043,2031,1976
2037,2043,2066,2086,2003,2041,2035,1984
2045,2058,2075,2089,2040,2045,2032,1994
2052,2059,2065,2078,2052,2043,2039,2000
2052,2053,2052,2071,2046,2043,2040,2002
2050,2048,2053,2069,2045,2041,2055,2010
2055,2046,2042,2071,2038,2046,2052,2023
2056,2051,2048,2066,2045,2050,2055,2025
2056,2049,2055,2067,2061,2050,2050,2028
2050,2051,2069,2066,2055,2047,2045,2034
2053,2054,2067,2050,2046,2043,2053,2044
2048,2052,2062,2058,2089,2055,2060,2057
2047,2042,2056,2063,2086,2062,2053,2070
2047,2046,2054,2067,2076,2059,2047,2079
2049,2048,2061,2073,2067,2061,2041,2084
2043,2045,2060,2079,2046,2069,2045,2080
2040,2040,2046,2079,2022,2070,2033,2077
2026,2022,2035,2078,2011,2082,2041,2085
2025,2023,2029,2074,2026,2097,2047,2090
2036,2037,2027,2059,2024,2080,2051,2081
2038,2037,2018,2049,2016,2020,2026,2073
2030,2040,2021,2043,2015,1985,2030,2064
2040,2046,2029,2032,2017,1985,2028,2056
2052,2052,2027,2028,2017,1997,2000,2047
2047,2052,2029,2021,2049,2014,2008,2039
2049,2055,2040,2029,2086,2024,2014,2024
2045,2053,2040,2030,2091,2039,2024,2018
2050,2050,2040,2028,2071,2040,2028,2015
2047,2051,2040,2037,2054,2051,2043,2007
2043,2047,2047,2039,2050,2055,2044,1994
2045,2051,2050,2034,2041,2053,2043,2000
2047,2051,2051,2032,2042,2044,2041,1993
2045,2049,2053,2036,2050,2051,2032,1992
2040,2033,2038,2028,2039,2037,2036,1985
2034,2038,2041,2039,2044,2037,2029,1993
2047,2055,2046,2048,2056,2058,2058,1993
2045,2051,2041,2046,2055,2062,2056,2004
2051,2048,2039,2048,2066,2060,2045,2003
2052,2044,2036,2051,2056,2063,2048,2008
2051,2043,2035,2054,2060,2058,2043,2010
2051,2042,2036,2049,2061,2058,2051,2020
2054,2051,2033,2052,2061,2056,2036,2030
2050,2053,2033,2055,2072,2053,2029,2039
2051,2054,2031,2054,2069,2058,2035,2054
2046,2057,2034,2060,2058,2055,2043,2065
2052,2058,2036,2058,2070,2061,2034,2078
2046,2050,2029,2053,2062,2061,2030,2089
2040,2046,2032,2050,2056,2065,2013,2085
2043,2043,2030,2056,2053,2062,2050,2096
2040,2043,2029,2052,2052,2056,2042,2096
2030,2029,2021,2045,2050,2053,2037,2089
2030,2034,2037,2055,2044,2057,2051,2099
2042,2043,2042,2055,2030,2052,2039,2088
2043,2042,2049,2038,2017,2045,2037,2080
2042,2037,2047,2035,2016,2045,2037,2072
2042,2038,2052,2035,2034,2036,2019,2060
2039,2038,2059,2037,2041,2036,2012,2053
2038,2052,2075,2047,2055,2061,2032,2043
2048,2062,2095,2063,2089,2070,2050,2040
2059,2067,2091,2071,2119,2068,2051,2037
2054,2064,2078,2072,2118,2066,2045,2029
2051,2056,2061,2058,2071,2044,2003,2018
2050,2042,2054,2043,2011,2013,2027,2012
2039,2039,2056,2040,1956,2008,2020,2004
2040,2036,2047,2038,1918,2009,2024,1996
2042,2038,2043,2043,1971,2021,2030,1988
2032,2026,2034,2054,2027,2040,2040,1987
2027,2021,2037,2058,2070,2053,2020,1991
2043,2036,2042,2066,2063,2050,2046,2001
2047,2039,2042,2063,2061,2054,2064,2000
2041,2036,2044,2066,2065,2059,2059,2002
2042,2035,2033,2076,2067,2058,2032,2010
2036,2041,2036,2071,2067,2061,2024,2012
2041,2038,2046,2078,2077,2064,2038,2020
2037,2041,2053,2080,2075,2060,2043,2033
2037,2043,2049,2084,2081,2061,2047,2042
2046,2047,2043,2079,2089,2058,2060,2049
2039,2044,2044,2082,2088,2057,2043,2058
2041,2045,2046,2075,2083,2056,2044,2071
2045,2045,2055,2074,2077,2051,2057,2078
2044,2048,2053,2079,2065,2049,2062,2083
2042,2044,2042,2070,2055,2041,2058,2090
2039,2042,2028,2064,2045,2027,2031,2089
2029,2026,2018,2058,2041,2027,2016,2094
2028,2024,2014,2060,2043,2032,2026,2092
2041,2039,2022,2052,2033,2037,2051,2086
2038,2040,2017,2045,2032,2032,2045,2080
2040,2029,2014,2035,2022,2033,2039,2075
2036,2033,2021,2038,2028,2038,2032,2068
2046,2042,2041,2046,2033,2045,2047,2057
2047,2048,2054,2056,2038,2057,2057,2041
2048,2054,2058,2055,2042,2055,2053,2035
2047,2052,2068,2055,2043,2062,2046,2023
2045,2052,2064,2059,2045,2054,2022,2011
2040,2046,2059,2059,2023,2057,2012,2002
2039,2045,2060,2056,2010,2045,2009,2000
2035,2041,2057,2058,2012,2042,2006,1993
2042,2045,2064,2055,2005,2045,2029,1992
2040,2053,2062,2058,2004,2043,2017,1995
2035,2048,2054,2054,2009,2045,2008,1993
2031,2040,2053,2055,2025,2046,2051,1995
2037,2049,2053,2063,2054,2061,2075,2007
2050,2051,2049,2065,2073,2075,2058,2011
2047,2051,2043,2070,2083,2074,2080,2020
2054,2047,2044,2068,2099,2080,2074,2030
2055,2058,2046,2070,2130,2079,2062,2031
2057,2062,2053,2077,2155,2074,2065,2036
2058,2064,2057,2072,2115,2077,2027,2034
2058,2064,2051,2061,2030,2063,2043,2042
2045,2060,2058,2049,1968,2049,2039,2046
2051,2060,2052,2052,1972,2041,2045,2056
2051,2054,2059,2060,1994,2040,2060,2065
2041,2049,2050,2065,2012,2013,2037,2084
2052,2044,2057,2081,2035,2009,2044,2096
2055,2041,2056,2080,2050,2030,2033,2101
2047,2044,2057,2082,2055,2030,2037,2095
2039,2035,2046,2075,2048,2031,2039,2096
2043,2038,2051,2069,2037,2035,2047,2101
2051,2052,2056,2074,2027,2030,2041,2092
2049,2048,2057,2074,2023,2029,2034,2084
2037,2048,2048,2061,2017,2032,2037,2078
2040,2045,2047,2058,2033,2031,2041,2067
2040,2043,2040,2051,2045,2031,2047,2058
2050,2042,2045,2053,2040,2038,2038,2049
2044,2047,2045,2052,2033,2041,2046,2045
2055,2047,2051,2045,2026,2039,2044,2037
2052,2047,2042,2035,2030,2047,2052,2029
2048,2043,2026,2017,2030,2053,2048,2032
2057,2045,2023,2022,2025,2052,2062,2032
2052,2054,2037,2035,2025,2044,2057,2022
2054,2052,2038,2037,2026,2045,2052,2012
2051,2055,2039,2044,2037,2049,2055,2014
2046,2038,2018,2030,2040,2036,2054,2000
2034,2029,2016,2033,2029,2049,2048,1995
2038,2036,2030,2046,2037,2068,2049,2003
2044,2039,2045,2046,2035,2072,2043,2009
2043,2040,2050,2046,2016,2069,2047,2009
2044,2041,2051,2033,2011,2050,2048,2015
2045,2037,2042,2033,2022,2026,2051,2018
2049,2039,2047,2048,2049,2017,2044,2038
2060,2054,2060,2059,2063,2024,2039,2054
2058,2059,2064,2068,2071,2041,2054,2060
2058,2067,2071,2072,2078,2056,2053,2075
2062,2065,2068,2076,2079,2043,2050,2085
2061,2067,2065,2066,2065,2047,2051,2092
2055,2058,2060,2061,2049,2042,2045,2101
2065,2061,2058,2054,2047,2041,2039,2101
2056,2054,2059,2047,2041,2040,2043,2107
2056,2058,2059,2043,2038,2033,2043,2102
2045,2051,2058,2035,2029,2039,2060,2104
2047,2048,2059,2042,2010,2041,2061,2106
2058,2048,2060,2045,2004,2038,2063,2093
2058,2049,2052,2047,2027,2037,2068,2092
2054,2041,2050,2042,2016,2032,2063,2080
2049,2040,2056,2044,2009,2030,2061,2072
2053,2039,2053,2044,1991,2032,2067,2057
2046,2039,2053,2046,1984,2038,2051,2050
2041,2033,2055,2046,2002,2035,2052,2040
2045,2037,2052,2039,2004,2037,2064,2024
2041,2035,2050,2027,1985,2014,2048,2018
2042,2037,2040,2026,2012,2023,2046,2019
2041,2039,2039,2038,2024,2025,2039,2012
2042,2040,2034,2039,2027,2035,2053,2008
2048,2043,2038,2044,2088,2055,2048,2000
2045,2046,2044,2060,2123,2058,2049,1997
2039,2029,2030,2049,2097,2049,2044,1994
2037,2029,2029,2049,2088,2047,2055,2010
2049,2047,2029,2055,2099,2055,2045,2007
2052,2043,2032,2054,2092,2052,2052,2020
2048,2048,2023,2059,2085,2058,2057,2018
2052,2046,2033,2079,2077,2067,2058,2026
2052,2051,2040,2094,2085,2075,2058,2035
2054,2053,2052,2096,2081,2062,2066,2042
2051,2055,2044,2087,2066,2050,2050,2043
2050,2045,2036,2087,2064,2051,2041,2052
2049,2046,2035,2095,2062,2041,2042,2064
2046,2048,2045,2101,2062,2039,2038,2068
2052,2056,2051,2108,2063,2045,2047,2087
2046,2058,2056,2105,2052,2056,2046,2092
2047,2054,2041,2087,2037,2057,2062,2097
2047,2044,2042,2087,2032,2056,2046,2098
2042,2041,2039,2077,2004,2037,2032,2097
2042,2031,2043,2065,1988,2027,2019,2103
2045,2047,2056,2065,1989,2005,2038,2109
2053,2054,2058,2056,1992,2000,2048,2100
2051,2047,2052,2033,2005,2027,2037,2098
2055,2046,2045,2018,2032,2041,2043,2081
2048,2049,2045,2020,2058,2046,2044,2082
2054,2055,2061,2014,2073,2046,2049,2070
2057,2059,2071,2018,2062,2025,2044,2057
2057,2069,2076,2014,2054,2017,2052,2052
2057,2059,2066,2013,2038,2018,2019,2035
2050,2048,2060,2009,2018,2012,2012,2021
2039,2043,2053,2012,2032,2038,2037,2019
2053,2058,2056,2030,2052,2050,2067,2026
2057,2057,2056,2048,2060,2061,2068,2018
2052,2059,2058,2044,2073,2061,2046,2016
2046,2052,2055,2046,2093,2071,2046,2012
2046,2040,2054,2047,2084,2062,2046,2013
2046,2036,2049,2050,2068,2050,2057,2012
2053,2042,2055,2064,2085,2055,2054,2012
2049,2048,2063,2066,2096,2054,2034,2015
2045,2052,2070,2073,2111,2063,2057,2020
2052,2053,2072,2078,2123,2065,2073,2026
2051,2054,2068,2081,2109,2073,2051,2029
2051,2053,2065,2074,2110,2063,2039,2029
2051,2046,2058,2075,2108,2066,2037,2045
2047,2042,2051,2069,2102,2068,2061,2051
2045,2045,2056,2070,2114,2070,2074,2071
2047,2040,2058,2067,2116,2076,2053,2074
2047,2039,2056,2061,2107,2059,2071,2078
2045,2036,2054,2050,2100,2054,2050,2088
2047,2035,2048,2047,2075,2025,2058,2094
2040,2038,2057,2034,1974,2007,2059,2103
2046,2041,2054,2032,1949,2007,2067,2101
2037,2032,2050,2026,1959,2012,2052,2104
2037,2029,2045,2017,1976,2021,2063,2107
2043,2046,2049,2025,1982,2026,2055,2095
2045,2040,2050,2032,1994,2028,2049,2089
2046,2050,2060,2038,2020,2035,2066,2075
2049,2044,2061,2041,2064,2035,2064,2068
2047,2045,2053,2040,2084,2041,2060,2058
2043,2048,2047,2047,2115,2053,2056,2051
2044,2047,2044,2052,2136,2057,2051,2039
2041,2047,2049,2046,2131,2048,2033,2031
2044,2044,2051,2053,2121,2055,2038,2032
2047,2051,2053,2062,2121,2055,2037,2031
2056,2052,2055,2065,2103,2059,2054,2024
2048,2047,2049,2059,2057,2048,2042,2018
2046,2047,2049,2048,1978,2042,2061,2022
2050,2050,2054,2040,1999,2044,2056,2014
2041,2050,2045,2040,2011,2049,2044,2004
2036,2036,2038,2035,2028,2047,2028,2000
2031,2035,2044,2042,2037,2051,2045,2008
2046,2052,2052,2041,2036,2057,2060,2012
2047,2060,2050,2039,2041,2052,2062,2013
2045,2058,2050,2047,2049,2054,2055,2015
2047,2050,2049,2041,2030,2051,2068,2026
2044,2046,2050,2035,2021,2036,2054,2025
2044,2050,2046,2047,2021,2030,2070,2040
2050,2046,2048,2052,2036,2044,2048,2046
2048,2043,2048,2052,2064,2051,2064,2051
2042,2047,2040,2052,2093,2054,2065,2056
2037,2040,2043,2065,2109,2077,2041,2076
2036,2041,2054,2073,2135,2105,2045,2077
2034,2049,2049,2069,2126,2114,2044,2094
2037,2048,2047,2067,2118,2102,2065,2095
2035,2042,2044,2052,2097,2072,2049,2093
2027,2030,2028,2030,2044,2001,2025,2084
2026,2024,2031,2035,2033,1960,2025,2092
2031,2036,2043,2050,2070,1984,2034,2090
2026,2032,2035,2040,2024,1995,2033,2088
2023,2035,2036,2025,1971,2023,2049,2079
2032,2029,2025,2028,2013,2038,2047,2070
2027,2032,2039,2044,2030,2037,2050,2063
2032,2034,2040,2043,2029,2032,2041,2041
2034,2041,2045,2041,2034,2036,2022,2039
2036,2045,2047,2046,2029,2039,2052,2033
2037,2052,2058,2052,2041,2048,2048,2029
2041,2053,2062,2060,2049,2049,2041,2023
2036,2049,2060,2061,2045,2050,2059,2017
2034,2049,2063,2060,2023,2054,2058,2017
2032,2045,2055,2060,2050,2055,2050,2012
2041,2047,2051,2064,2067,2064,2056,2009
2041,2048,2052,2062,2057,2058,2050,1999
2034,2036,2043,2058,2058,2058,2052,2000
2028,2041,2040,2058,2056,2063,2057,2007
2040,2061,2052,2057,2064,2060,2062,2006
2048,2062,2049,2053,2066,2042,2064,2014
2052,2061,2044,2032,2030,2025,2056,2015
2052,2057,2036,2016,2028,2025,2060,2027
2052,2064,2038,2033,2067,2048,2063,2039
2054,2066,2042,2040,2075,2053,2072,2047
2054,2068,2042,2044,2059,2043,2042,2052
2053,2064,2048,2049,2056,2046,2063,2062
2053,2062,2052,2045,2049,2040,2061,2071
2051,2064,2054,2047,2041,2036,2077,2084
2054,2063,2061,2057,2043,2048,2077,2094
2047,2067,2059,2057,2053,2052,2075,2106
2052,2066,2052,2058,2052,2047,2057,2112
2048,2056,2044,2056,2049,2053,2072,2116
2051,2051,2039,2048,2028,2048,2054,2112
2038,2041,2046,2043,2031,2049,2052,2115
2047,2054,2054,2053,2033,2055,2066,2119
2046,2056,2058,2052,2033,2056,2073,2110
2050,2058,2060,2041,2024,2050,2079,2099
2052,2060,2062,2043,2028,2045,2064,2088
2050,2051,2058,2049,2025,2042,2067,2076
2050,2056,2055,2045,2037,2037,2064,2061
2045,2051,2052,2056,2050,2037,2056,2050
2047,2052,2055,2043,2042,2033,2055,2042
2045,2056,2052,2036,2047,2030,2043,2032
2040,2050,2048,2041,2051,2044,2062,2026
2043,2042,2048,2041,2037,2046,2071,2019
2047,2043,2050,2036,2044,2048,2063,2015
2049,2050,2052,2045,2045,2065,2050,2011
2049,2052,2053,2045,2044,2075,2058,2003
2042,2053,2050,2040,2036,2072,2042,1998
2035,2040,2031,2034,2036,2064,2041,1993
2030,2040,2036,2030,2025,2072,2051,2001
2042,2058,2046,2034,2029,2046,2049,2016
2052,2056,2047,2039,2035,2046,2063,2016
2047,2056,2041,2039,2033,2055,2064,2012
2047,2053,2043,2028,2029,2061,2047,2016
2051,2060,2038,2032,2041,2038,2068,2027
2049,2064,2046,2038,2061,2022,2068,2040
2059,2065,2046,2045,2062,2028,2063,2053
2057,2062,2043,2046,2055,2053,2068,2059
2061,2065,2047,2047,2061,2065,2079,2071
2054,2062,2049,2058,2063,2064,2069,2074
2056,2060,2053,2049,2080,2060,2068,2083
2050,2055,2050,2051,2087,2062,2072,2097
2050,2051,2039,2047,2076,2059,2082,2103
2055,2050,2041,2046,2057,2057,2062,2097
2046,2037,2022,2037,2046,2056,2060,2096
2038,2026,2014,2032,2055,2053,2054,2096
2035,2034,2020,2029,2074,2053,2063,2096
2038,2041,2019,2031,2084,2063,2066,2094
2035,2037,2021,2041,2080,2065,2067,2077
2033,2039,2029,2045,2070,2056,2051,2065
2039,2033,2029,2046,2075,2054,2047,2062
2036,2032,2041,2049,2077,2038,2044,2049
2036,2028,2041,2045,2069,2033,2043,2034
2040,2032,2046,2050,2046,2033,2035,2026
2041,2040,2058,2059,2029,2038,2036,2030
2045,2050,2069,2062,2031,2041,2027,2033
2049,2052,2061,2056,2040,2038,2030,2020
2044,2045,2054,2048,2048,2034,2031,2018
2044,2046,2057,2054,2064,2048,2042,2015
2052,2045,2060,2063,2097,2068,2050,2012
2052,2049,2058,2059,2090,2062,2054,2001
2039,2033,2045,2053,2077,2051,2055,2000
2034,2035,2045,2056,2080,2049,2068,2008
2048,2051,2055,2068,2074,2049,2046,2007
2047,2057,2056,2062,2054,2039,2047,2005
2048,2056,2059,2058,2043,2034,2041,2015
2047,2051,2055,2056,2056,2036,2045,2022
2052,2049,2044,2054,2058,2035,2050,2033
2050,2053,2060,2045,2066,2044,2061,2040
2050,2056,2060,2037,2064,2047,2062,2047
2054,2056,2055,2039,2065,2046,2038,2052
2058,2056,2050,2031,2061,2041,2041,2068
2045,2053,2044,2027,2046,2040,2058,2078
2042,2053,2036,2027,2049,2036,2061,2086
2041,2042,2025,2023,2036,2032,2050,2087
2039,2037,2013,2010,2047,2051,2034,2091
2040,2041,2020,2024,2082,2074,2066,2093
2037,2032,2025,2030,2118,2085,2064,2110
2044,2037,2030,2032,2164,2096,2070,2110
2055,2051,2040,2038,2174,2101,2074,2103
2049,2051,2033,2036,2145,2088,2070,2093
2045,2045,2031,2039,2119,2078,2051,2080
2045,2043,2043,2047,2098,2067,2072,2073
2049,2044,2054,2050,2053,2055,2069,2068
2043,2053,2065,2044,2010,2036,2054,2058
2055,2058,2073,2054,1989,2031,2048,2055
2053,2062,2078,2068,1998,2034,2050,2038
2053,2054,2089,2058,1953,2014,2040,2024
2047,2052,2095,2061,1953,2014,2044,2018
2045,2048,2094,2079,2009,2022,2041,2020
2053,2041,2088,2081,2054,2028,2038,2012
2046,2042,2083,2090,2081,2030,2039,2013
2045,2038,2069,2092,2088,2030,2024,2005
2040,2025,2050,2070,2091,2028,2042,1997
2032,2023,2045,2058,2059,2044,2045,2006
2040,2040,2059,2059,2065,2057,2047,2010
2040,2036,2049,2040,2075,2054,2045,2008
2042,2035,2038,2010,2066,2046,2045,2010
2043,2033,2030,1997,2068,2051,2050,2018
2049,2039,2023,2003,2090,2062,2065,2032
2056,2041,2026,2016,2094,2077,2062,2040
2060,2050,2034,2017,2084,2068,2057,2053
2063,2053,2046,2017,2053,2053,2047,2065
2061,2049,2048,2019,2004,2049,2066,2079
2063,2043,2050,2017,2018,2061,2045,2081
2054,2043,2060,2028,2085,2080,2066,2091
2053,2049,2063,2033,2112,2088,2075,2105
2052,2049,2069,2039,2114,2084,2072,2107
2050,2050,2072,2043,2078,2072,2058,2103
2041,2032,2053,2022,2012,2035,2040,2098
2034,2027,2047,2016,1968,2016,2049,2102
2043,2033,2053,2023,1972,2019,2039,2096
2049,2038,2052,2031,1998,2032,2033,2092
2044,2039,2046,2032,2014,2037,2034,2086
2041,2031,2048,2037,2044,2043,2031,2070
2047,2028,2040,2036,2043,2037,2024,2065
2044,2029,2038,2020,2026,2024,2022,2053
2047,2023,2040,2026,2059,2038,2037,2043
2046,2031,2041,2034,2053,2037,2033,2039
2047,2034,2039,2032,2042,2045,2026,2025
2042,2033,2039,2040,2050,2044,2048,2020
2042,2033,2043,2041,2048,2043,2022,2016
2042,2037,2044,2035,2049,2042,2019,2002
2048,2039,2045,2033,2051,2055,2040,2001
2047,2040,2049,2033,2061,2056,2025,2006
2043,2036,2039,2023,2084,2054,2028,1996
2042,2030,2042,2026,2095,2065,2022,2007
2048,2045,2048,2041,2108,2080,2040,2013
2053,2045,2052,2047,2096,2080,2051,2009
2062,2048,2048,2044,2087,2076,2040,2015
2055,2039,2055,2042,2063,2062,2054,2022
2055,2050,2056,2039,2039,2045,2057,2029
2055,2051,2057,2044,2039,2061,2040,2038
2054,2055,2060,2046,2053,2067,2061,2042
2057,2055,2059,2044,2056,2065,2062,2048
2057,2048,2058,2053,2063,2062,2040,2063
2054,2044,2054,2055,2046,2055,2019,2070
2051,2042,2055,2050,2047,2058,2021,2089
2052,2044,2056,2049,2051,2051,2029,2098
2050,2044,2053,2046,2060,2051,2026,2100
2047,2039,2046,2051,2063,2047,2039,2104
2034,2029,2041,2037,2056,2039,2027,2101
2030,2026,2033,2035,2046,2032,2011,2101
2039,2039,2036,2041,2044,2037,2004,2099
2038,2040,2044,2056,2035,2032,2003,2095
2045,2040,2053,2063,2032,2032,2015,2083
2049,2045,2055,2065,2035,2040,2013,2080
2050,2044,2050,2069,2043,2049,2030,2071
2053,2043,2045,2066,2044,2049,2011,2059
2048,2038,2039,2066,2039,2042,2023,2051
2048,2034,2032,2065,2039,2048,2032,2034
2046,2033,2020,2056,2040,2051,2031,2030
2039,2025,2017,2053,2037,2046,2024,2025
2034,2026,2015,2053,2035,2040,2027,2017
2041,2030,2018,2058,2034,2040,2029,2010
2038,2024,2022,2051,2032,2040,2033,2009
2036,2032,2033,2051,2039,2043,2034,2011
2034,2033,2038,2051,2031,2044,2030,2001
2039,2034,2032,2038,2036,2042,2036,2007
2052,2051,2047,2034,2053,2054,2044,2015
2056,2059,2059,2028,2058,2057,2060,2019
2052,2060,2067,2032,2056,2064,2036,2020
2055,2061,2072,2032,2053,2076,2048,2031
2051,2060,2078,2042,2051,2076,2045,2039
2059,2055,2077,2048,2057,2078,2074,2047
2057,2056,2072,2051,2054,2071,2053,2056
2054,2053,2064,2055,2057,2072,2067,2058
2056,2050,2064,2054,2066,2074,2039,2068
2051,2046,2061,2049,2048,2064,2034,2081
2054,2049,2057,2054,2035,2065,2048,2086
2043,2046,2056,2040,2022,2051,2034,2085
2044,2045,2053,2041,2029,2048,2031,2097
2044,2039,2057,2047,2050,2047,2044,2085
2041,2038,2045,2037,2059,2041,2041,2083
2029,2026,2039,2036,2044,2032,2012,2083
2032,2037,2043,2038,2043,2035,2020,2083
2042,2039,2049,2043,2047,2043,2036,2084
2038,2044,2049,2050,2052,2048,2032,2082
2033,2042,2053,2048,2047,2040,2026,2073
2043,2046,2053,2051,2043,2044,2028,2069
2044,2051,2052,2046,2044,2044,2050,2061
2047,2052,2056,2052,2035,2034,2027,2046
2048,2052,2053,2047,2012,2029,2026,2036
2048,2054,2049,2043,2012,2030,2024,2032
2050,2047,2053,2041,2014,2037,2029,2039
2054,2055,2065,2039,2022,2047,2037,2029
2050,2063,2064,2046,2024,2061,2039,2027
2053,2061,2060,2050,2018,2064,2052,2016
2055,2056,2057,2048,2033,2070,2051,2017
2052,2048,2045,2036,2041,2071,2055,2006
2040,2040,2040,2038,2051,2077,2046,2008
2039,2044,2050,2042,2052,2090,2053,2012
2046,2055,2053,2046,2050,2084,2054,2014
2047,2056,2054,2049,2041,2047,2056,2017
2048,2047,2058,2046,2042,2003,2017,2017
2046,2055,2063,2051,2047,2011,2032,2021
2044,2054,2068,2052,2039,2024,2040,2032
2044,2056,2066,2057,2026,2041,2064,2041
2054,2061,2066,2061,2028,2046,2059,2050
2057,2058,2072,2061,2029,2043,2061,2064
2060,2059,2066,2054,2015,2036,2058,2066
2054,2058,2069,2052,2012,2034,2047,2080
2052,2062,2066,2048,2001,2028,2036,2091
2048,2054,2064,2041,1998,2025,2047,2090
2041,2050,2056,2035,1988,2013,2026,2088
2042,2048,2054,2030,1999,2016,2033,2085
2031,2037,2044,2038,2035,2033,2030,2098
2027,2036,2045,2051,2068,2054,2049,2104
2039,2050,2059,2052,2044,2057,2045,2100
2039,2044,2055,2053,2047,2058,2040,2087
2043,2042,2047,2049,2049,2060,2033,2088
2042,2047,2049,2049,2045,2054,2041,2080
2047,2049,2049,2053,2034,2056,2034,2062
2045,2050,2053,2047,2037,2048,2041,2058
2045,2051,2051,2046,2048,2049,2045,2051
2048,2054,2052,2057,2060,2058,2051,2032
2043,2040,2052,2061,2097,2066,2038,2032
2049,2037,2051,2069,2090,2065,2039,2020
2041,2034,2052,2057,2071,2062,2041,2012
2047,2045,2054,2050,2058,2053,2042,2018
2043,2042,2053,2048,2059,2055,2030,2009
2047,2043,2056,2053,2066,2058,2046,2009
2042,2040,2052,2051,2066,2053,2034,2008
2044,2037,2042,2046,2056,2054,2034,2009
2048,2046,2053,2057,2069,2053,2042,2018
2053,2049,2053,2056,2064,2052,2049,2009
2046,2043,2051,2055,2062,2053,2055,2019
2043,2045,2053,2049,2070,2057,2045,2015
2042,2044,2054,2052,2068,2055,2054,2024
2044,2046,2050,2051,2077,2060,2042,2030
2047,2047,2056,2051,2067,2057,2049,2038
2050,2048,2050,2048,2060,2053,2031,2050
2054,2053,2056,2054,2049,2052,2064,2060
2052,2055,2055,2052,2043,2048,2069,2078
2056,2055,2057,2052,2047,2048,2076,2085
2054,2053,2052,2048,2049,2049,2078,2092
2049,2052,2050,2044,2045,2045,2079,2100
2046,2050,2046,2043,2029,2037,2070,2104
2047,2037,2044,2036,2027,2033,2038,2092
2037,2028,2038,2037,2037,2031,2036,2099
2033,2036,2040,2037,2038,2040,2053,2107
2040,2048,2052,2039,2034,2039,2056,2101
2044,2049,2050,2037,2025,2039,2059,2094
2043,2047,2049,2034,2015,2037,2042,2083
2049,2053,2051,2037,2022,2046,2042,2078
2047,2053,2054,2032,2033,2040,2022,2070
2042,2056,2053,2033,2043,2045,2038,2048
2044,2054,2052,2040,2040,2049,2056,2048
2046,2056,2048,2041,2036,2053,2061,2041
2045,2053,2048,2038,2039,2056,2073,2034
2042,2052,2039,2039,2047,2054,2050,2027
2042,2049,2045,2046,2053,2053,2047,2018
2040,2052,2047,2044,2052,2052,2045,2022
2051,2051,2052,2040,2044,2047,2037,2011
2047,2047,2041,2035,2041,2041,2030,2003
2037,2041,2036,2034,2041,2041,2029,1998
2040,2042,2044,2045,2050,2046,2035,2005
2047,2057,2047,2043,2057,2051,2040,2010
2046,2061,2045,2046,2061,2056,2037,2014
2051,2059,2045,2044,2064,2056,2049,2016
2050,2052,2043,2043,2055,2050,2058,2021
2054,2051,2050,2045,2054,2046,2043,2033
2050,2054,2049,2043,2054,2043,2045,2039
2053,2056,2047,2047,2058,2046,2027,2044
2052,2051,2046,2042,2052,2055,2039,2050
2055,2051,2046,2050,2064,2060,2062,2063
2051,2054,2053,2053,2056,2052,2063,2080
2056,2052,2048,2054,2060,2046,2052,2084
2047,2044,2045,2046,2049,2041,2040,2086
2044,2046,2050,2045,2038,2037,2044,2084
2048,2048,2046,2037,2028,2022,2027,2089
2033,2031,2038,2029,2024,2022,2016,2087
2036,2034,2045,2033,2037,2027,2006,2087
2045,2043,2045,2039,2027,2028,2025,2085
2045,2041,2048,2039,2027,2033,2019,2082
2048,2043,2046,2039,2031,2033,2039,2071
2051,2044,2046,2045,2026,2033,2008,2061
2047,2050,2047,2039,2023,2031,2014,2048
2044,2046,2050,2038,2030,2036,2019,2039
2043,2048,2049,2043,2029,2043,2031,2027
2049,2048,2053,2040,2035,2043,2026,2024
2048,2046,2055,2042,2037,2044,2035,2022
2053,2049,2051,2041,2033,2048,2052,2025
2052,2046,2049,2044,2032,2053,2063,2024
2051,2045,2050,2040,2038,2056,2080,2017
2045,2045,2053,2043,2037,2054,2056,2014
2051,2050,2051,2041,2044,2036,2034,2007
2035,2034,2038,2040,2029,2030,2023,1996
2036,2033,2041,2040,2034,2038,2038,2008
2051,2047,2051,2046,2042,2046,2036,2007
2046,2046,2053,2051,2043,2054,2044,2009
2054,2051,2050,2049,2046,2060,2054,2020
2049,2051,2053,2044,2048,2057,2056,2025
2055,2055,2053,2046,2052,2057,2049,2031
2057,2054,2053,2046,2046,2061,2058,2045
2053,2051,2060,2052,2052,2063,2053,2046
2054,2051,2064,2049,2052,2069,2062,2056
2060,2058,2062,2051,2048,2076,2066,2063
2056,2057,2058,2049,2062,2084,2057,2075
2059,2056,2064,2056,2061,2073,2057,2086
2057,2052,2060,2052,2047,2058,2058,2093
2045,2048,2057,2048,2039,2046,2034,2100
2047,2044,2047,2042,2031,2038,2032,2091
2035,2024,2039,2039,2041,2044,2047,2095
2038,2032,2042,2042,2045,2058,2059,2095
2045,2041,2046,2050,2046,2055,2056,2095
2047,2046,2044,2049,2043,2062,2035,2085
2048,2045,2050,2051,2042,2055,2071,2074
2049,2051,2052,2053,2047,2052,2048,2064
2042,2054,2054,2046,2046,2049,2033,2050
2044,2053,2049,2052,2040,2049,2030,2035
2047,2046,2047,2050,2038,2040,2021,2016
2037,2046,2046,2039,2032,2029,2029,2010
2032,2041,2044,2042,2027,2022,2034,2009
2033,2039,2044,2037,2037,2040,2043,2014
2033,2047,2044,2047,2028,2051,2053,2007
2036,2039,2045,2047,2033,2057,2063,2001
2043,2040,2047,2045,2038,2051,2054,1997
2041,2043,2046,2050,2027,2037,2028,1989
2028,2031,2039,2039,2029,2036,2028,1987
2026,2033,2044,2044,2042,2045,2047,1996
2040,2046,2044,2054,2043,2049,2057,1999
2034,2041,2052,2051,2036,2048,2065,1998
2038,2044,2054,2052,2051,2056,2056,2007
2045,2046,2058,2056,2049,2063,2055,2016
2050,2045,2054,2054,2051,2060,2036,2024
2050,2045,2054,2051,2060,2059,2034,2033
2046,2049,2052,2050,2054,2060,2040,2047
2051,2062,2060,2058,2058,2064,2043,2058
2058,2062,2060,2057,2066,2058,2056,2063
2060,2060,2056,2053,2066,2058,2057,2072
2057,2056,2058,2056,2065,2051,2064,2088
2049,2056,2057,2054,2062,2050,2048,2092
2041,2054,2051,2051,2056,2043,2064,2102
2047,2053,2049,2045,2046,2041,2056,2091
2038,2037,2043,2041,2037,2035,2049,2095
2038,2043,2050,2046,2034,2040,2058,2095
2051,2050,2054,2045,2041,2042,2063,2096
2050,2049,2052,2044,2032,2046,2056,2086
2048,2044,2056,2045,2034,2039,2068,2079
2050,2051,2056,2041,2029,2038,2043,2075
2047,2051,2052,2039,2028,2040,2052,2054
2049,2049,2054,2042,2020,2048,2070,2040
2048,2046,2048,2034,2031,2054,2051,2034
2039,2049,2048,2040,2034,2055,2059,2024
2042,2044,2054,2040,2038,2056,2054,2021
2041,2045,2053,2041,2042,2061,2049,2017
2041,2042,2056,2043,2049,2060,2040,2008
2043,2048,2050,2043,2042,2035,2010,1998
2045,2048,2046,2045,2035,2021,2042,1998
2034,2045,2050,2036,2033,2021,2042,1991
2031,2029,2034,2036,2029,2030,2037,2000
2028,2029,2040,2041,2038,2042,2064,2003
2048,2045,2049,2046,2043,2054,2063,2008
2043,2056,2051,2042,2048,2061,2078,2018
2047,2055,2054,2043,2044,2058,2070,2015
2051,2056,2050,2046,2052,2057,2077,2020
2048,2050,2058,2042,2051,2064,2068,2026
2049,2048,2055,2048,2048,2067,2060,2037
2039,2049,2055,2049,2051,2071,2056,2045
2045,2058,2057,2047,2054,2070,2064,2057
2046,2052,2058,2040,2056,2077,2072,2068
2040,2053,2054,2046,2058,2085,2072,2078
2041,2054,2054,2045,2067,2089,2058,2083
2041,2057,2054,2045,2060,2091,2064,2080
2041,2051,2052,2044,2051,2088,2054,2081
2036,2048,2049,2036,2048,2058,2025,2084
2034,2034,2042,2028,2046,2004,2025,2093
2033,2040,2047,2036,2049,2013,2048,2097
2047,2051,2056,2040,2036,2024,2046,2088
2050,2057,2052,2042,2040,2038,2049,2083
2047,2051,2051,2042,2041,2034,2029,2065
2043,2054,2049,2040,2035,2026,2036,2055
2047,2051,2049,2035,2029,2027,2030,2045
2047,2050,2046,2038,2026,2032,2033,2033
2043,2045,2046,2038,2022,2035,2032,2020
2040,2044,2043,2032,2029,2040,2039,2010
2034,2048,2051,2040,2028,2052,2053,2009
2041,2044,2050,2040,2030,2057,2050,2004
2038,2051,2050,2038,2021,2046,2042,1998
2037,2048,2042,2038,2022,2057,2059,1996
2035,2050,2048,2039,2031,2059,2054,1992
2037,2053,2042,2031,2028,2046,2050,1999
2034,2041,2034,2031,2029,2040,2049,2003
2039,2042,2043,2034,2038,2054,2066,2017
2050,2053,2048,2037,2040,2052,2057,2017
2053,2053,2050,2042,2053,2052,2049,2021
2053,2052,2051,2038,2062,2053,2045,2019
2049,2048,2052,2044,2064,2053,2040,2021
2044,2046,2050,2046,2058,2050,2036,2031
2044,2049,2053,2045,2050,2042,2013,2039
2041,2051,2048,2038,2041,2041,2042,2047
2041,2053,2054,2041,2046,2051,2033,2058
2040,2053,2055,2042,2045,2049,2028,2076
2049,2051,2050,2045,2052,2049,2058,2082
2051,2052,2053,2039,2059,2051,2058,2096
2043,2050,2045,2042,2052,2053,2046,2102
2044,2042,2045,2041,2050,2054,2056,2109
2043,2040,2036,2030,2033,2041,2048,2094
2040,2023,2029,2026,2031,2033,2043,2103
2040,2031,2041,2033,2036,2034,2032,2101
2044,2041,2046,2038,2034,2042,2030,2091
2046,2040,2046,2037,2034,2038,2031,2079
2047,2055,2052,2038,2033,2043,2036,2069
2055,2052,2053,2036,2030,2043,2016,2063
2058,2053,2045,2030,2018,2035,2004,2055
2059,2051,2042,2034,2024,2046,2020,2037
2056,2053,2047,2039,2028,2057,2018,2036
2062,2058,2044,2042,2040,2062,2038,2030
2070,2059,2048,2043,2048,2068,2037,2025
2071,2061,2044,2037,2036,2047,2045,2016
2067,2058,2041,2038,2037,2049,2042,1999
2068,2056,2040,2037,2046,2048,2048,2002
2068,2055,2041,2039,2050,2059,2042,2001
2059,2046,2036,2040,2061,2066,2044,1992
2054,2045,2040,2044,2058,2063,2054,1990
2053,2058,2048,2050,2057,2061,2064,1998
2059,2058,2055,2046,2057,2056,2058,1999
2056,2052,2050,2034,2048,2052,2064,1998
2054,2053,2060,2036,2040,2045,2056,2008
2050,2057,2053,2039,2041,2043,2038,2011
2049,2057,2050,2037,2050,2042,2023,2032
2055,2051,2051,2039,2050,2050,2032,2048
2059,2047,2049,2044,2058,2049,2039,2069
2062,2057,2053,2049,2072,2057,2052,2090
2066,2059,2056,2050,2072,2064,2056,2105
2067,2054,2053,2052,2077,2068,2044,2113
2060,2051,2052,2059,2074,2061,2045,2116
2055,2051,2045,2047,2063,2066,2064,2114
2045,2052,2046,2047,2063,2067,2057,2113
2043,2037,2039,2038,2044,2051,2032,2106
2041,2037,2039,2042,2048,2049,2032,2104
2046,2044,2048,2044,2047,2052,2048,2094
2042,2037,2037,2039,2053,2058,2044,2077
2028,2042,2044,2044,2045,2053,2037,2068
2037,2037,2042,2043,2040,2056,2047,2065
2043,2049,2045,2044,2024,2056,2039,2062
2044,2047,2044,2037,2011,2057,2050,2054
2048,2045,2047,2036,2011,2072,2050,2058
2049,2045,2044,2046,2011,2072,2059,2053
2051,2047,2050,2049,2007,2073,2054,2047
2049,2040,2046,2047,2000,2071,2037,2042
2042,2040,2040,2042,2006,2075,2061,2036
2040,2034,2038,2043,1999,2070,2061,2030
2039,2031,2040,2047,1996,2061,2049,2022
2044,2036,2042,2044,2013,2056,2050,2008
2037,2020,2035,2035,2002,2040,2017,2005
2033,2019,2033,2042,2020,2047,2041,2006
2044,2034,2043,2056,2072,2058,2048,2014
2051,2038,2038,2063,2088,2057,2052,2013
2044,2042,2039,2056,2077,2050,2062,2016
2047,2047,2039,2053,2082,2045,2057,2025
2046,2046,2040,2045,2075,2039,2060,2029
2045,2049,2043,2040,2058,2034,2056,2034
2041,2047,2042,2049,2054,2049,2062,2034
2037,2045,2038,2056,2117,2086,2044,2041
2036,2042,2041,2061,2160,2097,2052,2046
2036,2043,2046,2067,2161,2097,2051,2050
2044,2049,2050,2054,2125,2070,2033,2071
2046,2054,2046,2036,2110,2056,2027,2075
2050,2056,2055,2045,2104,2064,2048,2084
2049,2057,2053,2048,2050,2058,2028,2082
2042,2050,2041,2033,1966,2034,2032,2088
2041,2040,2034,2026,1918,2026,2037,2094
2051,2056,2044,2026,1962,2025,2030,2096
2054,2059,2045,2037,1991,2029,2010,2084
2057,2055,2053,2047,2011,2029,2009,2076
2057,2059,2052,2042,2008,2029,2033,2074
2053,2056,2052,2044,2013,2023,2040,2059
2054,2057,2053,2047,2014,2032,2019,2051
2055,2056,2053,2039,2023,2045,2035,2044
2058,2059,2047,2041,2030,2057,2048,2026
2059,2059,2051,2034,2019,2050,2046,2023
2058,2060,2050,2030,2004,2038,2041,2017
2063,2059,2045,2028,1990,2023,2029,1998
2051,2051,2045,2022,1989,2019,2032,1990
2038,2045,2042,2029,1988,2021,2013,1993
2039,2045,2041,2029,1999,2035,2021,1984
2033,2039,2033,2024,1998,2033,2043,1984
2036,2036,2032,2024,2005,2051,2036,2000
2042,2046,2044,2036,2010,2058,2052,2007
2047,2052,2046,2038,2021,2044,2055,2010
2050,2061,2042,2036,2029,2045,2047,2010
2053,2055,2034,2042,2048,2045,2030,2015
2049,2053,2042,2044,2050,2055,2037,2026
2054,2056,2046,2044,2048,2051,2037,2038
2051,2056,2049,2049,2049,2056,2046,2038
2056,2064,2042,2052,2046,2057,2056,2058
2055,2063,2045,2052,2051,2069,2070,2073
2056,2062,2046,2056,2070,2082,2055,2084
2054,2067,2049,2053,2082,2083,2057,2094
2052,2062,2048,2047,2088,2089,2058,2099
2053,2063,2049,2047,2085,2081,2069,2102
2048,2052,2048,2042,2066,2064,2045,2089
2039,2031,2029,2029,2050,2045,2044,2088
2030,2024,2028,2032,2057,2049,2044,2091
2034,2043,2038,2037,2051,2058,2044,2081
2032,2037,2034,2031,2037,2055,2054,2074
2030,2035,2030,2033,2038,2055,2057,2074
2039,2031,2037,2040,2045,2069,2066,2072
2043,2037,2035,2035,2032,2086,2070,2058
2038,2044,2038,2038,2033,2087,2066,2040
2043,2051,2045,2034,2038,2083,2062,2035
2040,2042,2039,2038,2033,2081,2047,2023
2034,2041,2031,2032,2028,2064,2056,2016
2044,2039,2031,2034,2032,2003,2052,2021
2037,2040,2033,2027,2022,1995,2051,2010
2039,2040,2027,2029,2027,2012,2058,2005
2037,2033,2029,2036,2037,2044,2077,2010
2042,2035,2031,2031,2040,2054,2074,2002
2034,2021,2021,2030,2030,2044,2043,1997
2029,2022,2020,2037,2010,2044,2061,2005
2044,2039,2031,2045,1995,2055,2058,2006
2040,2041,2038,2047,2009,2056,2052,2011
2049,2048,2041,2049,2020,2051,2052,2010
2052,2046,2042,2047,2007,2049,2056,2005
2043,2042,2035,2037,1986,2052,2061,2012
2046,2043,2034,2030,1952,2055,2049,2015
2038,2053,2036,2020,1949,2052,2034,2033
2037,2045,2037,2020,1955,2050,2027,2039
2036,2046,2038,2016,1963,2020,2042,2052
2039,2054,2042,2018,2016,1998,2048,2070
2050,2061,2048,2045,2095,2020,2059,2086
2049,2063,2056,2053,2084,2033,2056,2090
2045,2065,2053,2049,2080,2043,2051,2096
2038,2054,2052,2052,2105,2054,2027,2093
2026,2040,2042,2046,2120,2049,2026,2082
2027,2040,2047,2039,2108,2052,2017,2080
2036,2051,2054,2044,2102,2062,2024,2081
2039,2058,2056,2047,2093,2065,2039,2084
2044,2066,2055,2043,2077,2067,2054,2080
2047,2062,2054,2039,2072,2069,2044,2073
2052,2071,2052,2043,2066,2050,2060,2056
2048,2067,2062,2039,2052,2047,2056,2044
2046,2065,2058,2039,2046,2042,2056,2035
2047,2059,2059,2034,2054,2054,2044,2029
2044,2061,2052,2040,2067,2070,2069,2026
2047,2053,2054,2047,2063,2062,2046,2021
2046,2057,2055,2045,2052,2043,2037,2007
2044,2060,2053,2041,2040,2034,2048,2001
2041,2056,2052,2045,2037,2040,2034,1996
2037,2053,2046,2049,2036,2038,2048,1989
2042,2040,2039,2037,2032,2030,2041,1984
2035,2036,2039,2041,2034,2029,2034,1986
2040,2045,2053,2045,2044,2044,2057,1994
2040,2055,2052,2057,2047,2043,2048,1991
2044,2053,2056,2049,2052,2045,2051,2001
2046,2057,2058,2045,2049,2049,2060,2007
2048,2055,2053,2044,2041,2052,2066,2015
2044,2058,2050,2041,2048,2056,2049,2020
2049,2064,2055,2039,2048,2047,2047,2034
2043,2066,2058,2043,2048,2041,2051,2045
2045,2067,2062,2040,2051,2048,2045,2047
2050,2060,2062,2040,2054,2052,2034,2059
2042,2057,2051,2034,2059,2059,2043,2071
2040,2055,2044,2026,2053,2056,2067,2076
2038,2052,2042,2023,2054,2057,2071,2082
2039,2053,2045,2025,2051,2062,2074,2080
2032,2045,2034,2028,2053,2049,2052,2080
2036,2039,2038,2037,2065,2053,2047,2084
2036,2047,2045,2046,2072,2067,2054,2081
2038,2046,2050,2050,2083,2077,2050,2074
2039,2047,2043,2045,2063,2069,2049,2064
2037,2046,2036,2046,2060,2057,2018,2060
2036,2038,2038,2043,2051,2044,2031,2040
2032,2038,2042,2042,2052,2043,2022,2039
2041,2043,2042,2034,2063,2051,2051,2026
2040,2046,2041,2033,2049,2046,2035,2020
2034,2052,2047,2026,2003,2046,2058,2011
2039,2051,2049,2025,1980,2039,2046,2003
2045,2057,2057,2030,1992,2033,2056,2002
2044,2057,2061,2036,2013,2039,2043,2001
2052,2064,2062,2043,2027,2045,2052,1993
2047,2066,2056,2044,2037,2044,2047,1996
2055,2067,2042,2043,2042,2029,2028,1988
2043,2054,2031,2047,2039,2029,2033,1983
2040,2059,2045,2075,2055,2042,2026,1996
2046,2064,2056,2091,2057,2045,2044,2000
2047,2063,2068,2102,2060,2043,2048,2010
2048,2063,2069,2102,2061,2044,2071,2010
2047,2057,2062,2102,2058,2052,2027,2014
2048,2054,2055,2100,2045,2044,2002,2021
2040,2051,2051,2095,2046,2041,2043,2021
2039,2050,2043,2103,2052,2044,2043,2034
2039,2054,2043,2107,2070,2056,2046,2049
2047,2059,2040,2110,2089,2064,2043,2061
2038,2057,2048,2105,2113,2061,2053,2073
2037,2058,2054,2091,2093,2043,2044,2069
2026,2054,2053,2081,2066,2043,2046,2080
2036,2056,2065,2079,2067,2037,2055,2082
2031,2048,2057,2048,2035,2032,2024,2084
2023,2032,2043,2017,2007,2037,2046,2086
2024,2043,2043,1989,1975,2036,2048,2078
2029,2043,2043,1965,1940,2024,2030,2066
2026,2050,2047,1951,1904,2015,2029,2058
2035,2050,2033,1946,1853,2015,2016,2058
2039,2059,2028,1966,1915,2036,2026,2057
2050,2060,2030,1986,1933,2011,2038,2042
2041,2061,2034,2002,1967,2001,2043,2028
2040,2051,2031,2010,1981,2008,2026,2003
2033,2041,2039,2010,1997,2022,2047,2001
2035,2047,2050,2024,2049,2054,2048,1997
2042,2052,2059,2036,2078,2044,2042,2003
2039,2050,2059,2045,2072,2040,2042,1994
2040,2051,2061,2045,2083,2052,2042,1992
2038,2050,2056,2049,2105,2063,2045,1987
2026,2037,2043,2038,2093,2054,2035,1978
2024,2026,2038,2031,2072,2033,2016,1977
2028,2042,2046,2040,2074,2040,2046,1993
2037,2049,2041,2036,2060,2046,2040,1994
2039,2045,2041,2032,2058,2054,2051,1994
2042,2047,2040,2047,2066,2056,2053,2003
2043,2052,2043,2042,2064,2053,2061,2006
2040,2050,2041,2046,2055,2057,2068,2019
2041,2048,2043,2048,2051,2062,2061,2032
2052,2052,2046,2049,2055,2079,2078,2052
2053,2054,2043,2055,2059,2087,2078,2060
2053,2052,2046,2053,2061,2088,2081,2069
2050,2054,2044,2053,2060,2100,2092,2084
2052,2050,2045,2057,2060,2116,2086,2088
2040,2043,2046,2053,2059,2122,2082,2084
2042,2045,2047,2049,2060,2133,2062,2086
2031,2027,2039,2047,2043,2124,2052,2082
2018,2029,2035,2038,2036,2096,2047,2081
2035,2045,2044,2045,2030,2019,2014,2076
2030,2047,2049,2044,2033,1990,2025,2064
2038,2053,2049,2045,2033,2003,2003,2061
2035,2050,2051,2046,2044,2025,2020,2047
2035,2050,2048,2049,2047,2020,2024,2032
2037,2048,2052,2045,2034,2005,2001,2022
2036,2052,2052,2052,2032,2000,2006,2012
2038,2051,2050,2054,2028,1999,2019,2007
2042,2056,2052,2051,2046,2019,2023,2010
2047,2052,2051,2053,2044,2036,2017,2014
2040,2051,2054,2056,2033,2038,2010,2006
2041,2052,2056,2060,2038,2039,2031,1999
2044,2053,2052,2065,2035,2038,2037,1991
2044,2052,2052,2059,2016,2027,2022,1976
2033,2032,2041,2051,1976,2034,2019,1975
2031,2032,2042,2051,2006,2047,2030,1981
2046,2054,2054,2060,2028,2042,2052,1985
2050,2063,2053,2060,2036,2040,2056,2001
2054,2063,2057,2062,2043,2045,2055,2005
2053,2062,2052,2058,2027,2037,2031,2010
2060,2055,2055,2068,2025,2036,2040,2011
2054,2064,2058,2071,2051,2044,2046,2023
2058,2061,2053,2065,2051,2032,2039,2029
2052,2060,2046,2042,2062,2026,2033,2036
2046,2057,2049,2055,2086,2036,2040,2041
2047,2063,2050,2059,2079,2043,2043,2061
2050,2051,2054,2057,2069,2043,2061,2074
2045,2055,2056,2060,2065,2050,2062,2084
2047,2058,2062,2059,2066,2055,2060,2088
2047,2058,2054,2051,2063,2041,2043,2085
2036,2041,2041,2043,2059,2026,2042,2087
2034,2041,2030,2046,2058,2031,2042,2088
2049,2056,2036,2055,2052,2029,2037,2079
2052,2050,2035,2062,2060,2035,2040,2074
2046,2051,2033,2058,2057,2039,2042,2060
2043,2045,2030,2051,2052,2035,2040,2058
2042,2044,2021,2048,2043,2030,2046,2041
2037,2038,2025,2044,2050,2033,2044,2033
2040,2036,2025,2050,2055,2033,2040,2023
2041,2042,2024,2056,2064,2034,2028,2021
2039,2039,2023,2055,2061,2030,2030,2011
2040,2036,2027,2056,2049,2039,2025,2002
2041,2026,2024,2057,2046,2044,2030,1996
2041,2027,2027,2059,2049,2047,2038,1991
2035,2031,2025,2058,2045,2044,2043,1993
2031,2031,2027,2052,2054,2033,2024,1976
2030,2014,2017,2048,2049,2030,2026,1981
2037,2022,2022,2056,2060,2040,2046,1986
2048,2038,2038,2063,2060,2047,2040,1994
2044,2034,2038,2060,2060,2047,2035,1994
2042,2034,2045,2057,2058,2042,2027,1995
2044,2040,2047,2066,2067,2050,2025,2004
2049,2050,2051,2065,2066,2057,2021,2012
2047,2042,2051,2062,2069,2049,2044,2016
2041,2040,2047,2063,2065,2045,2035,2014
2046,2045,2035,2062,2068,2051,2052,2032
2040,2049,2044,2065,2073,2049,2042,2044
2036,2057,2051,2070,2078,2058,2037,2062
2049,2062,2057,2071,2073,2054,2029,2070
2049,2057,2053,2070,2072,2057,2052,2075
2048,2059,2047,2067,2069,2057,2050,2080
2051,2050,2047,2052,2055,2047,2034,2067
2027,2034,2039,2038,2041,2035,2031,2067
2029,2028,2041,2046,2045,2035,2050,2075
2037,2041,2048,2054,2041,2040,2054,2069
2046,2048,2054,2046,2042,2043,2055,2068
2045,2051,2052,2047,2042,2043,2054,2063
2042,2054,2055,2044,2038,2037,2054,2047
2037,2046,2047,2042,2026,2027,2035,2026
2035,2041,2041,2040,2027,2025,2034,2018
2029,2037,2038,2044,2020,2030,2038,2014
2034,2037,2042,2045,2022,2031,2031,2012
2041,2043,2041,2054,2035,2037,2041,2013
2044,2050,2048,2059,2033,2042,2052,2008
2044,2048,2053,2056,2037,2048,2043,2005
2043,2051,2054,2054,2034,2048,2040,1999
2044,2049,2050,2057,2029,2046,2055,1997
2042,2051,2046,2056,2034,2042,2038,1990
2038,2038,2038,2049,2026,2043,2038,1988
2036,2028,2028,2053,2039,2049,2055,1990
2037,2045,2033,2059,2043,2041,2016,1987
2037,2043,2027,2054,2050,2048,2024,1994
2044,2039,2028,2062,2067,2046,2035,1998
2040,2045,2030,2065,2082,2046,2040,2007
2037,2038,2022,2069,2094,2056,2053,2015
2042,2041,2023,2070,2112,2064,2058,2021
2033,2040,2019,2072,2116,2068,2041,2029
2035,2037,2018,2071,2127,2062,2052,2037
2034,2044,2022,2066,2118,2062,2057,2048
2032,2044,2027,2067,2116,2063,2073,2064
2041,2042,2023,2063,2102,2063,2053,2073
2043,2042,2029,2052,2074,2052,2035,2080
2042,2043,2038,2045,2023,2050,2046,2084
2045,2041,2049,2041,2007,2032,2040,2078
2036,2034,2058,2036,2012,2015,2038,2082
2037,2040,2069,2045,2016,2013,2060,2091
2041,2060,2080,2058,2020,2029,2071,2095
2047,2055,2076,2066,2030,2045,2059,2091
2051,2049,2064,2054,2030,2045,2061,2078
2052,2047,2060,2054,2036,2044,2059,2065
2045,2043,2049,2048,2032,2041,2065,2050
2045,2041,2040,2052,2031,2038,2056,2037
2041,2035,2037,2048,2032,2041,2058,2028
2047,2038,2037,2051,2041,2047,2052,2011
2044,2044,2052,2056,2050,2059,2044,2008
2049,2052,2056,2049,2052,2057,2049,2009
2046,2046,2036,2042,2033,2047,2034,2000
2041,2041,2031,2038,2016,2012,2010,1995
2041,2029,2033,2031,2012,2000,2025,1989
2039,2028,2021,2034,2015,2009,2031,1982
2033,2016,2013,2033,2018,2016,2025,1984
2035,2024,2018,2043,2034,2032,2050,1994
2041,2045,2038,2057,2045,2035,2043,1992
2038,2045,2041,2055,2044,2041,2039,1995
2044,2049,2043,2056,2052,2052,2058,2008
2047,2058,2058,2059,2062,2054,2062,2024
2051,2067,2061,2068,2064,2057,2071,2025
2052,2068,2060,2071,2073,2052,2052,2033
2057,2068,2061,2078,2083,2061,2055,2042
2051,2068,2063,2078,2084,2064,2038,2055
2056,2062,2066,2069,2069,2060,2064,2065
2047,2057,2062,2071,2060,2052,2064,2075
2047,2051,2059,2067,2046,2046,2060,2077
2043,2044,2053,2062,2045,2038,2054,2086
2042,2041,2055,2059,2042,2036,2056,2095
2044,2042,2057,2052,2041,2024,2034,2094
2031,2033,2042,2044,2037,2018,2039,2090
2032,2034,2038,2044,2026,2022,2050,2087
2044,2049,2051,2046,2032,2031,2038,2084
2045,2055,2046,2042,2034,2042,2056,2073
2037,2046,2036,2036,2038,2040,2056,2067
2037,2039,2032,2042,2052,2040,2056,2054
2035,2038,2028,2044,2072,2051,2052,2044
2038,2041,2026,2048,2077,2060,2046,2041
2034,2039,2027,2045,2061,2062,2050,2029
2036,2039,2028,2046,2053,2066,2046,2022
2040,2035,2023,2047,2049,2069,2054,2013
2033,2026,2025,2050,2049,2076,2053,2009
2029,2031,2029,2046,2048,2091,2071,2009
2029,2027,2030,2052,2049,2102,2060,1998
2037,2022,2037,2054,2046,2097,2061,1992
2033,2031,2034,2054,2041,2072,2037,1990
2033,2022,2030,2049,2031,1992,2034,1987
2026,2028,2034,2055,2040,1975,2032,1997
2047,2041,2050,2062,2049,1990,2043,2009
2051,2046,2047,2060,2050,2024,2077,2016
2056,2047,2050,2061,2054,2034,2047,2020
2053,2046,2059,2058,2061,2043,2056,2024
2052,2052,2061,2063,2060,2049,2080,2036
2054,2047,2048,2066,2062,2050,2076,2043
2047,2040,2043,2060,2066,2050,2082,2042
2050,2040,2039,2062,2069,2044,2060,2048
2046,2039,2038,2061,2102,2045,2070,2065
2043,2037,2036,2063,2131,2053,2028,2077
2046,2033,2050,2070,2131,2051,2068,2085
2047,2031,2054,2078,2127,2050,2059,2101
2048,2035,2054,2076,2120,2055,2032,2109
2044,2040,2052,2070,2100,2042,2049,2100
2039,2023,2048,2068,2081,2035,2039,2101
2034,2025,2050,2070,2058,2028,2059,2102
2042,2032,2051,2065,1999,2010,2038,2095
2040,2030,2051,2057,1917,1985,2045,2094
2045,2039,2056,2062,1940,1992,2074,2086
2057,2047,2060,2078,1988,2017,2069,2080
2053,2047,2062,2074,2023,2039,2065,2057
2048,2056,2060,2073,2038,2050,2053,2047
2053,2054,2057,2070,2030,2036,2023,2042
2050,2048,2048,2068,2030,2031,2053,2023
2045,2042,2045,2063,2024,2024,2039,2011
2040,2034,2037,2049,2025,2013,2014,2012
2036,2036,2040,2043,2021,2024,2009,2006
2030,2032,2035,2038,2018,2037,2032,2002
2039,2037,2033,2037,2023,2057,2036,2004
2048,2032,2027,2030,2025,2065,2035,2003
2039,2028,2026,2028,2032,2070,2024,2005
2043,2032,2033,2039,2043,2065,2060,2015
2051,2053,2038,2043,2049,2058,2049,2008
2055,2056,2040,2053,2054,2052,2060,2014
2063,2055,2044,2060,2061,2056,2057,2030
2066,2060,2051,2063,2060,2055,2038,2036
2066,2057,2052,2054,2059,2055,2051,2040
2069,2058,2055,2056,2049,2060,2043,2043
2059,2059,2052,2047,2050,2060,2071,2047
2060,2052,2046,2037,2049,2066,2043,2054
2051,2040,2042,2034,2048,2070,2043,2058
2043,2037,2039,2029,2056,2065,2029,2072
2040,2040,2039,2035,2057,2047,2022,2084
2039,2040,2039,2028,2050,2025,2063,2087
2044,2040,2034,2032,2040,2026,2067,2107
2044,2042,2030,2035,2033,2028,2061,2106
2027,2029,2029,2027,2037,2020,2050,2104
2039,2032,2030,2031,2047,2033,2049,2100
2041,2041,2033,2031,2061,2039,2061,2089
2047,2036,2032,2040,2060,2035,2028,2085
2049,2032,2035,2045,2052,2044,2038,2077
2047,2040,2045,2048,2054,2055,2039,2069
2053,2046,2046,2054,2059,2061,2055,2058
2051,2053,2038,2062,2063,2060,2065,2051
2055,2060,2042,2063,2053,2056,2062,2039
2056,2053,2033,2058,2039,2051,2068,2033
2049,2050,2035,2052,2012,2050,2058,2028
2060,2045,2032,2056,2006,2054,2060,2034
2060,2050,2035,2057,2022,2053,2063,2030
2061,2051,2036,2057,2034,2060,2058,2026
2057,2044,2041,2064,2042,2059,2056,2017
2052,2044,2033,2062,2029,2046,2027,2000
2039,2025,2028,2054,2029,2034,2038,1996
2036,2020,2026,2054,2012,2045,2053,2002
2050,2043,2044,2068,2006,2053,2068,2011
2051,2049,2046,2066,2031,2047,2050,2012
2046,2053,2046,2070,2034,2046,2066,2017
2047,2052,2032,2057,2030,2043,2053,2023
2044,2049,2042,2051,2019,2042,2065,2031
2044,2045,2038,2031,2006,2035,2043,2038
2045,2037,2034,2023,2022,2040,2018,2047
2046,2040,2044,2020,2036,2046,2028,2054
2044,2041,2047,2012,2033,2033,2036,2066
2044,2048,2047,2005,2073,2034,2053,2077
2044,2048,2041,2020,2112,2045,2046,2091
2043,2044,2036,2023,2091,2049,2044,2096
2050,2046,2028,2021,2068,2046,2054,2101
2045,2037,2025,2015,2040,2040,2042,2093
2030,2026,2023,2014,2029,2038,2015,2094
2028,2035,2028,2018,2026,2048,2035,2100
2046,2046,2037,2022,2024,2054,2056,2103
2049,2038,2036,2024,2032,2061,2060,2095
2047,2037,2042,2025,2032,2051,2062,2085
2046,2035,2048,2027,2028,2041,2038,2069
2042,2031,2054,2027,2020,2036,2038,2058
2043,2030,2046,2033,2033,2049,2031,2044
2049,2040,2049,2041,2045,2053,2048,2035
2044,2036,2057,2045,2048,2051,2031,2027
2046,2031,2065,2047,2047,2047,2055,2020
2039,2034,2059,2051,2046,2042,2049,2020
2041,2036,2053,2047,2040,2043,2029,2014
2045,2031,2048,2043,2047,2054,2017,2011
2041,2028,2049,2043,2046,2054,2038,2000
2046,2028,2046,2042,2042,2054,2036,1988
2033,2019,2041,2044,2034,2050,2044,1996
2034,2020,2041,2050,2036,2062,2051,2007
2047,2033,2056,2055,2042,2070,2057,2012
2047,2035,2060,2062,2050,2063,2055,2014
2049,2045,2055,2062,2050,2064,2044,2023
2052,2049,2055,2060,2051,2057,2046,2027
2053,2049,2056,2062,2059,2052,2052,2031
2058,2052,2064,2075,2061,2061,2084,2043
2061,2061,2075,2075,2061,2063,2084,2061
2063,2067,2090,2065,2056,2063,2076,2067
2064,2070,2100,2060,2055,2062,2071,2080
2068,2072,2104,2067,2056,2053,2067,2088
2057,2071,2105,2059,2057,2055,2076,2086
2058,2068,2094,2048,2059,2053,2065,2096
2055,2064,2079,2040,2054,2059,2056,2104
2050,2057,2071,2044,2051,2055,2050,2103
2042,2044,2065,2039,2051,2049,2059,2104
2037,2041,2065,2040,2042,2050,2072,2109
2043,2053,2063,2037,2039,2050,2061,2096
2044,2045,2052,2029,2039,2053,2063,2094
2044,2049,2056,2027,2047,2052,2061,2090
2051,2045,2054,2024,2046,2053,2044,2079
2048,2048,2044,2030,2046,2054,2024,2060
2052,2043,2042,2039,2056,2055,2026,2054
2047,2041,2046,2045,2044,2057,2039,2036
2047,2030,2050,2053,2027,2050,2033,2030
2042,2030,2062,2057,2015,2040,2035,2012
2041,2037,2061,2060,2015,2044,2044,2015
2038,2033,2059,2062,2018,2050,2056,2009
2037,2036,2058,2064,2029,2049,2052,2014
2046,2042,2053,2068,2033,2056,2068,2010
2049,2048,2062,2064,2023,2050,2055,2008
2046,2034,2050,2052,2013,2047,2053,1999
2043,2035,2047,2054,2029,2052,2056,1995
2051,2054,2056,2055,2031,2057,2061,2005
2048,2049,2052,2056,2039,2057,2096,2016
2051,2050,2061,2061,2060,2058,2086,2018
2059,2059,2071,2060,2072,2056,2070,2020
2055,2057,2062,2046,2047,2043,2076,2028
2056,2056,2054,2035,2045,2047,2056,2032
2053,2057,2046,2025,2029,2043,2072,2040
2048,2057,2046,2005,2033,2040,2080,2046
2047,2059,2040,2005,2047,2049,2074,2056
2051,2055,2038,2014,2064,2050,2085,2067
2051,2056,2049,2029,2085,2058,2083,2077
2060,2057,2059,2035,2074,2059,2051,2087
2052,2058,2062,2033,2064,2059,2074,2094
2047,2055,2050,2031,2044,2053,2072,2090
2034,2042,2034,2018,2021,2038,2047,2083
2029,2036,2031,2022,2018,2043,2058,2093
2043,2049,2047,2032,2024,2047,2068,2098
2047,2055,2047,2034,2027,2051,2065,2095
2049,2058,2046,2039,2026,2045,2073,2088
2060,2059,2050,2037,2038,2049,2073,2079
2058,2058,2050,2040,2037,2058,2061,2071
2053,2062,2051,2041,2041,2073,2066,2058
2049,2059,2047,2035,2045,2078,2065,2047
2056,2059,2045,2036,2054,2085,2070,2037
2051,2060,2047,2038,2066,2090,2058,2028
2046,2063,2045,2038,2073,2092,2043,2022
2045,2061,2050,2041,2072,2090,2049,2019
2044,2057,2047,2038,2057,2086,2056,2012
2053,2049,2051,2043,2060,2085,2067,2010
2046,2054,2054,2038,2056,2092,2069,1999
2039,2038,2044,2037,2051,2096,2065,1998
2038,2038,2044,2037,2056,2095,2076,2005
2054,2054,2053,2046,2063,2072,2051,2004
2052,2052,2050,2047,2057,2024,2033,2005
2046,2055,2052,2047,2054,2024,2054,2005
2042,2056,2054,2048,2066,2046,2060,2014
2052,2061,2056,2055,2072,2062,2054,2030
2055,2064,2056,2052,2073,2061,2061,2040
2060,2064,2061,2054,2067,2050,2068,2041
2049,2057,2052,2055,2067,2043,2066,2048
2048,2055,2046,2054,2071,2046,2065,2060
2042,2048,2046,2056,2071,2046,2058,2072
2044,2046,2043,2054,2071,2052,2063,2088
2048,2048,2043,2054,2067,2048,2070,2096
2038,2051,2041,2053,2071,2038,2074,2096
2044,2048,2042,2050,2047,2030,2070,2104
2037,2042,2041,2043,2045,2032,2051,2105
2035,2040,2034,2041,2049,2045,2062,2112
2047,2052,2042,2046,2049,2057,2075,2111
2055,2060,2045,2047,2043,2050,2083,2110
2056,2059,2050,2042,2043,2056,2071,2100
2052,2062,2047,2045,2045,2057,2065,2083
2051,2065,2050,2047,2032,2057,2073,2073
2058,2063,2051,2045,2034,2050,2061,2060
2053,2064,2047,2052,2035,2049,2047,2044
2058,2065,2046,2048,2042,2050,2056,2030
2050,2060,2038,2047,2031,2050,2039,2024
2049,2054,2037,2045,2040,2050,2047,2021
2039,2047,2030,2045,2037,2039,2046,2017
2042,2057,2034,2046,2044,2048,2044,2010
2051,2051,2040,2044,2054,2053,2066,2016
2052,2055,2040,2051,2051,2066,2052,2016
2052,2052,2037,2047,2048,2059,2053,2010
2043,2041,2031,2037,2052,2050,2051,2004
2040,2032,2018,2033,2057,2044,2051,2010
2050,2049,2036,2041,2081,2049,2066,2015
2046,2053,2038,2039,2095,2053,2075,2022
2048,2054,2035,2045,2083,2056,2069,2026
2048,2048,2041,2046,2068,2057,2072,2027
2039,2047,2047,2054,2078,2058,2072,2031
2043,2053,2051,2058,2086,2056,2053,2038
2046,2056,2051,2055,2075,2045,2048,2044
2051,2047,2050,2050,2062,2045,2056,2047
2042,2046,2047,2044,2037,2043,2051,2050
2037,2041,2039,2035,1996,2046,2056,2059
2036,2042,2042,2036,2000,2044,2043,2069
2031,2044,2040,2040,2032,2052,2031,2082
2033,2048,2043,2039,2045,2046,2024,2088
2037,2050,2043,2046,2056,2028,2020,2093
2040,2051,2041,2045,2047,2013,1999,2097
2033,2040,2035,2040,2048,2020,1991,2103
2037,2040,2034,2042,2046,2030,2026,2107
2043,2052,2038,2043,2044,2037,2047,2106
2043,2053,2038,2043,2039,2042,2049,2100
2048,2058,2030,2039,2038,2039,2055,2090
2052,2057,2035,2043,2047,2052,2069,2085
2056,2060,2034,2042,2044,2058,2069,2074
2062,2062,2042,2045,2032,2052,2070,2065
2060,2065,2041,2042,2028,2045,2053,2049
2049,2061,2038,2042,2020,2037,2047,2039
2052,2059,2036,2047,2035,2041,2055,2031
2047,2046,2033,2048,2030,2042,2037,2027
2046,2045,2031,2040,2033,2044,2047,2015
2047,2047,2026,2040,2032,2043,2051,2014
2046,2044,2025,2032,2025,2046,2063,2019
2046,2046,2030,2039,2036,2048,2041,2013
2045,2044,2023,2037,2043,2042,2044,2002
2038,2033,2018,2037,2052,2051,2041,2001
2035,2036,2021,2042,2062,2060,2044,2008
2054,2055,2024,2046,2060,2055,2024,2013
2043,2056,2025,2045,2058,2051,2050,2017
2052,2057,2033,2051,2058,2053,2052,2017
2053,2058,2045,2053,2058,2065,2059,2027
2053,2061,2052,2055,2066,2064,2054,2028
2052,2060,2046,2048,2071,2060,2068,2045
2055,2062,2049,2055,2066,2057,2067,2053
2056,2057,2039,2044,2066,2063,2060,2062
2052,2053,2039,2039,2064,2058,2058,2071
2050,2050,2037,2042,2059,2054,2036,2082
2052,2054,2047,2043,2068,2052,2036,2093
2047,2056,2050,2043,2063,2050,2033,2103
2048,2055,2044,2044,2061,2047,2037,2109
2046,2059,2055,2052,2062,2046,2031,2105
2045,2052,2054,2049,2052,2036,2026,2097
2033,2045,2053,2045,2046,2033,2043,2103
2044,2055,2058,2056,2052,2041,2058,2101
2049,2070,2069,2068,2050,2043,2058,2104
2057,2067,2065,2064,2052,2041,2062,2094
2051,2065,2066,2064,2048,2046,2057,2086
2046,2066,2069,2069,2045,2044,2051,2073
2051,2066,2074,2075,2048,2045,2052,2063
2053,2060,2070,2072,2046,2050,2042,2056
2050,2059,2068,2080,2048,2059,2048,2052
2058,2056,2064,2076,2057,2068,2052,2046
2053,2055,2061,2088,2050,2071,2051,2035
2053,2060,2057,2086,2054,2074,2045,2033
2054,2062,2052,2090,2054,2073,2048,2027
2060,2069,2067,2083,2059,2068,2046,2020
2058,2074,2071,2085,2057,2064,2037,2013
2058,2069,2069,2087,2050,2058,2032,2007
2050,2049,2056,2065,2042,2032,2018,2002
2043,2040,2042,2053,2041,2031,2007,1999
2047,2046,2046,2053,2042,2042,2023,2001
2056,2046,2045,2045,2043,2039,2024,2011
2047,2050,2037,2044,2049,2047,2036,2021
2061,2047,2035,2037,2052,2056,2040,2033
2054,2052,2028,2028,2059,2059,2034,2034
2058,2047,2032,2027,2060,2069,2046,2037
2055,2052,2038,2028,2070,2081,2050,2048
2048,2055,2044,2027,2073,2082,2069,2059
2053,2059,2059,2030,2067,2080,2061,2072
2056,2059,2073,2035,2054,2073,2056,2079
2058,2065,2076,2041,2052,2071,2074,2083
2058,2061,2073,2047,2061,2068,2064,2092
2057,2059,2070,2043,2064,2062,2051,2096
2055,2060,2060,2040,2058,2057,2045,2105
2049,2059,2056,2040,2052,2054,2049,2101
2045,2045,2048,2037,2046,2060,2048,2102
2044,2046,2044,2034,2038,2056,2062,2111
2051,2057,2055,2043,2029,2042,2040,2101
2054,2060,2057,2039,2026,2040,2012,2100
2050,2055,2049,2029,2028,2033,2006,2088
2053,2049,2045,2035,2029,2030,2031,2072
2056,2046,2041,2035,2021,2023,2013,2063
2050,2038,2047,2034,2023,2026,2045,2052
2052,2047,2054,2037,2029,2039,2026,2043
2058,2055,2057,2041,2037,2046,2053,2040
2055,2049,2058,2047,2039,2045,2047,2037
2049,2047,2063,2044,2041,2044,2036,2035
2052,2050,2064,2051,2037,2054,2040,2032
2057,2054,2070,2055,2037,2043,2041,2025
2052,2049,2074,2046,2035,2033,2032,2017
2045,2043,2065,2041,2040,2025,2030,2012
2045,2036,2051,2034,2028,2021,2025,2007
2033,2027,2044,2037,2040,2024,2014,2006
2038,2035,2049,2050,2065,2037,2016,2009
2051,2049,2061,2057,2071,2039,2016,2008
2048,2052,2060,2056,2063,2039,2022,2015
2044,2049,2056,2053,2057,2049,2032,2008
2048,2044,2052,2055,2055,2054,2034,2012
2048,2046,2054,2053,2055,2062,2053,2023
2054,2048,2054,2060,2065,2071,2057,2043
2052,2055,2059,2050,2047,2072,2068,2049
2059,2055,2059,2060,2039,2073,2064,2064
2065,2060,2057,2066,2057,2070,2077,2075
2061,2063,2058,2070,2059,2078,2091,2084
2061,2057,2057,2068,2048,2074,2068,2099
2052,2054,2054,2061,2038,2061,2058,2100
2051,2053,2050,2061,2017,2044,2054,2108
2049,2052,2047,2060,2018,2035,2051,2109
2048,2042,2042,2050,2027,2031,2047,2101
2041,2032,2036,2045,2029,2028,2037,2106
2045,2042,2045,2039,2015,2030,2040,2104
2048,2045,2047,2048,2065,2041,2036,2098
2042,2047,2044,2053,2071,2053,2038,2089
2042,2047,2053,2057,2059,2052,2030,2075
2051,2044,2052,2059,2054,2051,2032,2077
2047,2040,2053,2050,2048,2040,2025,2058
2047,2038,2048,2051,2050,2037,2022,2049
2047,2039,2041,2049,2042,2032,2022,2041
2042,2043,2041,2041,2018,2044,2024,2034
2045,2046,2036,2045,2004,2051,2035,2029
2047,2040,2028,2033,1997,2061,2040,2024
2045,2040,2028,2025,1993,2060,2031,2013
2041,2035,2025,2028,2006,2076,2031,2004
2044,2041,2037,2047,2042,2075,2054,2014
2053,2049,2041,2055,2059,2018,2033,2024
2049,2039,2034,2054,2071,2004,2044,2020
2053,2038,2037,2056,2082,2032,2062,2027
2054,2045,2043,2057,2088,2057,2053,2020
2055,2045,2045,2053,2066,2059,2056,2021
2054,2051,2046,2053,2060,2050,2067,2026
2057,2052,2049,2055,2068,2058,2064,2033
2063,2053,2051,2060,2075,2052,2042,2038
2064,2056,2061,2060,2083,2053,2034,2042
2058,2054,2057,2055,2079,2052,2044,2044
2041,2039,2056,2044,2069,2056,2045,2047
2041,2038,2052,2046,2071,2065,2050,2063
2042,2036,2046,2049,2069,2062,2033,2074
2047,2042,2051,2056,2078,2057,2030,2096
2051,2045,2054,2053,2075,2048,2049,2098
2057,2046,2061,2057,2080,2048,2049,2111
2053,2047,2061,2057,2080,2039,2026,2113
2045,2045,2056,2056,2068,2035,2032,2113
2037,2030,2044,2046,2067,2033,2046,2114
2035,2034,2050,2053,2067,2041,2042,2118
2051,2046,2058,2061,2065,2045,2055,2111
2037,2050,2054,2054,2060,2042,2054,2105
2046,2048,2052,2045,2050,2044,2042,2097
2055,2043,2050,2036,2023,2040,2034,2083
2049,2048,2045,2033,2016,2043,2054,2073
2044,2042,2042,2033,2024,2042,2052,2062
2049,2042,2038,2035,2030,2041,2051,2054
2045,2045,2039,2030,2044,2046,2029,2046
2046,2051,2044,2043,2052,2050,2042,2042
2048,2046,2049,2045,2051,2061,2062,2043
2049,2050,2050,2040,2049,2058,2062,2038
2056,2046,2046,2040,2046,2052,2067,2030
2051,2045,2047,2039,2047,2050,2051,2026
2056,2051,2055,2048,2044,2053,2052,2030
2056,2050,2045,2042,2030,2045,2039,2017
2044,2026,2034,2030,2022,2038,2039,2010
2035,2030,2030,2031,2028,2040,2065,2019
2047,2039,2043,2032,2042,2068,2086,2027
2047,2038,2038,2038,2062,2083,2083,2030
2051,2039,2047,2044,2062,2081,2072,2041
2051,2044,2061,2051,2062,2078,2091,2042
2055,2052,2055,2047,2060,2084,2091,2048
2049,2058,2059,2046,2059,2072,2087,2054
2049,2054,2059,2044,2057,2046,2067,2060
2051,2057,2059,2042,2049,2026,2071,2070
2057,2056,2061,2044,2042,2032,2072,2089
2058,2054,2062,2046,2050,2042,2074,2093
2060,2054,2059,2045,2053,2040,2075,2097
2046,2045,2053,2045,2053,2037,2062,2105
2048,2041,2051,2042,2053,2030,2036,2103
2049,2049,2049,2040,2052,2018,2039,2097
2039,2037,2034,2026,2027,2012,2037,2096
2038,2029,2031,2026,2027,2008,2045,2100
2038,2040,2037,2037,2041,2024,2042,2109
2041,2041,2042,2040,2050,2037,2042,2101
2042,2046,2042,2038,2045,2047,2048,2097
2039,2039,2039,2038,2034,2054,2031,2092
2043,2049,2039,2040,2032,2050,2050,2074
2045,2037,2033,2035,2024,2046,2036,2063
2040,2035,2039,2037,2023,2039,2049,2058
2046,2040,2038,2039,2025,2041,2053,2055
2049,2039,2040,2045,2031,2047,2051,2051
2054,2051,2045,2042,2036,2044,2053,2039
2051,2045,2044,2043,2026,2034,2040,2030
2050,2046,2043,2041,2026,2037,2021,2023
2055,2044,2044,2044,2035,2039,2052,2026
2048,2046,2047,2050,2042,2048,2049,2026
2050,2045,2042,2041,2039,2045,2056,2024
2044,2031,2033,2030,2052,2047,2053,2017
2042,2034,2032,2033,2064,2053,2053,2024
2053,2050,2042,2043,2065,2064,2050,2027
2053,2047,2040,2041,2062,2068,2055,2032
2054,2049,2041,2044,2058,2068,2052,2034
2060,2049,2043,2044,2062,2065,2042,2035
2058,2047,2047,2051,2065,2065,2052,2038
2058,2050,2050,2047,2068,2066,2053,2050
2059,2048,2051,2052,2062,2063,2075,2056
2057,2051,2051,2053,2062,2055,2072,2061
2061,2050,2051,2053,2056,2044,2039,2073
2063,2050,2049,2054,2053,2047,2033,2074
2060,2049,2052,2061,2066,2052,2051,2089
2056,2054,2052,2058,2066,2049,2064,2094
2061,2051,2053,2044,2066,2045,2049,2096
2058,2046,2047,2048,2056,2033,2044,2098
2055,2039,2042,2038,2044,2025,2042,2096
2044,2031,2039,2036,2044,2020,2043,2102
2042,2034,2045,2040,2046,2026,2052,2101
2052,2043,2045,2042,2040,2031,2044,2096
2047,2041,2044,2038,2037,2030,2046,2084
2049,2043,2040,2036,2034,2030,2035,2070
2048,2031,2030,2035,2032,2032,2049,2064
2051,2036,2033,2035,2034,2029,2037,2062
2049,2031,2032,2036,2039,2034,2054,2049
2050,2034,2035,2035,2040,2037,2055,2042
2044,2036,2033,2038,2033,2041,2066,2038
2053,2030,2031,2037,2038,2054,2065,2037
2057,2033,2030,2041,2041,2058,2052,2034
2057,2035,2033,2050,2042,2068,2048,2022
2060,2035,2034,2049,2041,2069,2046,2016
2054,2033,2032,2043,2028,2065,2047,2017
2054,2032,2031,2044,2025,2058,2061,2018
2051,2026,2018,2038,2016,2051,2052,2011
2038,2025,2019,2034,2022,2048,2039,2005
2044,2038,2028,2042,2026,2061,2030,2016
2048,2043,2035,2044,2037,2058,2046,2016
2045,2045,2038,2042,2035,2060,2043,2022
2040,2044,2046,2048,2041,2042,2039,2023
2046,2046,2041,2046,2043,2031,2041,2028
2049,2050,2043,2050,2050,2033,2058,2038
2043,2044,2044,2054,2058,2040,2070,2043
2046,2043,2050,2058,2066,2051,2075,2046
2049,2048,2052,2064,2072,2056,2072,2071
2055,2058,2054,2059,2076,2050,2064,2078
2062,2056,2053,2056,2067,2053,2073,2088
2057,2056,2051,2051,2066,2049,2048,2091
2057,2048,2056,2053,2059,2049,2046,2105
2056,2052,2055,2047,2056,2047,2040,2100
2049,2046,2053,2043,2049,2043,2050,2105
2041,2031,2044,2044,2042,2039,2054,2096
2042,2035,2037,2044,2032,2038,2057,2110
2048,2042,2040,2048,2038,2048,2062,2107
2053,2042,2039,2049,2032,2048,2059,2101
2058,2040,2033,2044,2027,2046,2053,2095
2053,2043,2029,2043,2028,2044,2053,2082
2048,2044,2038,2047,2034,2049,2052,2065
2054,2044,2039,2038,2025,2053,2055,2059
2052,2046,2038,2041,2020,2053,2057,2056
2051,2039,2032,2038,2019,2050,2053,2042
2054,2042,2030,2040,2021,2053,2030,2040
2058,2046,2028,2032,2022,2054,2032,2029
2057,2035,2031,2034,2036,2052,2033,2022
2054,2038,2034,2042,2055,2045,2033,2017
2058,2037,2030,2045,2049,2035,2017,2006
2062,2039,2038,2048,2050,2024,2045,2008
2059,2039,2044,2053,2042,2022,2031,2001
2042,2028,2037,2044,2049,2030,2038,2001
2046,2028,2038,2051,2046,2042,2049,2011
2057,2049,2062,2058,2050,2042,2056,2016
2059,2054,2071,2060,2054,2044,2065,2025
2060,2052,2080,2065,2055,2044,2057,2024
2063,2060,2083,2066,2057,2042,2057,2032
2062,2059,2081,2061,2055,2042,2063,2034
2062,2058,2084,2060,2056,2042,2054,2044
2053,2054,2077,2067,2058,2043,2049,2047
2055,2048,2072,2065,2063,2048,2055,2057
2061,2051,2079,2069,2063,2056,2058,2067
2054,2051,2079,2071,2062,2067,2067,2073
2056,2052,2080,2073,2073,2075,2063,2087
2056,2055,2082,2074,2074,2075,2068,2092
2056,2060,2092,2078,2068,2068,2047,2098
2057,2061,2097,2076,2059,2076,2046,2106
2056,2056,2086,2078,2051,2077,2038,2098
2049,2054,2080,2076,2051,2072,2031,2105
2050,2059,2083,2084,2053,2071,2044,2109
2055,2060,2081,2078,2054,2077,2038,2100
2058,2056,2068,2069,2051,2041,2029,2085
2053,2049,2062,2068,2048,1984,2014,2081
2052,2051,2054,2064,2042,1985,2020,2079
2048,2044,2060,2064,2036,2000,2017,2060
2046,2046,2062,2056,2009,2014,2016,2050
2046,2038,2058,2052,2008,2013,2013,2036
2041,2039,2060,2042,2015,2020,2028,2030
2045,2040,2056,2036,2022,2032,2025,2018
2047,2047,2065,2038,2028,2042,2029,2015
2051,2052,2073,2045,2030,2053,2030,2022
2055,2055,2067,2048,2018,2063,2038,2016
2058,2056,2056,2046,2031,2064,2044,2016
2053,2056,2045,2045,2037,2058,2037,2007
2047,2040,2028,2027,2029,2032,2030,2004
2040,2031,2016,2011,2023,2024,2024,2007
2050,2042,2031,2028,2102,2046,2046,2022
2062,2055,2029,2041,2136,2056,2053,2024
2063,2054,2026,2036,2133,2065,2041,2030
2060,2058,2031,2035,2130,2059,2047,2033
2065,2059,2028,2030,2117,2064,2052,2036
2055,2052,2021,2023,2102,2065,2055,2041
2051,2047,2019,2017,2084,2059,2025,2052
2050,2046,2023,2012,2064,2051,2036,2051
2056,2046,2019,2007,2052,2057,2043,2070
2055,2041,2027,2004,2019,2059,2052,2077
2046,2039,2042,2010,1955,2045,2068,2090
2047,2036,2038,2006,1947,2042,2051,2101
2042,2036,2044,2020,1980,2054,2058,2107
2045,2042,2055,2025,2004,2061,2050,2108
2045,2045,2065,2027,2011,2051,2044,2104
2034,2029,2057,2026,2014,2037,2030,2104
2034,2029,2063,2024,2027,2033,2033,2101
2044,2037,2073,2031,2048,2027,2024,2092
2041,2038,2065,2034,2043,2031,2025,2082
2042,2036,2060,2027,2035,2021,2025,2082
2036,2027,2056,2025,2029,2024,2018,2074
2044,2037,2052,2029,2035,2025,2008,2068
2043,2049,2052,2026,2033,2032,2016,2051
2055,2050,2049,2032,2037,2040,2000,2046
2063,2052,2047,2038,2040,2044,2004,2045
2064,2041,2046,2040,2040,2055,2019,2044
2073,2038,2051,2045,2040,2056,2040,2034
2067,2028,2049,2049,2035,2056,2024,2030
2066,2032,2049,2042,2032,2052,2021,2020
2058,2031,2041,2041,2034,2042,2022,2018
2055,2026,2042,2032,2035,2046,2043,2017
2050,2030,2037,2029,2033,2032,2031,2009
2039,2018,2028,2026,2036,2031,2026,2004
2041,2023,2039,2038,2054,2050,2043,2008
2054,2047,2052,2046,2052,2051,2049,2009
2064,2045,2053,2043,2052,2036,2043,2017
2063,2050,2055,2040,2050,2046,2045,2033
2064,2055,2052,2045,2057,2052,2054,2042
2071,2058,2049,2047,2050,2050,2054,2047
2069,2056,2051,2051,2054,2053,2069,2049
2064,2049,2056,2045,2058,2048,2061,2051
2054,2050,2058,2040,2052,2045,2048,2056
2052,2050,2050,2040,2044,2048,2045,2062
2043,2050,2048,2034,2050,2042,2046,2080
2051,2046,2048,2034,2047,2044,2033,2094
2059,2049,2042,2039,2051,2053,2029,2104
2060,2042,2043,2041,2050,2049,2022,2114
2055,2052,2048,2037,2058,2046,2031,2118
2053,2044,2043,2033,2041,2034,2017,2106
2044,2037,2044,2028,2035,2030,2030,2108
2051,2044,2058,2042,2040,2036,2031,2108
2053,2046,2055,2045,2036,2033,2030,2095
2054,2044,2058,2044,2036,2033,2034,2092
2047,2045,2053,2048,2033,2028,2026,2081
2047,2046,2054,2049,2028,2036,2034,2081
2052,2047,2056,2042,2024,2035,2040,2073
2051,2053,2059,2038,2029,2040,2051,2066
2055,2059,2056,2047,2034,2041,2047,2055
2056,2061,2056,2047,2033,2044,2027,2047
2054,2060,2052,2041,2038,2044,2046,2034
2062,2062,2053,2044,2037,2047,2049,2031
2059,2053,2054,2045,2031,2043,2052,2032
2054,2058,2057,2047,2038,2039,2047,2024
2049,2056,2056,2039,2037,2046,2042,2023
2055,2055,2051,2044,2035,2042,2042,2013
2042,2041,2038,2035,2028,2029,2035,2005
2043,2041,2041,2040,2041,2033,2045,2011
2048,2048,2049,2049,2061,2045,2040,2018
2050,2051,2047,2046,2064,2052,2048,2027
2050,2046,2049,2046,2061,2057,2058,2025
2047,2045,2048,2050,2055,2056,2080,2034
2046,2045,2047,2045,2056,2058,2065,2038
2047,2050,2054,2046,2059,2061,2056,2044
2053,2053,2052,2043,2051,2058,2064,2057
2055,2052,2053,2048,2050,2059,2063,2062
2052,2048,2050,2043,2048,2048,2069,2070
2054,2044,2051,2033,2056,2044,2052,2077
2054,2047,2047,2043,2068,2052,2066,2097
2055,2052,2052,2054,2081,2047,2072,2096
2055,2051,2052,2056,2074,2037,2057,2099
2052,2057,2052,2054,2050,2024,2058,2103
2054,2063,2055,2050,2041,2017,2046,2097
2047,2054,2053,2046,2029,2005,2039,2093
2050,2044,2047,2040,2022,2011,2041,2099
2047,2053,2053,2038,2013,2006,2018,2088
2051,2060,2052,2049,2031,2011,2042,2093
2049,2064,2054,2054,2048,2030,2054,2087
2059,2060,2052,2060,2062,2047,2062,2083
2059,2059,2049,2048,2043,2046,2046,2076
2059,2055,2038,2043,2000,2043,2035,2053
2059,2057,2035,2037,1983,2034,2037,2046
2052,2049,2029,2039,2011,2045,2048,2034
2045,2050,2028,2043,2034,2049,2041,2026
2045,2043,2026,2043,2038,2045,2050,2019
2042,2049,2029,2045,2034,2036,2045,2017
2045,2043,2031,2040,2042,2038,2051,2018
2046,2046,2036,2042,2058,2042,2027,2016
2047,2048,2042,2048,2069,2044,2030,2010
2053,2046,2041,2044,2064,2036,2038,2004
2043,2041,2033,2043,2057,2034,2021,1994
2041,2041,2036,2047,2061,2043,2031,2004
2048,2047,2038,2050,2050,2043,2018,2006
2042,2049,2042,2046,2056,2045,2039,2014
2045,2046,2045,2042,2058,2047,2048,2025
2053,2051,2046,2041,2064,2045,2047,2025
2046,2050,2046,2043,2066,2045,2056,2030
2052,2050,2056,2047,2060,2044,2060,2039
2047,2052,2052,2052,2046,2043,2048,2040
2044,2050,2064,2051,2054,2044,2042,2048
2045,2060,2062,2055,2046,2040,2043,2062
2047,2063,2065,2050,2056,2039,2042,2077
2052,2066,2063,2057,2060,2046,2055,2084
2056,2063,2061,2054,2060,2055,2062,2100
2056,2061,2059,2056,2054,2047,2052,2107
2054,2062,2061,2058,2047,2042,2059,2108
2042,2047,2052,2045,2034,2028,2042,2104
2036,2042,2053,2048,2040,2025,2026,2103
2043,2052,2060,2054,2039,2029,2034,2101
2044,2057,2065,2056,2043,2037,2043,2099
2051,2058,2069,2060,2043,2044,2048,2092
2044,2057,2069,2059,2057,2046,2050,2079
2043,2051,2058,2054,2056,2046,2046,2070
2044,2053,2052,2048,2045,2046,2040,2058
2041,2049,2045,2047,2044,2047,2036,2047
2039,2046,2044,2050,2043,2050,2057,2041
2049,2044,2039,2049,2046,2044,2033,2034
2038,2046,2035,2054,2043,2045,2032,2032
2041,2041,2036,2052,2039,2038,2051,2023
2043,2045,2034,2051,2040,2035,2052,2018
2043,2040,2035,2048,2041,2034,2041,2008
2043,2044,2038,2047,2047,2029,2038,2007
2042,2046,2037,2047,2032,2027,2038,1999
2030,2029,2022,2043,2031,2026,2033,1999
2034,2034,2020,2046,2039,2033,2043,2004
2042,2049,2033,2049,2044,2034,2043,2013
2050,2047,2035,2048,2051,2040,2050,2019
2051,2051,2039,2052,2058,2052,2052,2021
2055,2053,2044,2052,2061,2062,2076,2022
2053,2055,2041,2057,2054,2059,2063,2029
2061,2062,2060,2054,2054,2057,2050,2033
2058,2059,2051,2055,2055,2059,2065,2037
2057,2057,2053,2056,2059,2074,2072,2049
2053,2054,2058,2062,2062,2073,2072,2064
2059,2051,2057,2063,2056,2083,2074,2069
2056,2055,2065,2068,2061,2088,2079,2087
2055,2055,2061,2067,2050,2084,2072,2087
2054,2052,2064,2064,2051,2088,2077,2092
2053,2052,2065,2069,2055,2096,2081,2106
2048,2053,2057,2058,2050,2084,2072,2093
2043,2044,2052,2057,2044,2039,2048,2105
2044,2039,2047,2059,2035,2000,2059,2111
2051,2050,2056,2060,2032,2004,2073,2107
2055,2054,2059,2064,2035,2031,2075,2098
2052,2052,2054,2069,2030,2044,2077,2083
2046,2058,2052,2072,2035,2037,2062,2068
2050,2050,2052,2080,2034,2032,2047,2049
2042,2047,2050,2071,2037,2031,2043,2038
2037,2045,2039,2068,2036,2039,2048,2030
2042,2043,2036,2061,2034,2038,2043,2023
2044,2041,2037,2064,2038,2038,2036,2027
2050,2041,2035,2065,2043,2041,2060,2025
2042,2043,2037,2062,2041,2043,2049,2022
2051,2044,2037,2059,2039,2040,2031,2017
2052,2050,2037,2059,2037,2036,2050,2018
2056,2054,2041,2059,2045,2030,2052,2012
2052,2044,2034,2046,2039,2030,2042,2000
2040,2034,2027,2038,2035,2034,2038,2004
2043,2039,2036,2036,2043,2045,2049,2014
2050,2045,2036,2037,2039,2038,2051,2015
2054,2037,2041,2035,2042,2046,2030,2011
2053,2037,2043,2037,2035,2035,2042,2022
2051,2050,2044,2041,2042,2038,2036,2024
2052,2054,2054,2053,2049,2041,2060,2035
2053,2057,2054,2054,2051,2047,2064,2039
2054,2058,2062,2060,2056,2049,2069,2047
2059,2056,2068,2058,2061,2051,2059,2063
2058,2056,2063,2060,2065,2052,2050,2071
2048,2059,2063,2055,2064,2054,2065,2078
2053,2057,2058,2058,2063,2052,2070,2099
2056,2058,2049,2058,2065,2058,2077,2096
2061,2059,2053,2058,2066,2064,2069,2109
2058,2058,2054,2058,2063,2070,2069,2110
2047,2044,2042,2054,2053,2055,2067,2112
2051,2042,2041,2055,2053,2044,2062,2114
2054,2055,2052,2054,2048,2045,2059,2110
2051,2052,2052,2044,2046,2038,2052,2094
2052,2052,2052,2041,2033,2031,2053,2088
2058,2051,2051,2039,2035,2030,2040,2086
2054,2046,2050,2035,2034,2027,2051,2074
2052,2053,2050,2035,2033,2029,2043,2062
2054,2047,2048,2033,2032,2033,2050,2046
2049,2047,2042,2032,2038,2040,2052,2035
2048,2046,2039,2033,2036,2045,2051,2034
2046,2047,2043,2034,2030,2043,2055,2024
2052,2050,2045,2043,2027,2041,2052,2025
2053,2050,2045,2042,2034,2042,2050,2015
2054,2050,2047,2047,2036,2042,2052,2015
2055,2057,2060,2050,2043,2051,2060,2016
2062,2056,2051,2050,2038,2042,2037,2011
2048,2040,2042,2039,2035,2042,2024,2004
2045,2039,2035,2040,2044,2047,2027,2012
2056,2048,2041,2049,2048,2047,2048,2010
2053,2055,2048,2048,2047,2049,2035,2018
2057,2055,2044,2054,2054,2054,2051,2024
2060,2057,2042,2056,2056,2061,2051,2031
2060,2059,2046,2053,2058,2056,2073,2035
2055,2058,2050,2058,2052,2054,2063,2041
2056,2061,2049,2060,2058,2053,2054,2054
2059,2060,2054,2061,2061,2045,2051,2060
2064,2067,2057,2060,2069,2045,2049,2070
2059,2065,2057,2060,2066,2042,2051,2078
2054,2066,2056,2057,2063,2046,2052,2092
2053,2064,2053,2056,2045,2045,2049,2100
2057,2062,2058,2060,2019,2044,2044,2105
2056,2062,2055,2060,2028,2044,2064,2114
2057,2053,2048,2054,2032,2044,2062,2120
2054,2046,2047,2046,2024,2049,2056,2117
2045,2050,2048,2051,2024,2057,2073,2116
2055,2055,2046,2054,2005,2051,2066,2116
2050,2048,2050,2056,1983,2040,2047,2102
2057,2053,2052,2053,2004,2034,2043,2090
2049,2049,2047,2050,2019,2035,2050,2071
2056,2047,2039,2039,2014,2020,2052,2060
2049,2051,2038,2033,2041,2018,2043,2044
2048,2047,2045,2043,2069,2036,2058,2045
2055,2056,2053,2052,2081,2046,2060,2045
2054,2058,2056,2061,2081,2053,2071,2043
2064,2060,2059,2060,2064,2044,2055,2038
2059,2054,2061,2057,2042,2042,2050,2026
2055,2058,2057,2060,2042,2039,2022,2012
2047,2058,2056,2059,2045,2033,2025,2006
2045,2049,2048,2054,2043,2027,2043,2005
2045,2040,2031,2051,2037,2022,2039,1997
2040,2038,2030,2053,2038,2029,2048,1999
2045,2044,2039,2069,2049,2037,2051,2004
2046,2051,2041,2071,2054,2043,2053,2010
2047,2049,2040,2070,2050,2054,2063,2025
2041,2050,2042,2068,2049,2049,2050,2020
2039,2051,2050,2066,2048,2049,2041,2020
2047,2055,2046,2069,2059,2056,2054,2032
2052,2058,2054,2074,2059,2051,2065,2041
2059,2057,2063,2080,2056,2057,2068,2046
2054,2056,2053,2081,2062,2057,2061,2052
2040,2053,2051,2076,2062,2055,2039,2069
2041,2050,2058,2079,2065,2053,2040,2081
2040,2047,2056,2072,2059,2048,2044,2085
2043,2053,2058,2072,2059,2047,2054,2094
2043,2052,2059,2071,2055,2043,2056,2093
2041,2053,2058,2065,2055,2040,2045,2095
2032,2039,2051,2054,2039,2034,2053,2092
2032,2034,2046,2048,2040,2032,2044,2093
2035,2050,2059,2050,2033,2034,2036,2091
2043,2058,2063,2046,2040,2039,2027,2089
2045,2058,2056,2044,2037,2043,2053,2080
2050,2058,2054,2048,2039,2046,2057,2074
2052,2058,2061,2041,2036,2045,2057,2062
2044,2064,2067,2033,2028,2047,2056,2048
2047,2062,2078,2037,2036,2046,2056,2036
2050,2070,2073,2030,2035,2047,2060,2033
2055,2070,2066,2029,2032,2052,2060,2031
2060,2064,2055,2027,2036,2046,2058,2018
2047,2050,2049,2027,2027,2044,2052,2014
2049,2050,2042,2035,2036,2045,2047,2017
2048,2046,2038,2037,2036,2042,2049,2014
2044,2040,2042,2044,2042,2045,2033,2006
2050,2038,2043,2044,2039,2037,2032,2008
2042,2035,2046,2044,2050,2033,2035,2008
2040,2033,2053,2049,2056,2046,2049,2012
2060,2057,2058,2055,2060,2055,2053,2019
2055,2056,2060,2053,2059,2053,2055,2026
2061,2057,2066,2050,2056,2049,2057,2028
2059,2059,2058,2052,2055,2050,2055,2024
2060,2059,2059,2049,2048,2052,2047,2032
2058,2061,2058,2048,2050,2059,2043,2038
2056,2056,2055,2049,2054,2065,2058,2054
2057,2055,2055,2050,2059,2069,2064,2050
2062,2058,2059,2056,2057,2065,2087,2064
2062,2057,2056,2055,2059,2070,2072,2071
2062,2056,2056,2052,2070,2065,2065,2086
2052,2057,2050,2048,2056,2058,2056,2088
2052,2064,2044,2051,2059,2054,2061,2099
2055,2060,2055,2054,2060,2053,2052,2092
2055,2054,2046,2050,2047,2029,2039,2088
2044,2040,2038,2040,2042,2008,2007,2088
2044,2048,2043,2047,2041,2019,2029,2092
2045,2051,2045,2049,2047,2033,2028,2092
2052,2054,2047,2050,2048,2042,2026,2088
2057,2054,2047,2055,2054,2043,2037,2072
2051,2051,2047,2053,2056,2046,2044,2068
2055,2053,2046,2051,2049,2040,2045,2057
2052,2054,2042,2053,2049,2043,2039,2056
2054,2050,2040,2050,2055,2047,2040,2044
2053,2052,2045,2052,2059,2048,2044,2032
2055,2055,2047,2054,2053,2048,2043,2036
2051,2054,2043,2051,2057,2043,2051,2026
2052,2048,2038,2051,2057,2041,2047,2020
2058,2052,2040,2050,2055,2042,2049,2022
2056,2055,2042,2045,2049,2044,2045,2013
2057,2054,2040,2050,2040,2052,2048,2012
2052,2045,2030,2042,2037,2054,2039,2007
2042,2036,2020,2039,2033,2062,2049,2003
2048,2043,2028,2047,2033,2073,2063,2013
2055,2057,2035,2042,2030,2074,2058,2014
2057,2057,2033,2042,2026,2075,2059,2013
2053,2059,2032,2040,2022,2078,2063,2019
2056,2057,2037,2035,2018,2084,2059,2035
2059,2061,2048,2042,2028,2095,2062,2042
2054,2063,2052,2049,2034,2101,2047,2042
2059,2063,2048,2050,2038,2090,2044,2057
2056,2054,2058,2044,2038,2032,2057,2061
2057,2046,2058,2047,2033,1993,2055,2071
2051,2043,2049,2040,2043,2005,2058,2087
2053,2042,2048,2033,2052,2034,2048,2096
2051,2042,2040,2038,2068,2049,2046,2105
2053,2040,2046,2047,2084,2052,2063,2110
2055,2050,2061,2050,2081,2057,2049,2105
2048,2042,2062,2042,2066,2055,2044,2100
2049,2043,2060,2043,2067,2059,2040,2107
2049,2054,2066,2049,2061,2057,2044,2104
2050,2052,2055,2044,2053,2058,2038,2093
2049,2044,2054,2043,2052,2048,2039,2083
2045,2050,2053,2043,2042,2050,2055,2079
2049,2051,2057,2046,2044,2036,2039,2069
2047,2055,2060,2049,2048,2030,2038,2053
2048,2055,2063,2047,2043,2030,2052,2050
2054,2047,2058,2048,2042,2039,2041,2037
2055,2046,2056,2050,2046,2041,2034,2034
2056,2049,2054,2046,2048,2034,2033,2029
2055,2046,2052,2050,2047,2040,2018,2030
2054,2047,2048,2049,2044,2039,2017,2014
2058,2044,2050,2048,2045,2038,2020,2015
2052,2048,2052,2050,2055,2038,2030,2010
2047,2045,2050,2045,2044,2033,2029,2004
2044,2038,2040,2039,2045,2034,2016,2001
2036,2037,2044,2043,2052,2046,2027,2012
2051,2047,2059,2042,2056,2052,2053,2012
2051,2051,2057,2050,2057,2052,2040,2017
2047,2051,2052,2054,2056,2056,2038,2026
2050,2052,2053,2051,2055,2056,2043,2030
2052,2053,2058,2050,2058,2051,2029,2027
2050,2054,2052,2047,2065,2055,2015,2038
2049,2051,2052,2052,2062,2060,2039,2052
2052,2055,2052,2047,2068,2054,2043,2061
2049,2046,2051,2046,2061,2050,2031,2059
2044,2047,2052,2042,2060,2048,2050,2079
2047,2050,2046,2044,2066,2050,2051,2087
2045,2049,2050,2040,2062,2047,2059,2097
2047,2052,2051,2045,2060,2046,2041,2107
2046,2047,2053,2048,2061,2044,2047,2104
2040,2044,2037,2040,2060,2039,2020,2098
2033,2035,2034,2040,2054,2036,2029,2100
2036,2042,2042,2041,2058,2043,2021,2102
2041,2052,2045,2041,2045,2047,2042,2100
2042,2050,2050,2035,2044,2055,2031,2094
2044,2052,2045,2036,2042,2054,2024,2085
2043,2054,2049,2042,2049,2058,2027,2083
2050,2054,2047,2043,2047,2065,2028,2067
2043,2051,2055,2046,2040,2067,2031,2058
2048,2055,2045,2044,2044,2067,2046,2050
2043,2050,2047,2040,2042,2072,2067,2047
2049,2052,2050,2037,2042,2065,2061,2040
2045,2049,2055,2036,2041,2059,2053,2039
2046,2057,2057,2045,2040,2052,2058,2033
2050,2054,2058,2042,2038,2051,2065,2032
2047,2056,2057,2046,2048,2058,2042,2025
2048,2054,2054,2040,2049,2064,2023,2012
2041,2044,2046,2038,2038,2046,2029,2012
2046,2041,2042,2036,2031,2043,2046,2012
2049,2053,2052,2039,2047,2047,2048,2022
2050,2053,2047,2044,2045,2053,2064,2019
2052,2049,2051,2044,2055,2054,2065,2020
2056,2050,2055,2050,2054,2058,2064,2025
2057,2054,2061,2052,2062,2049,2051,2032
2061,2059,2061,2059,2067,2047,2065,2037
2061,2061,2060,2056,2063,2046,2063,2044
2065,2056,2058,2050,2059,2033,2057,2056
2056,2060,2055,2048,2051,2033,2058,2060
2054,2059,2054,2034,2050,2041,2058,2066
2059,2052,2048,2038,2050,2049,2041,2080
2053,2052,2052,2042,2061,2063,2066,2088
2057,2048,2050,2048,2066,2070,2066,2089
2053,2050,2047,2049,2067,2065,2055,2100
2052,2052,2047,2045,2058,2054,2039,2094
2041,2034,2040,2037,2046,2045,2038,2100
2036,2037,2040,2040,2047,2050,2053,2102
2052,2052,2055,2046,2047,2056,2059,2100
2050,2056,2055,2045,2050,2057,2053,2096
2054,2053,2055,2040,2048,2055,2039,2089
2046,2055,2053,2038,2038,2058,2060,2078
2053,2052,2054,2044,2038,2066,2058,2075
2057,2044,2050,2044,2028,2053,2058,2059
2049,2040,2049,2042,2021,2044,2056,2045
2054,2045,2051,2040,2021,2047,2048,2038
2050,2045,2053,2045,2027,2052,2043,2036
2049,2045,2056,2047,2042,2054,2042,2022
2046,2049,2054,2047,2035,2051,2044,2017
2048,2043,2052,2044,2034,2055,2048,2013
2049,2052,2047,2043,2040,2051,2056,2007
2051,2048,2058,2047,2035,2047,2063,2007
2052,2045,2046,2041,2036,2043,2057,2007
2040,2037,2050,2043,2040,2041,2054,1999
2040,2044,2049,2046,2044,2053,2059,2010
2049,2054,2051,2047,2050,2049,2057,2008
2052,2056,2052,2051,2049,2049,2058,2010
2053,2056,2058,2047,2057,2050,2049,2019
2058,2054,2056,2049,2056,2046,2064,2022
2053,2060,2056,2048,2053,2051,2070,2025
2054,2060,2066,2045,2049,2052,2064,2029
2054,2062,2068,2046,2054,2050,2057,2035
2049,2065,2067,2046,2054,2048,2063,2050
2045,2061,2062,2038,2050,2039,2059,2063
2049,2054,2062,2031,2058,2038,2042,2072
2051,2052,2056,2029,2062,2040,2052,2088
2048,2057,2052,2035,2062,2040,2057,2095
2055,2060,2050,2033,2059,2040,2039,2102
2050,2044,2044,2034,2058,2046,2035,2098
2037,2032,2034,2022,2052,2036,2029,2090
2033,2033,2032,2021,2045,2036,2040,2097
2036,2043,2046,2033,2048,2044,2032,2099
2049,2044,2043,2036,2051,2041,2031,2090
2050,2050,2041,2036,2040,2040,2022,2082
2044,2051,2041,2036,2042,2045,2031,2071
2047,2056,2041,2032,2053,2048,2013,2063
2044,2051,2040,2033,2043,2053,2015,2055
2044,2040,2043,2035,2046,2054,2029,2037
2044,2037,2043,2035,2045,2058,2036,2030
2042,2038,2045,2038,2044,2059,2038,2034
2046,2037,2037,2040,2050,2057,2046,2027
2046,2035,2042,2038,2048,2049,2039,2018
2040,2036,2034,2037,2042,2041,2027,2003
2038,2035,2034,2034,2040,2046,2030,1998
2045,2037,2038,2037,2043,2050,2025,1999
2051,2042,2048,2038,2046,2054,2027,1988
2051,2038,2039,2033,2041,2053,2032,1989
2045,2033,2042,2041,2043,2055,2047,1988
2054,2042,2052,2045,2054,2056,2052,1995
2049,2045,2055,2042,2045,2059,2037,1993
2050,2043,2054,2043,2050,2052,2048,1999
2051,2049,2054,2053,2052,2054,2054,1997
2052,2055,2052,2050,2061,2056,2038,2009
2056,2053,2053,2047,2064,2059,2050,2023
2058,2051,2056,2046,2062,2057,2049,2038
2057,2053,2049,2051,2057,2052,2045,2037
2044,2040,2047,2047,2059,2053,2047,2047
2037,2043,2045,2044,2054,2048,2042,2062
2046,2039,2048,2047,2067,2052,2047,2075
2048,2046,2049,2047,2061,2055,2053,2080
2040,2038,2044,2044,2065,2056,2048,2091
2045,2038,2051,2050,2056,2051,2061,2099
2044,2038,2042,2042,2048,2044,2049,2093
2043,2027,2038,2041,2051,2044,2023,2095
2044,2025,2041,2045,2042,2044,2036,2100
2052,2050,2049,2047,2046,2038,2028,2084
2053,2060,2050,2046,2047,2039,2040,2090
2053,2053,2046,2049,2049,2044,2027,2083
2043,2053,2056,2045,2044,2055,2016,2083
2056,2050,2056,2046,2034,2053,2037,2071
2052,2045,2052,2037,2026,2045,2036,2056
2052,2050,2052,2038,2022,2049,2046,2043
2051,2055,2054,2037,2025,2050,2063,2045
2054,2052,2061,2042,2027,2056,2055,2031
2055,2060,2064,2044,2034,2052,2065,2030
2054,2061,2052,2039,2025,2047,2047,2024
2048,2061,2049,2032,2026,2052,2032,2012
2049,2054,2049,2039,2028,2050,2058,2008
2050,2054,2044,2030,2032,2047,2059,2007
2054,2046,2040,2032,2030,2042,2051,1998
2053,2043,2036,2034,2033,2050,2051,1996
2046,2053,2047,2051,2052,2065,2050,1995
2045,2063,2054,2051,2056,2060,2028,2000
2048,2060,2056,2052,2059,2047,2014,2001
2054,2060,2056,2052,2051,2046,2007,2012
2053,2068,2056,2049,2052,2049,2034,2013
2055,2069,2056,2053,2058,2056,2044,2022
2052,2065,2048,2052,2052,2058,2057,2030
2053,2062,2051,2043,2056,2060,2057,2034
2045,2064,2048,2043,2051,2056,2046,2041
2052,2061,2046,2040,2053,2058,2068,2055
2057,2057,2049,2038,2051,2057,2048,2070
2056,2057,2043,2044,2048,2055,2056,2077
2045,2054,2041,2042,2052,2058,2058,2083
2048,2058,2049,2043,2052,2060,2056,2095
2047,2053,2049,2043,2046,2056,2047,2092
2043,2040,2035,2032,2040,2045,2028,2092
2037,2036,2037,2029,2026,2037,2032,2093
2045,2049,2046,2032,2027,2039,2027,2087
2041,2050,2050,2037,2034,2045,2028,2079
2044,2054,2056,2046,2049,2043,2036,2070
2045,2058,2062,2051,2045,2048,2020,2062
