CH1,CH2,CH3,CH4,CH5,CH6,CH7,CH8
2046,2044,2039,2033,2047,2051,2048,2027
2051,2046,2054,2037,2054,2054,2055,2024
2052,2058,2067,2036,2054,2063,2042,2026
2056,2061,2071,2039,2055,2052,2040,2019
2050,2044,2058,2032,2052,2055,2050,2026
2044,2049,2045,2037,2058,2059,2037,2035
2053,2051,2048,2045,2055,2052,2043,2032
2049,2052,2055,2060,2054,2045,2060,2026
2050,2054,2059,2070,2059,2048,2065,2032
2052,2062,2054,2070,2061,2047,2064,2038
2054,2059,2057,2073,2062,2050,2064,2047
2059,2059,2056,2065,2060,2053,2065,2047
2060,2057,2045,2052,2063,2051,2060,2058
2057,2053,2037,2042,2053,2054,2060,2062
2055,2052,2036,2032,2041,2050,2066,2072
2056,2050,2032,2020,2037,2048,2068,2073
2054,2047,2027,2014,2030,2048,2053,2080
2056,2042,2028,2005,2027,2046,2058,2078
2053,2043,2017,2011,2026,2047,2043,2082
2047,2040,2014,2005,2010,2043,2029,2079
2037,2023,2006,2005,2010,2047,2020,2077
2034,2026,2008,2014,2027,2061,2039,2083
2052,2042,2025,2020,2023,2068,2048,2078
2045,2051,2028,2032,2029,2080,2055,2073
2050,2047,2022,2056,2050,2077,2048,2070
2047,2044,2021,2053,2074,2050,2038,2064
2045,2044,2030,2055,2076,2007,2045,2052
2046,2051,2051,2054,2072,2012,2041,2045
2051,2055,2076,2054,2064,2037,2055,2042
2057,2067,2084,2049,2039,2043,2059,2047
2053,2065,2089,2049,2012,2050,2060,2032
2055,2060,2075,2041,2021,2047,2052,2034
2051,2054,2069,2035,2023,2041,2036,2034
2056,2061,2073,2038,2009,2032,2035,2038
2061,2078,2085,2044,1996,2024,2045,2035
2066,2078,2083,2053,1998,2026,2030,2024
2055,2064,2070,2056,2020,2022,2022,2026
2050,2056,2058,2067,2042,2032,2058,2031
2053,2066,2073,2087,2060,2041,2063,2030
2058,2059,2067,2094,2075,2043,2054,2037
2060,2060,2058,2096,2085,2040,2056,2039
2056,2047,2039,2083,2076,2035,2031,2038
2052,2043,2033,2072,2070,2042,2031,2042
2042,2036,2020,2052,2052,2033,2036,2041
2048,2030,2015,2031,2007,2022,2061,2041
2045,2036,2016,2016,1992,2020,2047,2048
2047,2037,2009,2015,2007,2020,2057,2069
2050,2037,2009,2018,2014,2018,2050,2076
2048,2038,2018,2036,2055,2044,2052,2087
2049,2046,2039,2050,2092,2066,2064,2085
2053,2046,2045,2048,2104,2076,2053,2081
2050,2036,2046,2046,2108,2081,2061,2088
2041,2024,2028,2035,2091,2071,2059,2086
2035,2022,2026,2042,2077,2061,2066,2091
2054,2050,2049,2054,2070,2064,2085,2086
2053,2058,2063,2061,2074,2058,2074,2087
2060,2065,2066,2069,2074,2059,2065,2083
2060,2059,2054,2066,2073,2064,2068,2083
2056,2053,2044,2055,2051,2062,2068,2069
2059,2056,2042,2054,2048,2059,2065,2060
2058,2057,2039,2056,2072,2055,2073,2050
2053,2050,2031,2064,2076,2055,2083,2047
2057,2049,2027,2063,2081,2058,2073,2045
2054,2046,2032,2054,2062,2051,2073,2033
2061,2049,2036,2045,2037,2045,2071,2027
2054,2046,2040,2031,2042,2047,2063,2024
2050,2046,2021,2015,2037,2039,2052,2023
2050,2041,2009,1991,1981,2026,2054,2020
2037,2026,2002,1986,1971,2024,2036,2015
2039,2026,2011,2015,2009,2030,2059,2019
2053,2041,2028,2029,2039,2046,2073,2028
2052,2044,2032,2038,2059,2053,2070,2033
2056,2046,2024,2042,2072,2052,2074,2031
2053,2042,2025,2037,2064,2047,2068,2036
2053,2043,2017,2026,2051,2046,2061,2045
2051,2036,2021,2022,2039,2048,2054,2050
2044,2035,2026,2025,2036,2043,2040,2046
2052,2043,2038,2035,2047,2052,2071,2058
2051,2050,2044,2047,2048,2046,2061,2058
2052,2051,2046,2054,2042,2043,2058,2063
2053,2048,2042,2052,2043,2044,2057,2071
2057,2048,2039,2052,2034,2046,2064,2078
2054,2043,2040,2048,2046,2042,2060,2078
2054,2043,2038,2044,2054,2038,2049,2077
2039,2029,2027,2027,2036,2026,2037,2072
2032,2025,2021,2026,2062,2040,2043,2082
2039,2043,2037,2033,2075,2060,2044,2085
2044,2040,2043,2033,2084,2056,2054,2077
2047,2049,2046,2023,2094,2044,2048,2067
2041,2045,2041,2013,2108,2038,2035,2064
2051,2049,2039,2016,2117,2040,2045,2062
2060,2067,2060,2032,2131,2053,2053,2061
2061,2079,2069,2044,2130,2062,2039,2052
2067,2075,2065,2052,2125,2059,2048,2051
2060,2068,2054,2051,2104,2057,2047,2044
2062,2064,2051,2046,2078,2061,2052,2037
2058,2058,2045,2035,1966,2038,2060,2030
2062,2057,2027,2028,1910,2037,2032,2030
2062,2051,2026,2028,1955,2040,2051,2029
2058,2046,2022,2036,1986,2043,2046,2022
2052,2034,2011,2031,2000,2034,2032,2021
2040,2021,2004,2032,2020,2037,2037,2014
2034,2022,2017,2044,2061,2061,2044,2024
2048,2024,2021,2052,2065,2057,2035,2026
2037,2033,2030,2058,2060,2057,2037,2031
2037,2033,2026,2059,2050,2048,2051,2031
2036,2031,2021,2060,2035,2047,2054,2038
2036,2034,2017,2057,2040,2048,2055,2042
2042,2033,2011,2038,2054,2046,2020,2050
2045,2036,2006,2024,2045,2049,2029,2048
2053,2044,2023,2042,2052,2051,2064,2062
2054,2055,2049,2053,2063,2055,2066,2063
2057,2062,2057,2065,2062,2059,2082,2075
2058,2058,2077,2074,2059,2063,2068,2067
2046,2059,2087,2072,2051,2050,2061,2067
2047,2046,2082,2068,2050,2052,2061,2070
2042,2046,2069,2068,2050,2047,2066,2071
2033,2036,2058,2062,2044,2048,2052,2065
2034,2039,2051,2058,2043,2045,2053,2070
2038,2046,2048,2056,2050,2049,2057,2065
2042,2049,2045,2060,2048,2053,2067,2061
2045,2056,2041,2055,2053,2047,2062,2065
2050,2059,2032,2054,2052,2053,2059,2055
2049,2057,2026,2054,2052,2059,2065,2055
2046,2054,2017,2052,2056,2054,2061,2045
2048,2044,1996,2031,2046,2051,2065,2030
2046,2039,1985,2016,2038,2053,2064,2036
2039,2026,1978,2004,2046,2055,2065,2036
2043,2027,1984,1998,2043,2052,2066,2029
2043,2034,1996,1988,2032,2039,2062,2016
2043,2033,2001,1979,2030,2031,2052,2015
2043,2032,2020,1995,2031,2039,2044,2013
2045,2041,2039,2007,2043,2039,2050,2016
2040,2033,2037,2007,2033,2029,2051,2018
2038,2029,2020,2005,2030,2030,2054,2016
2041,2037,2027,2006,2039,2048,2067,2027
2050,2042,2042,2017,2046,2049,2071,2033
2050,2044,2047,2025,2058,2052,2066,2025
2043,2045,2059,2032,2060,2050,2066,2032
2040,2052,2073,2044,2044,2048,2060,2035
2036,2053,2085,2047,2044,2050,2073,2041
2044,2058,2100,2056,2039,2046,2062,2043
2049,2062,2107,2066,2040,2052,2067,2045
2050,2060,2100,2076,2050,2052,2061,2054
2045,2060,2115,2090,2054,2055,2070,2062
2044,2056,2122,2107,2059,2056,2068,2064
2052,2053,2115,2112,2065,2053,2056,2062
2052,2053,2106,2114,2066,2056,2036,2073
2052,2054,2091,2118,2068,2055,2055,2077
2044,2055,2091,2115,2081,2050,2036,2074
2043,2040,2078,2117,2097,2049,2028,2075
2038,2047,2089,2123,2085,2052,2047,2075
2051,2062,2096,2123,2072,2048,2050,2070
2050,2059,2081,2112,2049,2044,2037,2067
2046,2051,2062,2086,2040,2038,2006,2059
2043,2043,2047,2059,2018,2037,2027,2055
2041,2042,2043,2028,2018,2032,2014,2054
2047,2044,2042,2011,2016,2041,2014,2042
2049,2041,2031,1990,2017,2039,2021,2031
2053,2050,2025,1976,2008,2045,2054,2039
2056,2062,2037,1979,2016,2042,2044,2030
2057,2069,2063,1990,2020,2042,2039,2026
2060,2083,2082,2011,2025,2043,2035,2029
2055,2084,2110,2026,2027,2042,2031,2030
2052,2088,2120,2036,2036,2043,2025,2023
2052,2076,2113,2035,2045,2044,2041,2024
2040,2057,2081,2036,2056,2044,2042,2018
2037,2050,2068,2040,2076,2051,2029,2021
2048,2065,2069,2055,2098,2065,2042,2029
2052,2061,2058,2048,2103,2063,2043,2027
2050,2057,2049,2065,2110,2062,2037,2031
2048,2053,2037,2084,2107,2060,2053,2033
2045,2051,2025,2083,2109,2064,2052,2038
2046,2042,2001,2080,2108,2064,2050,2037
2044,2038,1988,2077,2096,2058,2062,2047
2039,2037,1981,2076,2093,2059,2053,2048
2037,2030,1979,2077,2093,2059,2066,2052
2035,2030,1980,2074,2093,2069,2059,2060
2042,2029,1965,2071,2092,2067,2067,2063
2039,2023,1967,2068,2059,2068,2069,2064
2037,2021,1973,2077,2011,2060,2032,2069
2034,2026,1988,2083,2002,2058,2034,2068
2038,2021,1993,2087,2014,2047,2036,2069
2030,2024,2002,2085,2021,2040,2022,2071
2037,2035,2025,2081,2032,2047,2050,2079
2048,2055,2046,2038,2009,2046,2046,2072
2049,2052,2064,1967,1993,2034,2037,2076
2049,2062,2082,1904,2004,2044,2013,2072
2059,2074,2097,1906,2025,2050,2049,2065
2056,2075,2108,1925,2017,2045,2030,2056
2056,2074,2123,1971,2020,2040,2043,2046
2058,2077,2121,2000,2046,2040,2050,2038
2060,2076,2113,2027,2074,2050,2055,2039
2061,2076,2103,2045,2075,2052,2045,2040
2058,2068,2085,2051,2069,2053,2034,2031
2058,2065,2072,2052,2050,2046,2048,2033
2062,2064,2054,2040,2031,2043,2043,2026
2058,2052,2041,2028,2020,2056,2027,2018
2054,2041,2033,2026,2008,2064,2027,2009
2040,2028,2019,2016,1990,2051,2022,2004
2039,2026,2022,2026,1984,2047,2013,2005
2042,2034,2032,2031,1988,2042,2034,2006
2039,2039,2036,2041,2008,2022,2026,2017
2039,2040,2041,2061,2053,2033,2047,2030
2041,2047,2047,2071,2092,2052,2053,2036
2041,2055,2057,2078,2087,2063,2056,2039
2041,2051,2054,2077,2088,2076,2051,2042
2042,2051,2052,2069,2076,2059,2061,2044
2034,2050,2044,2054,2059,2049,2054,2052
2044,2043,2050,2046,2051,2042,2057,2055
2040,2050,2065,2046,2024,2045,2062,2064
2044,2065,2091,2044,2027,2052,2056,2062
2053,2079,2109,2040,2034,2055,2050,2070
2058,2081,2101,2036,2049,2060,2043,2074
2060,2068,2078,2026,2042,2053,2045,2080
2054,2051,2057,2023,2026,2043,2042,2069
2028,2033,2034,2010,2024,2039,2033,2072
2030,2034,2035,2030,2035,2046,2042,2079
2044,2046,2049,2043,2046,2047,2059,2074
2040,2052,2054,2039,2043,2050,2074,2067
2046,2048,2053,2043,2041,2045,2039,2058
2045,2052,2050,2039,2049,2048,2054,2050
2051,2056,2044,2038,2058,2047,2046,2046
2053,2050,2043,2036,2055,2047,2043,2048
2052,2048,2037,2035,2066,2053,2045,2040
2050,2043,2034,2034,2055,2049,2041,2031
2052,2039,2032,2029,2046,2045,2041,2034
2045,2042,2032,2037,2044,2044,2044,2024
2047,2039,2036,2044,2044,2039,2052,2021
2048,2055,2053,2054,2046,2041,2038,2023
2045,2058,2078,2059,2045,2045,2032,2021
2053,2060,2079,2067,2049,2051,2015,2019
2050,2052,2056,2063,2041,2046,2008,2014
2037,2035,2039,2057,2042,2046,2028,2008
2037,2031,2027,2056,2050,2050,2032,2021
2050,2040,2026,2067,2060,2052,2040,2022
2050,2043,2034,2072,2070,2055,2050,2020
2050,2049,2027,2076,2076,2059,2040,2020
2052,2050,2025,2076,2077,2059,2045,2029
2051,2051,2020,2067,2073,2061,2039,2042
2054,2052,2024,2065,2072,2065,2051,2039
2051,2059,2021,2058,2076,2061,2041,2046
2054,2059,2028,2056,2071,2061,2062,2057
2053,2064,2025,2045,2070,2061,2061,2057
2050,2051,2028,2030,2066,2060,2061,2064
2049,2051,2029,2035,2058,2059,2040,2071
2052,2046,2032,2031,2058,2061,2057,2076
2048,2050,2037,2030,2059,2061,2048,2072
2051,2055,2045,2033,2055,2055,2040,2078
2041,2049,2055,2020,2038,2045,2024,2069
2036,2043,2063,2014,2036,2046,2039,2066
2042,2057,2081,2024,2050,2052,2057,2070
2049,2056,2076,2026,2044,2055,2034,2068
2047,2060,2069,2027,2050,2054,2047,2060
2055,2060,2065,2033,2052,2052,2048,2061
2051,2061,2061,2035,2052,2051,2044,2051
2044,2059,2056,2030,2050,2054,2046,2043
2037,2052,2050,2038,2050,2051,2052,2041
2038,2048,2051,2040,2049,2051,2060,2037
2047,2047,2046,2040,2046,2045,2056,2030
2046,2042,2046,2045,2048,2042,2067,2030
2045,2040,2044,2046,2053,2041,2059,2032
2046,2043,2050,2041,2055,2044,2050,2034
2049,2046,2056,2042,2050,2047,2066,2027
2045,2051,2064,2046,2053,2052,2061,2032
2046,2061,2069,2046,2056,2047,2064,2020
2042,2047,2070,2055,2056,2046,2055,2020
2041,2043,2067,2054,2049,2045,2064,2032
2049,2056,2076,2067,2061,2057,2061,2032
2054,2055,2077,2070,2065,2059,2068,2034
2053,2055,2072,2068,2065,2055,2078,2033
2056,2052,2061,2070,2059,2053,2077,2038
2050,2053,2059,2066,2067,2053,2061,2038
2051,2046,2054,2070,2066,2053,2065,2039
2055,2051,2047,2063,2058,2051,2071,2048
2050,2051,2044,2061,2061,2053,2079,2049
2045,2054,2044,2067,2066,2052,2067,2056
2050,2054,2039,2060,2062,2051,2061,2055
2048,2053,2038,2057,2058,2047,2068,2062
2040,2048,2035,2047,2058,2047,2060,2070
2040,2042,2029,2046,2064,2045,2065,2065
2042,2047,2034,2041,2060,2043,2050,2075
2049,2050,2025,2025,2053,2034,2039,2065
2044,2034,2027,2023,2043,2040,2039,2071
2037,2042,2031,2034,2053,2046,2062,2071
2050,2054,2050,2045,2054,2051,2044,2066
2056,2059,2049,2042,2057,2042,2037,2064
2055,2056,2041,2044,2053,2044,2043,2053
2054,2052,2042,2041,2052,2039,2034,2050
2047,2054,2045,2046,2053,2047,2041,2046
2054,2047,2047,2048,2052,2045,2040,2041
2057,2047,2049,2050,2045,2044,2047,2035
2044,2046,2043,2048,2051,2036,2034,2033
2045,2046,2037,2048,2051,2037,2043,2025
2046,2044,2029,2044,2046,2037,2047,2025
2054,2044,2027,2047,2057,2041,2046,2017
2052,2041,2025,2041,2047,2041,2041,2019
2048,2040,2031,2043,2044,2034,2041,2019
2046,2038,2029,2039,2043,2044,2042,2015
2045,2036,2017,2036,2037,2041,2030,2014
2035,2021,2013,2032,2041,2046,2030,2008
2036,2021,2014,2036,2052,2055,2048,2016
2039,2031,2027,2044,2050,2056,2035,2024
2039,2036,2039,2048,2055,2058,2046,2023
2043,2044,2055,2057,2057,2060,2064,2029
2048,2051,2069,2059,2058,2057,2039,2025
2049,2055,2063,2060,2066,2056,2061,2031
2054,2054,2061,2056,2059,2051,2046,2034
2053,2048,2056,2047,2058,2049,2047,2043
2046,2050,2053,2052,2063,2047,2041,2049
2051,2052,2065,2062,2062,2044,2047,2056
2046,2052,2068,2064,2063,2045,2034,2063
2049,2053,2065,2061,2061,2036,2038,2067
2047,2051,2060,2056,2050,2039,2061,2065
2052,2056,2056,2058,2044,2047,2058,2073
2049,2052,2052,2054,2050,2046,2036,2067
2047,2047,2044,2041,2046,2040,2029,2070
2039,2046,2044,2043,2052,2045,2032,2076
2051,2056,2052,2051,2042,2043,2038,2071
2057,2056,2051,2053,2044,2044,2035,2070
2053,2053,2042,2053,2038,2041,2045,2061
2054,2052,2053,2045,2040,2041,2040,2055
2057,2053,2065,2052,2043,2043,2053,2043
2060,2063,2065,2062,2052,2038,2041,2043
2058,2061,2067,2059,2045,2039,2024,2038
2054,2059,2062,2053,2050,2042,2024,2034
2049,2053,2056,2060,2050,2043,2004,2030
2058,2058,2052,2054,2048,2049,2022,2029
2058,2059,2050,2054,2051,2048,2044,2024
2048,2052,2050,2051,2050,2043,2051,2024
2044,2052,2051,2052,2050,2041,2044,2021
2051,2050,2046,2053,2044,2041,2037,2014
2044,2037,2039,2047,2037,2035,2022,2014
2047,2037,2044,2045,2035,2030,2025,2018
2053,2044,2051,2056,2051,2045,2055,2027
2056,2048,2049,2053,2045,2043,2059,2031
2062,2049,2050,2053,2050,2048,2034,2031
2057,2049,2047,2051,2047,2047,2043,2029
2057,2045,2049,2048,2049,2052,2068,2043
2059,2051,2049,2050,2058,2059,2059,2046
2060,2052,2054,2051,2055,2057,2056,2050
2060,2057,2052,2046,2055,2059,2046,2052
2060,2052,2053,2045,2059,2057,2042,2053
2060,2056,2052,2042,2051,2049,2057,2061
2054,2048,2052,2043,2052,2045,2043,2056
2054,2044,2053,2043,2050,2034,2025,2058
2049,2052,2050,2050,2042,2031,2034,2064
2049,2048,2058,2058,2050,2038,2018,2061
2046,2034,2049,2050,2047,2045,2024,2054
2043,2029,2052,2052,2044,2046,2019,2060
2045,2042,2073,2071,2055,2054,2026,2065
2050,2042,2073,2076,2054,2054,2042,2056
2048,2040,2072,2077,2052,2050,2035,2044
2048,2044,2069,2082,2052,2045,2022,2046
2050,2048,2068,2076,2055,2049,2016,2052
2056,2050,2064,2081,2053,2056,2037,2040
2059,2044,2050,2080,2055,2050,2056,2037
2059,2053,2050,2079,2047,2047,2043,2029
2062,2049,2044,2076,2050,2055,2075,2036
2055,2049,2032,2064,2060,2054,2064,2033
2052,2043,2021,2051,2049,2050,2048,2029
2047,2040,2011,2042,2043,2040,2037,2022
2050,2040,2014,2036,2040,2034,2027,2022
2052,2042,2012,2025,2031,2033,2037,2013
2050,2040,2005,1999,2028,2032,2020,2011
2039,2042,2006,1997,2025,2033,2027,2021
2047,2052,2017,2001,2040,2045,2061,2026
2057,2057,2027,2009,2047,2057,2060,2031
2058,2057,2033,2018,2049,2061,2048,2031
2055,2058,2030,2021,2046,2058,2047,2032
2059,2043,2029,2023,2043,2065,2058,2035
2054,2047,2040,2030,2048,2078,2055,2038
2062,2058,2061,2045,2053,2082,2066,2048
2061,2060,2073,2050,2051,2092,2042,2048
2055,2065,2073,2053,2057,2098,2062,2053
2061,2057,2067,2050,2055,2094,2057,2057
2057,2050,2061,2048,2046,2080,2070,2068
2049,2052,2054,2042,2042,2029,2048,2072
2049,2046,2050,2045,2043,2004,2031,2076
2050,2043,2049,2042,2038,2016,2035,2068
2045,2038,2041,2030,2038,2020,2049,2067
2044,2032,2041,2030,2037,2026,2066,2071
2052,2038,2043,2039,2043,2028,2053,2074
2053,2043,2043,2035,2043,2029,2044,2069
2050,2051,2046,2040,2045,2026,2031,2068
2057,2054,2044,2037,2032,2028,2027,2060
2055,2049,2044,2045,2038,2031,2040,2052
2060,2051,2040,2045,2038,2038,2043,2042
2059,2054,2044,2045,2038,2045,2053,2040
2052,2049,2046,2044,2041,2058,2043,2035
2054,2048,2046,2045,2043,2054,2033,2031
2058,2049,2046,2045,2041,2061,2057,2032
2053,2052,2047,2049,2049,2064,2047,2024
2059,2046,2047,2052,2053,2062,2031,2019
2050,2046,2049,2049,2051,2067,2024,2016
2052,2047,2044,2051,2056,2057,2022,2016
2052,2040,2038,2042,2049,2032,2023,2010
2046,2036,2037,2037,2054,2019,2023,2011
2044,2038,2038,2048,2056,2033,2028,2025
2044,2046,2046,2051,2054,2040,2045,2030
2049,2051,2043,2051,2053,2035,2022,2036
2048,2050,2043,2055,2051,2042,2049,2033
2049,2048,2042,2049,2053,2049,2067,2036
2048,2051,2039,2052,2056,2058,2042,2038
2053,2050,2038,2043,2056,2054,2034,2043
2053,2049,2044,2048,2047,2054,2042,2051
2056,2048,2042,2056,2059,2054,2057,2054
2050,2052,2041,2058,2062,2051,2044,2061
2048,2057,2039,2062,2064,2051,2050,2069
2050,2048,2037,2062,2064,2048,2053,2066
2044,2046,2038,2058,2057,2051,2048,2070
2042,2044,2037,2055,2052,2042,2054,2072
2037,2040,2033,2048,2050,2035,2036,2062
2030,2024,2026,2042,2032,2019,2037,2060
2034,2029,2031,2045,2034,2020,2037,2069
2043,2041,2041,2056,2028,2029,2039,2062
2049,2042,2040,2051,2035,2033,2044,2068
2048,2045,2045,2049,2033,2029,2045,2064
2052,2042,2038,2052,2026,2027,2052,2058
2050,2044,2034,2046,2033,2029,2059,2054
2052,2043,2039,2042,2022,2029,2065,2046
2046,2044,2032,2040,2024,2038,2054,2034
2046,2040,2033,2043,2020,2037,2031,2033
2040,2034,2036,2040,2022,2034,2056,2034
2043,2041,2036,2040,2035,2039,2045,2028
2047,2041,2046,2044,2033,2036,2051,2024
2044,2046,2050,2045,2035,2039,2063,2024
2048,2050,2048,2043,2039,2036,2060,2022
2052,2048,2049,2049,2041,2040,2062,2014
2056,2050,2052,2047,2039,2038,2053,2017
2043,2042,2040,2047,2035,2033,2041,2014
2043,2045,2042,2041,2041,2045,2062,2026
2053,2052,2048,2047,2057,2050,2071,2028
2056,2051,2042,2047,2054,2049,2072,2028
2053,2051,2046,2054,2060,2051,2071,2027
2051,2051,2042,2056,2059,2047,2057,2038
2056,2052,2049,2055,2050,2046,2053,2036
2053,2047,2045,2058,2055,2047,2061,2051
2048,2047,2047,2057,2058,2044,2056,2051
2050,2046,2040,2058,2054,2043,2060,2046
2050,2046,2048,2055,2053,2040,2053,2058
2050,2045,2048,2055,2047,2036,2043,2057
2049,2040,2049,2055,2056,2038,2043,2056
2045,2041,2050,2057,2045,2034,2054,2062
2047,2040,2053,2056,2048,2033,2052,2071
2046,2041,2050,2060,2041,2037,2046,2068
2046,2040,2045,2045,2032,2031,2026,2057
2031,2028,2041,2043,2032,2029,2021,2061
2032,2035,2043,2046,2032,2039,2037,2068
2052,2044,2052,2051,2040,2048,2045,2068
2048,2050,2055,2050,2037,2040,2040,2063
2047,2048,2059,2049,2042,2041,2042,2060
2050,2047,2048,2050,2039,2043,2049,2053
2046,2047,2046,2050,2036,2050,2044,2048
2044,2041,2044,2042,2036,2047,2039,2037
2048,2040,2039,2043,2028,2044,2050,2030
2042,2032,2036,2041,2030,2045,2047,2031
2036,2037,2030,2047,2037,2042,2054,2026
2046,2042,2033,2055,2041,2050,2048,2026
2048,2050,2041,2060,2049,2056,2038,2030
2047,2044,2037,2058,2053,2060,2027,2027
2049,2046,2036,2064,2051,2067,2045,2021
2046,2048,2042,2056,2054,2065,2047,2018
2051,2039,2031,2052,2046,2056,2040,2016
2043,2033,2024,2049,2042,2052,2049,2022
2038,2036,2030,2056,2049,2062,2074,2023
2050,2050,2037,2049,2048,2061,2067,2029
2054,2052,2038,2052,2051,2064,2059,2029
2052,2054,2039,2054,2055,2060,2066,2035
2050,2048,2041,2056,2054,2058,2051,2036
2053,2046,2039,2054,2049,2053,2052,2037
2056,2045,2036,2048,2045,2049,2040,2042
2048,2048,2033,2050,2040,2043,2056,2051
2047,2040,2034,2052,2040,2036,2042,2057
2046,2043,2043,2051,2047,2036,2021,2058
2048,2046,2035,2054,2044,2045,2044,2061
2046,2037,2035,2055,2042,2051,2058,2064
2043,2042,2036,2058,2047,2048,2052,2073
2048,2047,2038,2057,2043,2050,2033,2072
2042,2039,2034,2054,2048,2052,2034,2069
2035,2026,2022,2046,2037,2051,2040,2064
2033,2025,2023,2046,2029,2047,2026,2074
2044,2035,2029,2052,2042,2042,2035,2070
2047,2042,2032,2056,2040,2041,2031,2060
2043,2049,2035,2047,2039,2046,2050,2056
2037,2039,2037,2056,2034,2038,2043,2052
2040,2043,2036,2052,2037,2038,2033,2052
2046,2044,2034,2055,2029,2038,2028,2040
2048,2043,2038,2052,2033,2038,2031,2034
2049,2042,2036,2042,2029,2025,2033,2033
2045,2040,2032,2044,2020,2023,2030,2033
2044,2041,2038,2038,2014,2026,2040,2029
2043,2039,2034,2042,2007,2029,2024,2024
2039,2036,2037,2036,2010,2025,2026,2018
2035,2030,2026,2036,2016,2041,2014,2009
2037,2031,2028,2046,2055,2060,2045,2020
2037,2039,2032,2048,2061,2053,2043,2014
2034,2028,2029,2051,2054,2049,2036,2014
2039,2027,2034,2053,2054,2056,2061,2019
2041,2040,2038,2054,2061,2047,2051,2023
2046,2040,2042,2058,2055,2045,2058,2023
2050,2042,2043,2055,2054,2050,2060,2030
2045,2040,2042,2060,2048,2050,2063,2036
2044,2041,2040,2055,2048,2048,2052,2039
2047,2045,2040,2053,2046,2047,2062,2049
2048,2040,2042,2058,2044,2041,2062,2051
2053,2049,2042,2054,2047,2047,2058,2058
2048,2049,2045,2059,2042,2043,2036,2061
2056,2045,2047,2052,2047,2046,2045,2070
2049,2043,2041,2052,2053,2044,2060,2075
2053,2044,2047,2049,2044,2050,2056,2082
2051,2044,2050,2050,2047,2056,2050,2083
2050,2044,2041,2052,2043,2066,2045,2072
2039,2032,2034,2039,2040,2075,2029,2078
2042,2027,2036,2038,2046,2091,2041,2083
2044,2041,2044,2048,2049,2113,2065,2081
2052,2042,2046,2050,2046,2116,2076,2077
2048,2049,2042,2049,2049,2113,2063,2079
2048,2049,2044,2043,2046,2101,2059,2070
2052,2047,2048,2040,2038,2100,2069,2058
2047,2050,2042,2039,2039,2100,2064,2053
2054,2051,2039,2038,2042,2086,2056,2045
2050,2052,2042,2045,2042,2066,2040,2044
2048,2048,2043,2044,2031,2043,2044,2038
2055,2051,2040,2047,2042,2012,2052,2036
2050,2043,2039,2045,2049,1968,2041,2038
2054,2046,2044,2051,2056,1966,2061,2029
2050,2044,2042,2048,2057,1983,2060,2030
2054,2048,2034,2052,2055,2003,2031,2029
2051,2043,2028,2047,2041,2008,2011,2019
2043,2032,2023,2046,2037,2018,1993,2027
2044,2032,2031,2048,2041,2036,2040,2029
2050,2044,2037,2047,2037,2055,2028,2032
2046,2043,2038,2052,2039,2068,2056,2030
2051,2044,2038,2051,2044,2065,2059,2030
2047,2043,2041,2052,2043,2061,2050,2033
2055,2045,2048,2051,2042,2053,2064,2029
2052,2043,2052,2055,2053,2054,2057,2040
2050,2048,2056,2054,2051,2058,2063,2052
2047,2044,2059,2057,2053,2060,2073,2063
2045,2045,2054,2050,2047,2060,2076,2064
2048,2042,2053,2051,2049,2053,2047,2074
2043,2041,2055,2049,2046,2042,2062,2081
2047,2046,2055,2049,2042,2044,2078,2078
2036,2048,2057,2050,2047,2050,2064,2086
2042,2052,2053,2045,2047,2057,2073,2082
2040,2042,2044,2044,2031,2048,2072,2082
2036,2028,2038,2049,2028,2048,2051,2084
2043,2040,2043,2051,2027,2053,2070,2078
2045,2045,2045,2050,2034,2049,2064,2075
2042,2042,2043,2044,2026,2052,2066,2070
2040,2044,2042,2044,2026,2052,2056,2069
2047,2043,2040,2033,2027,2054,2057,2059
2045,2039,2043,2036,2041,2057,2052,2053
2044,2050,2047,2048,2036,2046,2042,2047
2052,2045,2047,2040,1994,2031,2048,2042
2046,2053,2045,2032,1969,2010,2029,2038
2045,2046,2043,2028,1954,1998,2012,2029
2045,2041,2039,2014,1946,1990,1996,2022
2041,2039,2036,2015,1968,2004,1999,2025
2042,2048,2047,2045,2026,2035,2030,2025
2049,2050,2049,2050,2056,2040,2025,2026
2047,2049,2050,2050,2068,2045,2033,2026
2036,2042,2046,2051,2072,2051,2026,2021
2038,2033,2041,2044,2077,2059,2033,2028
2042,2047,2052,2046,2074,2075,2036,2030
2044,2048,2048,2049,2079,2082,2060,2033
2052,2058,2053,2058,2068,2082,2052,2046
2059,2057,2053,2050,2048,2070,2049,2055
2062,2051,2051,2039,2031,2061,2041,2052
2058,2052,2051,2034,2066,2044,2036,2050
2055,2053,2049,2034,2083,2052,2039,2060
2054,2049,2052,2050,2139,2070,2042,2067
2059,2058,2062,2065,2173,2080,2059,2076
2057,2058,2062,2073,2204,2081,2044,2088
2059,2059,2059,2074,2190,2080,2057,2090
2056,2052,2059,2072,2181,2056,2058,2090
2049,2047,2049,2055,2150,2050,2064,2092
2039,2041,2039,2054,2106,2040,2044,2085
2029,2025,2034,2033,2030,2042,2040,2074
2029,2019,2029,2015,1890,2042,2031,2068
2034,2027,2035,2016,1885,2054,2038,2064
2044,2040,2042,2027,1939,2082,2041,2068
2042,2043,2042,2034,1977,2095,2044,2051
2045,2041,2044,2037,1998,2054,2040,2049
2040,2039,2042,2024,1957,2013,2026,2045
2041,2046,2045,2027,1999,2009,2017,2032
2043,2042,2046,2042,2049,2019,2032,2044
2041,2048,2046,2061,2116,2026,2006,2039
2045,2054,2046,2074,2185,2032,2009,2043
2053,2052,2047,2070,2185,2037,2036,2039
2048,2049,2042,2059,2126,2026,2018,2024
2048,2051,2040,2036,2036,2020,2035,2028
2047,2057,2041,2034,2049,2036,2007,2027
2051,2056,2044,2034,2025,2031,2030,2017
2045,2050,2045,2021,1996,2028,2031,2015
2036,2038,2035,2025,1981,2019,2025,2014
2037,2040,2040,2026,1989,2048,2046,2022
2050,2053,2050,2034,2010,2084,2062,2026
2052,2058,2056,2043,2020,2110,2067,2032
2045,2057,2049,2037,2010,2128,2074,2021
2042,2050,2045,2038,2017,2143,2052,2015
2042,2041,2046,2033,2019,2141,2032,2024
2039,2048,2055,2049,2059,2116,2048,2017
2036,2042,2051,2050,2099,2038,2041,2026
2029,2041,2051,2059,2107,2009,2040,2027
2027,2042,2044,2052,2090,2022,2035,2024
2032,2038,2043,2042,2063,2020,2024,2028
2027,2032,2030,2031,2030,2010,2019,2020
2018,2029,2017,2019,2064,2014,2021,2015
2013,2023,2016,2036,2141,2040,2019,2014
2011,2019,2010,2051,2122,2052,2028,2002
1990,1994,1995,2009,1997,2026,2025,2003
1986,1990,1999,2002,2015,2013,2045,2023
2017,2020,2026,2023,2079,2037,2044,2049
2032,2032,2035,2043,2120,2073,2042,2072
2046,2048,2045,2042,2102,2073,2051,2090
2063,2060,2052,2047,2084,2068,2064,2089
2067,2068,2054,2036,2027,2046,2035,2076
2066,2070,2044,2001,1931,2063,2027,2070
2068,2069,2038,1997,1991,2098,2041,2056
2065,2068,2029,1996,2035,2114,2033,2039
2053,2050,2024,1983,1960,2111,2024,2013
2035,2039,2027,1990,1948,2099,2037,2002
2021,2029,2030,1995,1957,2052,2035,2007
2035,2038,2048,2010,1930,2025,2052,2018
2048,2061,2083,2012,1912,2051,2059,2030
2064,2080,2097,2026,1903,2040,2050,2027
2055,2069,2086,2011,1885,1994,2036,2015
2054,2056,2064,2010,1848,2015,2035,2016
2068,2070,2064,2018,1886,2066,2066,2032
2069,2075,2064,2012,1869,2060,2049,2044
2064,2063,2047,2005,1918,2034,2048,2052
2065,2054,2042,2040,2179,2052,2056,2054
2065,2044,2037,2066,2330,2090,2060,2042
2043,2034,2029,2074,2287,2096,2034,2017
2041,2033,2030,2084,2227,2087,2056,2022
2044,2049,2040,2080,2145,2045,2040,2036
2045,2050,2033,2064,2069,2044,2028,2037
2035,2042,2028,2053,2033,2042,2035,2033
2020,2023,2009,2038,2009,2053,2026,2034
2013,2022,1994,2029,2008,2061,2040,2050
2022,2011,1996,2028,2004,2043,2051,2052
2028,2020,2004,2034,2020,2043,2039,2056
2025,2022,2018,2042,1990,2055,2034,2042
2021,2012,2023,2044,1956,2044,2015,2036
2015,2014,2025,2036,1941,2042,1999,2041
2029,2023,2034,2037,1951,2012,2026,2050
2035,2027,2044,2050,2005,1996,2054,2066
2047,2039,2068,2077,2073,2000,2058,2071
2051,2045,2072,2085,2113,2036,2073,2062
2057,2043,2073,2061,2101,2066,2081,2054
2043,2038,2063,2044,2092,2097,2056,2034
2032,2040,2068,2032,2120,2109,2056,2025
2038,2056,2096,2047,2152,2135,2053,2022
2034,2068,2114,2047,2176,2159,2067,2015
2049,2064,2114,2041,2141,2154,2035,2027
2055,2071,2103,2042,2104,2128,2053,2031
2058,2067,2097,2034,2061,2099,2052,2025
2058,2064,2087,2018,2024,2069,2049,2023
2058,2061,2081,2029,2020,2025,2042,2023
2053,2054,2074,2047,1999,1983,2042,2026
2050,2048,2054,2031,2038,1948,2028,2018
2059,2049,2056,2044,2049,1919,2053,2032
2058,2057,2064,2086,2165,1966,2060,2040
2060,2064,2072,2134,2323,2025,2080,2051
2066,2064,2080,2137,2306,2058,2092,2054
2067,2070,2079,2121,2258,2101,2065,2051
2064,2064,2075,2109,2244,2112,2067,2048
2066,2068,2084,2089,2174,2064,2054,2055
2056,2067,2084,2042,2028,2026,2039,2051
2053,2065,2080,2028,1984,2012,2024,2057
2052,2064,2081,2003,1869,2007,2019,2068
2054,2065,2066,1990,1848,2024,2023,2076
2056,2058,2053,1996,1932,2045,2020,2085
2058,2060,2046,2002,1957,2034,2040,2086
2059,2049,2039,2006,1975,2004,2061,2087
2042,2035,2012,1986,2012,2005,2034,2081
2043,2028,1999,1992,2031,2026,2049,2082
2043,2041,2007,2016,2045,2059,2083,2081
2047,2048,2008,2021,2023,2075,2076,2075
2051,2052,2013,2026,2016,2089,2079,2071
2059,2054,2010,2026,2045,2092,2082,2069
2064,2059,2011,2037,2100,2093,2092,2057
2057,2059,2012,2043,2135,2118,2106,2056
2054,2054,2006,2035,2155,2124,2113,2046
2053,2044,1999,2029,2142,2107,2098,2037
2049,2039,2000,2011,2078,2106,2072,2024
2036,2030,1989,1984,2073,2100,2050,2007
2023,2025,1988,1959,2062,2082,2017,1990
2020,2026,1989,1949,1993,2063,2009,1976
2029,2030,2001,1964,1954,2056,2012,1992
2041,2037,2011,1982,1900,2042,2026,2017
2050,2049,2026,2013,1951,2020,2035,2042
2066,2056,2050,2046,2029,1993,2041,2049
2071,2056,2055,2057,2050,1986,2042,2049
2066,2064,2058,2048,2029,1992,2034,2034
2059,2060,2060,2037,1998,2002,2041,2028
2058,2061,2072,2041,2028,2022,2041,2028
2054,2060,2098,2067,2092,2061,2049,2027
2051,2062,2113,2069,2082,2089,2034,2029
2051,2066,2106,2057,1999,2060,2010,2032
2049,2070,2093,2041,1924,2028,2009,2025
2043,2068,2072,2022,1862,1996,2000,2029
2035,2052,2048,2004,1815,1931,1996,2030
2028,2044,2040,2017,1877,1922,2029,2046
2034,2049,2048,2053,2020,1977,2046,2054
2034,2046,2044,2067,2096,2037,2054,2049
2036,2037,2045,2077,2153,2105,2060,2052
2031,2038,2045,2068,2089,2117,2054,2031
2017,2021,2039,2024,1997,2070,2026,2038
2016,2026,2043,2012,1989,2051,2011,2053
2030,2038,2062,2002,1958,2033,2004,2046
2028,2036,2050,1995,1956,1985,1998,2049
2041,2041,2061,2026,2021,1971,2008,2050
2037,2043,2060,2052,2103,2000,2034,2047
2041,2046,2056,2051,2113,2022,2044,2034
2039,2048,2042,2049,2132,2069,2081,2039
2047,2051,2048,2079,2189,2110,2094,2037
2058,2047,2045,2092,2249,2136,2097,2031
2052,2042,2040,2092,2252,2143,2080,2023
2048,2041,2034,2092,2245,2151,2102,2018
2044,2039,2021,2100,2259,2142,2078,2022
2051,2039,2022,2100,2217,2082,2035,2026
2047,2038,2023,2088,2156,2041,2007,2017
2048,2037,2018,2060,2093,2014,2026,2002
2039,2032,2004,2037,2078,2006,2011,1988
2024,2024,1997,2016,1953,1998,2019,1990
2026,2030,2006,2011,1872,2019,2019,1999
2040,2048,2036,2055,1996,2053,2041,2012
2048,2065,2062,2069,2086,2090,2044,2015
2053,2065,2047,2045,2142,2106,2034,2011
2048,2051,2036,2030,2165,2115,2052,2013
2051,2054,2044,2046,2170,2121,2064,2020
2054,2063,2060,2055,2148,2071,2073,2019
2047,2057,2057,2037,2118,2036,2050,2024
2045,2059,2057,2038,2110,2054,2052,2030
2056,2064,2064,2051,2147,2081,2038,2049
2052,2062,2060,2048,2140,2082,2040,2053
2040,2051,2049,2043,2097,2081,2042,2053
2042,2046,2054,2047,2073,2090,2058,2059
2031,2043,2048,2026,1957,2076,2050,2053
2032,2041,2040,1998,1863,2040,2037,2057
2022,2030,2034,1987,1882,2024,2027,2059
2024,2034,2035,1978,1927,2018,2014,2063
2038,2053,2061,2015,2017,2048,2036,2067
2053,2069,2085,2074,2124,2084,2056,2070
2057,2069,2084,2079,2170,2092,2056,2048
2046,2065,2073,2064,2127,2070,2050,2035
2037,2048,2053,2040,2058,2031,2045,2021
2030,2046,2045,2029,2022,2016,2043,2007
2037,2044,2052,2052,2038,2031,2047,2010
2036,2048,2059,2072,2062,2022,2045,2006
2035,2049,2062,2084,2107,2026,2026,1998
2039,2049,2059,2076,2123,2020,2006,1997
2037,2047,2057,2064,2055,2004,1995,1995
2037,2052,2046,2053,2008,1979,2008,1986
2036,2037,2028,2044,2052,1975,2026,1974
2029,2030,2020,2046,2060,1989,2048,1971
2016,2013,2015,2043,2055,1990,2057,1975
2024,2028,2024,2062,2082,2013,2044,1994
2045,2043,2042,2079,2088,2019,2062,2007
2047,2046,2040,2066,1979,2032,2067,2016
2051,2042,2047,2074,2019,2074,2068,2025
2059,2047,2049,2077,2080,2101,2070,2025
2051,2050,2056,2079,2099,2117,2074,2025
2045,2043,2066,2092,2078,2091,2054,2012
2045,2043,2083,2101,2068,2070,2054,2011
2044,2049,2089,2115,2130,2080,2073,2025
2051,2046,2091,2126,2198,2102,2046,2029
2045,2043,2078,2111,2137,2098,2032,2032
2047,2039,2061,2078,2040,2070,2046,2043
2049,2038,2058,2072,2108,2056,2039,2046
2053,2041,2057,2083,2110,2046,2049,2062
2059,2039,2049,2069,1967,2031,2041,2052
2054,2038,2033,2069,1990,2039,2034,2054
2047,2033,2030,2063,2033,2059,2041,2045
2038,2027,2020,2047,1952,2061,2044,2046
2045,2037,2015,2049,1960,2066,2061,2053
2046,2039,2022,2057,2018,2062,2051,2049
2050,2043,2021,2037,2016,2049,2047,2043
2037,2033,2003,1989,2015,2031,2057,2030
2034,2027,2000,1968,2050,2032,2044,2028
2037,2030,2008,1966,2044,2040,2021,2022
2042,2034,2036,1969,2038,2047,2018,2025
2053,2043,2051,1985,2043,2050,2023,2018
2056,2049,2051,1991,2015,2051,2055,2022
2054,2048,2043,2001,1976,2052,2055,2018
2054,2046,2039,2001,1916,2043,2047,2008
2051,2036,2033,2006,1929,2040,2043,2001
2051,2036,2033,2022,1970,2047,2050,2005
2043,2034,2042,2053,2108,2054,2037,2006
2035,2029,2036,2062,2133,2021,2023,1990
2034,2030,2037,2050,2103,2011,2027,2000
2047,2032,2039,2066,2156,2034,2026,1992
2042,2033,2034,2092,2216,2046,2045,2002
2047,2037,2036,2100,2258,2040,2031,2012
2052,2038,2044,2092,2198,2017,2049,2014
2045,2043,2040,2056,2057,1982,2034,2007
2040,2034,2035,2032,2020,1987,2006,2011
2033,2030,2037,2018,1964,2007,2043,2014
2039,2039,2045,1997,1901,2036,2071,2035
2056,2048,2055,2015,2006,2107,2056,2056
2067,2061,2063,2049,2094,2163,2073,2072
2065,2071,2073,2073,2164,2217,2084,2068
2060,2068,2069,2079,2205,2257,2097,2065
2049,2062,2077,2075,2188,2297,2092,2065
2055,2062,2086,2080,2202,2337,2085,2069
2061,2056,2084,2075,2185,2342,2080,2066
2054,2053,2075,2055,2144,2215,2070,2068
2055,2058,2076,2042,2058,2009,2048,2064
2047,2053,2069,2044,2024,1920,2039,2058
2053,2053,2072,2033,1945,1938,2036,2049
2053,2054,2066,2029,1884,1935,2018,2052
2052,2053,2061,2050,1959,1967,2049,2047
2056,2059,2071,2066,2031,2016,2047,2047
2061,2057,2081,2077,2068,2048,2055,2040
2059,2057,2070,2081,2109,2083,2063,2033
2060,2056,2070,2086,2133,2097,2074,2027
2054,2059,2062,2080,2155,2093,2073,2020
2042,2051,2048,2065,2145,2058,2037,2003
2044,2048,2038,2044,2077,2025,2031,1992
2041,2052,2040,2032,1982,2004,2031,1988
2042,2057,2046,2021,1944,2006,2022,1983
2040,2055,2039,2015,1954,1988,2024,1996
2039,2053,2044,2011,1935,1980,1999,1994
2047,2062,2057,2017,1978,1998,2015,1997
2045,2050,2043,2030,2050,2038,2034,1998
2042,2045,2048,2050,2144,2080,2062,2000
2052,2049,2048,2064,2204,2093,2065,2006
2049,2039,2047,2075,2208,2087,2051,2009
2051,2040,2047,2073,2154,2061,2052,2004
2046,2040,2040,2051,2106,2017,2043,2005
2036,2038,2048,2055,2109,1996,2012,2015
2036,2037,2052,2061,2114,2019,2017,2022
2042,2044,2059,2066,2125,2045,2038,2035
2050,2055,2066,2072,2072,2040,2042,2052
2053,2055,2069,2066,2014,2022,2032,2054
2047,2047,2068,2065,2010,2013,2028,2061
2042,2046,2070,2060,1942,2031,2037,2049
2031,2033,2054,2045,1955,2052,2024,2046
2026,2028,2051,2034,1932,2056,2041,2051
2030,2039,2060,2048,1918,2052,2033,2051
2034,2039,2055,2061,2002,2042,2024,2056
2035,2035,2054,2073,2055,2056,2018,2043
2028,2024,2049,2051,1996,2045,2016,2038
2032,2032,2061,2069,2133,2063,2037,2036
2056,2052,2090,2099,2300,2080,2044,2027
2059,2067,2099,2118,2326,2070,2042,2021
2056,2062,2101,2146,2306,2099,2045,2013
2052,2069,2109,2165,2228,2106,2047,2006
2050,2074,2104,2128,1934,2085,2043,2004
2053,2070,2094,2106,1957,2088,2045,2003
2045,2059,2094,2100,2052,2079,2046,1998
2042,2046,2090,2102,2125,2041,2040,1986
2031,2034,2080,2084,2113,2014,2010,1978
2022,2023,2062,2057,2059,1974,1996,1984
2021,2022,2064,2047,2011,1970,2023,1983
2039,2046,2068,2049,2002,2022,2031,1991
2037,2043,2053,2036,1943,2047,2050,2005
2037,2038,2036,2023,1953,2069,2058,2008
2039,2026,2013,2020,1997,2080,2053,2007
2038,2023,1996,2027,2046,2064,2061,2018
2038,2032,2005,2046,2052,2008,2049,2030
2052,2040,2007,2050,2020,2019,2026,2033
2050,2036,2000,2028,1993,2052,2051,2043
2042,2031,1991,1992,1920,2041,2041,2045
2030,2006,1969,1957,1914,2020,2038,2054
2033,2008,1975,1987,2045,2047,2024,2061
2042,2024,1998,1998,2081,2067,2043,2070
2054,2037,2007,2019,2114,2086,2055,2080
2065,2039,1995,2021,2126,2078,2032,2074
2046,2024,1968,1997,2058,2059,2001,2067
2046,2007,1966,1970,1992,2036,2019,2063
2034,2011,1979,1982,1955,2013,2032,2067
2030,2021,1993,2003,1990,2025,2023,2060
2031,2036,2005,2035,1996,2055,2034,2055
2039,2046,2031,2071,2092,2091,2048,2042
2044,2058,2050,2103,2165,2144,2044,2028
2042,2053,2061,2109,2156,2178,2054,2023
2041,2051,2062,2116,2154,2168,2067,2024
2038,2038,2050,2097,2112,2113,2071,2021
2034,2029,2045,2085,2127,2055,2065,2025
2042,2037,2058,2097,2146,1979,2046,2039
2046,2046,2074,2100,2131,1940,2054,2032
2046,2040,2071,2080,2074,1929,2044,2029
2038,2046,2068,2081,2068,1977,2056,2005
2032,2051,2066,2089,2054,2012,2031,1973
2018,2043,2065,2070,2038,2048,2019,1973
2019,2056,2084,2084,2067,2081,2042,2000
2040,2067,2092,2087,2073,2094,2043,2000
2038,2057,2079,2055,2030,2071,2041,2004
2022,2038,2057,2014,1979,2014,2038,2011
2032,2041,2051,2003,2038,1999,2042,2031
2044,2053,2062,2012,2061,2026,2068,2037
2053,2045,2052,1993,2060,2068,2075,2044
2044,2033,2043,1988,2080,2105,2087,2047
2046,2048,2063,2025,2082,2125,2086,2073
2071,2079,2100,2064,2068,2111,2113,2087
2074,2085,2112,2071,2092,2080,2078,2086
2073,2088,2112,2074,2177,2064,2072,2081
2068,2080,2100,2077,2227,2052,2051,2060
2050,2062,2076,2051,2204,2037,2059,2071
2054,2050,2061,2043,2254,2036,2054,2067
2050,2043,2043,2038,2265,2047,2036,2053
2029,2039,2022,2018,2131,2031,2035,2043
2020,2035,2016,2028,1982,2015,2023,2039
2023,2034,2026,2065,2003,2042,2033,2041
2030,2047,2047,2085,1978,2058,2060,2049
2039,2062,2062,2080,2008,2047,2066,2037
2039,2064,2067,2070,2012,2022,2065,2035
2032,2057,2053,2057,2056,2016,2048,2027
2035,2049,2031,2016,2055,2018,2051,2018
2037,2037,2013,2007,2005,2031,2043,2013
2036,2029,2012,2007,2021,2027,2055,2011
2031,2029,2017,2002,1903,2011,2046,2015
2026,2039,2023,2009,1923,2029,2044,2018
2031,2050,2034,2034,2006,2052,2050,2021
2044,2070,2052,2041,2031,2064,2064,2019
2046,2061,2053,2049,2072,2085,2049,2011
2037,2052,2051,2059,2129,2088,2049,2006
2030,2035,2030,2044,2077,2068,2045,2014
2034,2035,2031,2027,2061,2093,2067,2014
2037,2043,2043,2026,2088,2109,2065,2019
2046,2050,2063,2029,2063,2088,2088,2024
2046,2064,2094,2032,2037,2070,2077,2026
2038,2066,2106,2062,2098,2082,2069,2027
2041,2060,2097,2085,2115,2113,2081,2045
2050,2063,2082,2109,2145,2120,2068,2039
2043,2052,2055,2114,2130,2113,2062,2047
2049,2054,2054,2124,2146,2039,2061,2060
2044,2050,2054,2118,2111,1989,2043,2062
2044,2036,2052,2108,2078,2002,2029,2067
2033,2036,2059,2102,2060,2037,2060,2065
2036,2046,2061,2092,2016,2041,2051,2070
2046,2064,2069,2082,1979,2014,2044,2067
2037,2045,2061,2061,1898,1975,2033,2067
2024,2042,2058,2051,1817,1983,2038,2069
2034,2052,2068,2063,1833,2028,2063,2060
2037,2058,2081,2074,1899,2050,2068,2061
2041,2062,2092,2082,1982,2035,2056,2068
2036,2062,2106,2081,2027,2012,2040,2066
2038,2061,2100,2068,2085,2020,2044,2055
2041,2065,2096,2089,2102,2058,2066,2045
2038,2066,2086,2117,2176,2096,2073,2031
2035,2052,2054,2105,2211,2103,2076,2027
2028,2040,2030,2071,2183,2098,2054,2022
2030,2039,2026,2066,2162,2080,2064,2024
2030,2036,2017,2063,2143,2063,2060,2022
2036,2047,2008,2066,2135,2054,2062,2019
2044,2054,2001,2052,2122,2067,2053,2014
2045,2045,1987,2039,2080,2067,2073,2005
2040,2036,1972,2044,2065,2058,2057,2005
2033,2033,1977,2053,2051,2049,2060,2010
2034,2039,2001,2058,2046,2048,2053,2015
2039,2048,1999,2039,2044,2044,2031,2020
2039,2043,1996,2038,2051,2062,2070,2011
2040,2045,2010,2059,2041,2085,2071,2010
2039,2041,2069,2089,2021,2097,2056,2011
2033,2040,2112,2126,2048,2097,2060,2008
2024,2038,2150,2144,2050,2072,2054,2017
2024,2028,2149,2146,2022,2010,2048,2034
2027,2022,2135,2152,2051,1994,2058,2042
2039,2040,2146,2176,2142,2042,2075,2065
2044,2055,2152,2195,2189,2068,2055,2071
2037,2052,2152,2189,2135,2061,2052,2059
2025,2048,2138,2174,2085,2044,2036,2058
2023,2056,2117,2156,2080,2008,2032,2062
2026,2058,2112,2137,2059,2004,2049,2071
2028,2050,2092,2102,2037,2003,2028,2070
2041,2069,2079,2078,2045,2016,2061,2091
2049,2082,2078,2051,2076,2037,2065,2100
2053,2070,2035,1990,2073,2036,2049,2080
2027,2031,1983,1928,2084,2030,2028,2065
2024,2030,1979,1915,2113,2026,2026,2065
2033,2050,2006,1906,2122,2037,2045,2066
2051,2074,2024,1902,2129,2056,2074,2070
2065,2088,2019,1904,2134,2064,2075,2074
2074,2088,2005,1920,2132,2067,2076,2066
2069,2076,2003,1957,2139,2075,2077,2055
2062,2066,2000,1981,2110,2070,2071,2049
2054,2063,1994,1961,1929,2042,2058,2041
2053,2063,1981,1979,1910,2025,2043,2039
2050,2063,1978,2020,1999,2032,2047,2036
2052,2061,1979,2059,2044,2025,2051,2038
2049,2049,1964,2072,2066,2036,2051,2024
2036,2037,1982,2092,2081,2054,2052,2030
2037,2036,2019,2099,2076,2054,2081,2032
2044,2038,2040,2087,2072,2056,2087,2027
2047,2038,2046,2077,2065,2059,2075,2033
2046,2034,2046,2087,2062,2043,2069,2032
2038,2025,2044,2089,2061,2040,2063,2042
2033,2029,2052,2093,2051,2036,2066,2046
2044,2037,2056,2086,2047,2044,2055,2050
2044,2030,2053,2084,2053,2054,2067,2054
2042,2033,2043,2068,2035,2067,2073,2054
2040,2029,2039,2033,1998,2069,2076,2065
2042,2015,2042,2013,1965,2061,2067,2083
2058,2033,2082,2014,1961,2056,2057,2087
2066,2054,2089,2014,1966,2020,2051,2082
2064,2043,2064,2000,2002,1977,2030,2069
2046,2031,2039,1983,2056,2009,2037,2056
2030,2032,2032,1967,2052,2041,2073,2088
2054,2055,2042,1962,2074,2065,2061,2104
2070,2076,2068,1992,2091,2080,2077,2084
2057,2089,2088,2006,2091,2066,2059,2054
2025,2081,2081,2016,2069,2035,2037,2043
2029,2060,2065,2029,2065,2013,2026,2025
2018,2058,2064,2046,2055,2005,2022,2033
2041,2062,2076,2049,2062,2016,2037,2038
2053,2078,2094,2072,2101,2036,2045,2041
2056,2084,2104,2087,2139,2046,2050,2047
2062,2091,2105,2088,2139,2053,2055,2041
2063,2085,2094,2085,2151,2063,2058,2041
2054,2078,2102,2099,2184,2070,2073,2029
2050,2086,2112,2101,2179,2085,2072,2027
2056,2091,2111,2096,2155,2075,2060,2027
2049,2082,2092,2081,2076,2018,2025,2032
2050,2076,2081,2029,1889,1998,2014,2040
2064,2082,2080,2023,1901,2007,2032,2047
2071,2094,2095,2026,1887,2014,2043,2050
2072,2090,2058,1999,1829,2011,2045,2047
2054,2061,2023,2000,1885,1997,2042,2034
2038,2044,2014,2016,1954,2004,2049,2031
2026,2027,2017,2061,2075,2041,2065,2040
2033,2026,2011,2085,2134,2080,2063,2043
2037,2032,2018,2092,2161,2078,2066,2053
2038,2030,1996,2084,2155,2072,2025,2059
2030,2013,1968,2075,2132,2066,2040,2066
2032,2010,1942,2071,2101,2066,2049,2077
2039,2020,1939,2058,2066,2065,2062,2080
2051,2028,1929,2049,2029,2035,2036,2071
2043,2016,1909,2036,2020,2023,2029,2065
2030,2000,1897,2046,2055,2044,2032,2056
2024,2009,1907,2063,2088,2063,2039,2068
2030,2018,1917,2070,2085,2064,2052,2070
2039,2018,1944,2070,2064,2056,2039,2077
2037,2024,1977,2068,2052,2051,2033,2073
2044,2041,2021,2074,2050,2049,2040,2060
2050,2059,2066,2080,2049,2027,2036,2049
2052,2077,2096,2100,2057,2018,2029,2046
2058,2078,2116,2121,2072,2028,2036,2041
2052,2076,2135,2144,2074,2032,2030,2045
2051,2074,2144,2171,2066,2033,2050,2046
2061,2072,2155,2190,2075,2041,2029,2044
2063,2083,2147,2205,2102,2066,2034,2042
2059,2090,2148,2212,2135,2085,2048,2035
2060,2088,2133,2210,2124,2092,2039,2042
2064,2083,2102,2202,2107,2080,2057,2028
2060,2063,2083,2197,2085,2059,2041,2035
2055,2067,2077,2184,2080,2053,2049,2033
2057,2060,2064,2133,2055,2025,2030,2031
2044,2057,2055,2076,2062,2012,2040,2036
2059,2065,2060,2010,2041,2006,2035,2027
2058,2066,2063,1932,1951,1995,2021,2023
2054,2052,2063,1919,2002,2018,2047,2027
2045,2052,2064,1944,2073,2057,2053,2042
2041,2047,2068,1974,2096,2068,2059,2052
2033,2045,2068,1966,2048,2053,2052,2055
2038,2050,2073,1960,1990,2036,2042,2060
2028,2044,2069,1967,1946,2017,2045,2070
2028,2044,2075,1964,1967,2002,2022,2069
2030,2048,2065,1970,1973,1997,2022,2069
2030,2047,2058,1983,1949,2003,2045,2070
2036,2051,2069,2009,2003,2024,2043,2071
2035,2060,2088,2052,2076,2052,2064,2076
2047,2069,2090,2076,2077,2070,2065,2081
2048,2065,2087,2072,2046,2089,2061,2074
2047,2048,2069,2068,2048,2092,2058,2070
2045,2046,2072,2073,2106,2081,2049,2065
2050,2060,2085,2078,2104,2063,2027,2063
2052,2068,2076,2078,2147,2045,2045,2060
2052,2060,2066,2113,2244,2060,2074,2064
2059,2062,2056,2134,2230,2078,2082,2062
2051,2056,2053,2128,2147,2060,2068,2046
2055,2065,2068,2126,2055,2027,2064,2037
2056,2068,2058,2101,1886,2006,2061,2043
2051,2064,2046,2085,1910,2016,2049,2035
2056,2055,2069,2093,2000,2030,2039,2029
2049,2052,2087,2096,2041,2035,2041,2019
2049,2051,2082,2080,2045,2036,2043,2020
2041,2047,2073,2068,2056,2039,2042,2023
2040,2047,2063,2065,2066,2059,2065,2021
2041,2056,2068,2058,2070,2058,2065,2019
2033,2042,2042,2059,2053,2050,2069,2026
2039,2039,2038,2050,2040,2050,2064,2035
2043,2038,2040,2056,2043,2056,2066,2045
2045,2032,2042,2045,2029,2042,2071,2048
2039,2034,2029,2022,2012,2026,2056,2047
2038,2027,2025,2016,2011,2016,2042,2050
2037,2034,2014,2028,2014,2007,2049,2043
2030,2020,2007,2038,2005,2020,2053,2060
2034,2035,2014,2062,2003,2021,2053,2065
2046,2045,2034,2084,2048,2034,2049,2066
2045,2048,2048,2084,2083,2045,2054,2073
2044,2054,2054,2090,2095,2048,2056,2081
2065,2049,2053,2081,2063,2047,2029,2080
2055,2031,2060,2065,2031,2037,2018,2068
2068,2046,2095,2086,2028,2039,2029,2072
2079,2050,2115,2109,2034,2036,2030,2061
2058,2028,2108,2108,2031,2037,2030,2050
2045,2021,2111,2108,2038,2032,2014,2040
2040,2020,2115,2107,2047,2038,2027,2060
2057,2042,2135,2128,2070,2047,2040,2069
2051,2052,2120,2115,2072,2045,2030,2056
2029,2036,2086,2102,2070,2040,2025,2041
2034,2050,2073,2096,2078,2054,2029,2030
2056,2066,2076,2093,2072,2061,2041,2031
2065,2073,2062,2070,2060,2044,2042,2034
2064,2071,2044,2038,2050,2029,2033,2036
2053,2075,2017,2010,2044,2022,2019,2035
2054,2081,1996,1994,2048,2021,1996,2031
2048,2068,1972,1993,2039,2021,1997,2034
2045,2045,1953,1988,2027,2018,2003,2035
2038,2041,1962,2007,2028,2025,2012,2044
2045,2048,1968,2020,2043,2041,2039,2058
2060,2052,1971,2017,2036,2032,2015,2055
2062,2056,1987,2014,2026,2034,2033,2059
2056,2057,2016,2016,2019,2025,2026,2059
2068,2088,2063,2036,2031,2032,2055,2068
2079,2116,2107,2050,2043,2036,2060,2074
2082,2122,2114,2031,2028,2030,2044,2070
2076,2108,2086,2013,2009,2023,2047,2076
2066,2101,2080,2029,2024,2025,2042,2082
2078,2096,2086,2064,2041,2032,2030,2086
2069,2091,2087,2072,2069,2056,2060,2087
2054,2078,2097,2076,2089,2070,2042,2080
2046,2067,2118,2072,2077,2064,2040,2074
2050,2070,2128,2058,2063,2063,2037,2084
2050,2059,2130,2059,2047,2061,2053,2084
2036,2046,2110,2057,2056,2062,2032,2086
2037,2047,2102,2072,2064,2063,2048,2092
2052,2065,2100,2081,2076,2051,2079,2092
2068,2069,2091,2084,2049,2030,2067,2091
2065,2061,2061,2077,1981,2016,2032,2083
2066,2060,2057,2095,1965,2045,2046,2069
2059,2059,2040,2105,1952,2059,2062,2047
2051,2050,2041,2105,1930,2044,2062,2042
2054,2052,2027,2091,1888,2026,2041,2038
2053,2044,2001,2079,1878,1984,2025,2032
2051,2032,1986,2076,1935,1944,2044,2026
2047,2030,1976,2086,2057,2008,2059,2034
2065,2043,1970,2096,2130,2057,2064,2054
2075,2054,1974,2088,2167,2115,2078,2050
2080,2048,1950,2049,2124,2105,2057,2043
2057,2027,1919,2001,2071,2063,2029,2029
2034,1999,1888,1970,2018,2017,2013,2012
2037,2004,1902,1968,2010,2019,2005,2006
2046,2030,1937,1980,2019,2036,2033,2024
2050,2028,1956,1986,2014,2025,2033,2026
2037,2013,1976,1987,2010,2025,2029,2024
2033,2039,2032,2012,2035,2035,2046,2044
2046,2086,2106,2057,2052,2053,2059,2061
2067,2123,2157,2077,2075,2062,2063,2067
2078,2117,2151,2076,2053,2058,2053,2076
2073,2100,2135,2064,2054,2066,2061,2072
2065,2092,2133,2060,2046,2070,2074,2077
2060,2095,2142,2074,2047,2082,2056,2072
2067,2088,2140,2081,2049,2078,2019,2080
2057,2076,2120,2080,2042,2060,2076,2098
2049,2071,2101,2088,2055,2024,2074,2107
2056,2067,2113,2094,2076,2031,2046,2110
2056,2064,2103,2085,2075,2033,2041,2095
2047,2050,2087,2065,2059,2040,2027,2095
2049,2046,2084,2061,2045,2064,2014,2089
2053,2070,2092,2068,2056,2078,2039,2084
2061,2074,2112,2071,2053,2081,2039,2077
2060,2076,2120,2087,2061,2056,2046,2076
2062,2077,2121,2094,2072,2036,2019,2079
2066,2082,2120,2096,2074,2045,2029,2072
2065,2080,2105,2091,2061,2044,2013,2064
2063,2075,2096,2087,2063,2046,2014,2057
2066,2075,2086,2090,2062,2053,2044,2045
2067,2073,2080,2082,2053,2043,2025,2045
2058,2068,2062,2067,2022,2043,2017,2034
2053,2056,2049,2044,1988,2036,2002,2027
2049,2055,2041,2040,1962,2032,1997,2022
2050,2053,2036,2031,1960,2036,2012,2026
2053,2049,2029,2036,1965,2018,2020,2021
2051,2042,2030,2045,2006,1997,2024,2018
2046,2047,2043,2072,2050,2010,2040,2020
2053,2054,2065,2096,2079,2051,2028,2024
2058,2064,2071,2101,2089,2070,2062,2028
2061,2063,2070,2104,2084,2079,2074,2044
2062,2064,2069,2105,2076,2064,2057,2044
2056,2062,2059,2102,2064,2049,2042,2050
2059,2066,2052,2109,2070,2047,2066,2047
2057,2067,2043,2111,2071,2041,2045,2050
2059,2068,2025,2102,2067,2030,2055,2050
2053,2062,1998,2098,2065,2043,2052,2057
2053,2054,1989,2090,2064,2048,2061,2066
2052,2045,1977,2076,2061,2044,2058,2069
2048,2045,1968,2064,2055,2044,2061,2074
2047,2047,1966,2057,2049,2050,2040,2077
2054,2050,1977,2056,2052,2051,2048,2073
2054,2045,1990,2059,2052,2046,2036,2068
2040,2036,1992,2047,2031,2039,2043,2062
2039,2028,1972,2045,2025,2044,2053,2070
2041,2037,1989,2060,2041,2049,2049,2066
2045,2039,2009,2071,2038,2050,2044,2062
2045,2046,2007,2072,2032,2039,2044,2056
2044,2050,2003,2069,2031,2028,2036,2047
2036,2042,2010,2070,2035,2031,2043,2044
2038,2042,2021,2067,2030,2022,2032,2033
2037,2039,2038,2061,2023,2016,2028,2030
2032,2048,2066,2070,2036,2019,2038,2034
2039,2060,2086,2074,2033,2028,2039,2028
2035,2058,2125,2066,2029,2025,2049,2033
2039,2058,2143,2068,2020,2022,2041,2038
2043,2064,2151,2055,2014,2021,2034,2034
2046,2075,2159,2058,2011,2028,2055,2037
2055,2092,2164,2064,2030,2044,2059,2038
2059,2104,2153,2077,2034,2040,2052,2033
2064,2109,2158,2084,2043,2047,2044,2033
2070,2116,2170,2103,2048,2055,2054,2042
2066,2122,2149,2096,2039,2047,2057,2043
2068,2110,2125,2094,2035,2039,2064,2055
2080,2103,2105,2090,2027,2045,2055,2058
2073,2103,2096,2085,2029,2060,2060,2057
2073,2097,2079,2084,2038,2059,2063,2067
2072,2098,2074,2084,2043,2044,2056,2068
2072,2100,2069,2078,2038,2029,2049,2074
2067,2091,2069,2069,2030,2007,2042,2076
2062,2088,2058,2044,2006,2027,2049,2077
2059,2081,2038,2019,1993,2044,2052,2086
2061,2077,2036,2022,1999,2057,2062,2081
2062,2083,2038,2033,1998,2061,2066,2084
2064,2080,2036,2039,2020,2044,2073,2096
2059,2076,2040,2058,2052,2030,2049,2102
2061,2067,2031,2067,2062,2023,2059,2099
2062,2066,2038,2072,2052,2032,2050,2102
2066,2076,2054,2077,2052,2035,2049,2091
2067,2079,2040,2070,2048,2032,2052,2097
2062,2074,2036,2073,2046,2038,2047,2084
2064,2073,2027,2071,2029,2029,2045,2073
2062,2074,2023,2074,2017,2028,2042,2072
2065,2070,2023,2077,2052,2037,2057,2061
2062,2072,2028,2078,2055,2049,2055,2057
2060,2073,2027,2085,2067,2068,2046,2054
2059,2069,2038,2087,2105,2068,2064,2043
2055,2064,2032,2088,2099,2059,2061,2037
2052,2059,2025,2090,2104,2053,2051,2036
2060,2062,2029,2108,2124,2064,2062,2033
2057,2062,2031,2116,2133,2066,2067,2034
2060,2054,2021,2076,1980,2021,2053,2018
2048,2042,2001,2050,1932,2007,2033,2014
2039,2040,2007,2069,2032,2039,2046,2018
2049,2046,2014,2081,2063,2047,2044,2024
2051,2046,2017,2054,2021,2019,2038,2013
2043,2047,2018,2028,1989,2004,2032,2025
2037,2060,2042,2047,1996,2020,2037,2035
2057,2085,2092,2075,2033,2041,2069,2045
2068,2097,2119,2102,2052,2054,2072,2054
2066,2085,2110,2089,2048,2046,2069,2059
2059,2056,2075,2070,2037,2041,2062,2056
2052,2042,2069,2071,2050,2041,2054,2066
2046,2046,2090,2097,2052,2049,2053,2072
2056,2058,2116,2115,2041,2053,2053,2084
2059,2067,2116,2109,2004,2059,2063,2084
2061,2068,2106,2095,1965,2044,2059,2076
2053,2059,2090,2053,1948,2027,2045,2086
2056,2068,2089,2031,1928,2015,2046,2087
2062,2068,2080,2048,1929,1982,2046,2093
2056,2072,2086,2062,1964,1977,2058,2089
2063,2087,2084,2074,2009,2009,2053,2093
2065,2084,2064,2068,2036,2037,2075,2097
2062,2083,2049,2063,2047,2055,2061,2087
2057,2084,2040,2059,2077,2056,2050,2084
2061,2081,2026,2045,2083,2054,2064,2079
2060,2072,2012,2032,2076,2051,2067,2078
2067,2072,2014,2040,2076,2051,2061,2066
2069,2073,2033,2037,2075,2046,2073,2056
2072,2082,2051,2037,2081,2053,2081,2055
2075,2090,2054,2047,2076,2058,2067,2045
2064,2088,2066,2058,2044,2051,2066,2041
2069,2090,2082,2036,1896,2031,2067,2039
2068,2087,2069,2011,1840,2027,2067,2036
2063,2083,2061,2028,1908,2043,2062,2035
2056,2067,2048,2042,1993,2044,2054,2037
2050,2057,2048,2047,2020,2030,2050,2032
2056,2069,2047,2066,2044,2025,2060,2042
2062,2062,2042,2070,2064,2035,2066,2034
2060,2059,2031,2069,2064,2045,2045,2044
2054,2053,2027,2072,2079,2050,2050,2054
2059,2065,2035,2093,2112,2063,2072,2059
2064,2076,2047,2118,2128,2080,2075,2070
2073,2084,2056,2124,2148,2080,2072,2075
2072,2083,2045,2144,2157,2087,2086,2083
2077,2079,2043,2143,2140,2089,2085,2086
2069,2072,2039,2117,2119,2082,2077,2088
2065,2069,2034,2076,2060,2070,2067,2087
2050,2054,2022,2014,1978,2054,2062,2086
2044,2054,2026,1976,1991,2058,2070,2094
2049,2061,2040,1976,2013,2060,2067,2094
2052,2065,2045,1984,1998,2037,2054,2089
2041,2055,2028,1994,1974,2021,2034,2084
2037,2041,2025,1999,1979,2024,2048,2088
2050,2062,2032,2012,1986,2027,2054,2095
2052,2068,2041,2024,2003,2042,2050,2090
2049,2055,2034,2022,2007,2042,2048,2085
2050,2068,2043,2030,2012,2032,2042,2076
2060,2080,2045,2035,2014,2037,2049,2065
2064,2073,2037,2032,2006,2030,2037,2045
2059,2061,2026,2028,2014,2032,2019,2041
2060,2061,2024,2025,2025,2032,2030,2043
2060,2057,2011,2027,2024,2048,2030,2043
2055,2054,2011,2038,2044,2067,2061,2043
2064,2064,2012,2051,2049,2088,2065,2055
2070,2065,2007,2054,2054,2097,2060,2049
2064,2065,2000,2042,2066,2101,2057,2040
2063,2057,1985,2039,2065,2099,2043,2041
2055,2047,1973,2028,2028,2074,2047,2034
2053,2041,1980,2030,1987,2046,2052,2034
2060,2053,1992,2047,1985,2027,2042,2033
2061,2055,1994,2049,1937,1993,2032,2037
2060,2049,2000,2049,1912,1969,2022,2040
2060,2055,2013,2057,1959,1966,2045,2043
2064,2056,2030,2059,2025,1983,2049,2046
2060,2065,2046,2082,2083,2006,2040,2053
2056,2065,2062,2086,2059,2027,2039,2060
2063,2067,2071,2077,2037,2037,2059,2063
2051,2058,2070,2058,2027,2039,2059,2067
2045,2054,2070,2053,2018,2032,2025,2068
2050,2064,2100,2063,2022,2036,2041,2081
2053,2082,2134,2085,2027,2040,2054,2091
2063,2090,2140,2086,2038,2043,2048,2103
2066,2085,2117,2078,2031,2042,2057,2115
2077,2083,2096,2054,2013,2036,2024,2105
2062,2062,2062,2033,1998,2032,2026,2090
2045,2056,2060,2023,1999,2054,2033,2086
2057,2070,2073,2023,2002,2071,2060,2090
2069,2078,2080,2020,1995,2082,2042,2093
2069,2087,2070,2023,1992,2080,2040,2091
2074,2085,2057,2015,1984,2081,2049,2084
2069,2076,2044,2011,1996,2041,2035,2076
2068,2071,2039,2016,1986,1995,2047,2070
2070,2069,2047,2028,1996,1993,2029,2066
2065,2067,2056,2031,1998,2004,2064,2062
2068,2069,2058,2037,2011,2026,2061,2068
2069,2076,2055,2044,2022,2037,2055,2061
2070,2067,2041,2042,2019,2026,2041,2069
2067,2064,2043,2050,2046,2031,2060,2064
2071,2071,2048,2058,2072,2041,2058,2063
2067,2067,2042,2061,2072,2042,2067,2052
2061,2059,2038,2058,2088,2040,2057,2037
2052,2055,2036,2066,2077,2037,2052,2034
2059,2069,2043,2060,2094,2046,2062,2036
2058,2071,2040,2045,2072,2029,2065,2039
2057,2065,2039,2019,2011,2008,2060,2051
2062,2073,2044,2025,1973,2016,2069,2056
2065,2072,2046,2030,1936,2029,2071,2069
2067,2070,2045,2038,1984,2038,2059,2072
2071,2067,2035,2039,2023,2035,2044,2070
2059,2060,2032,2039,2024,2036,2042,2071
2054,2062,2025,2057,2077,2065,2055,2069
2060,2056,2021,2069,2085,2090,2059,2067
2059,2057,2024,2092,2077,2098,2074,2071
2049,2046,2022,2096,2093,2085,2032,2062
2041,2034,1993,2076,2059,2076,2034,2059
2040,2016,1982,2056,2018,2074,2025,2068
2040,2021,1973,2062,2034,2062,2030,2072
2033,2015,1961,2074,2038,2052,2036,2081
2039,2030,1966,2089,2045,2067,2060,2084
2050,2050,1977,2089,2051,2068,2052,2081
2056,2049,1975,2081,2045,2062,2035,2077
2060,2048,1970,2073,2044,2058,2024,2067
2052,2035,1975,2064,2017,2039,2055,2061
2051,2024,1978,2041,2002,2010,2036,2046
2029,2005,1954,1993,1963,1985,2013,2031
2016,1997,1974,1987,1959,1983,2010,2023
2032,2032,2043,2010,1971,1997,2023,2027
2035,2060,2078,2014,1983,2016,2030,2040
2044,2086,2089,2024,1996,2030,2063,2054
2054,2108,2100,2027,2012,2044,2066,2055
2055,2105,2097,2032,2014,2045,2084,2062
2065,2106,2096,2038,2021,2054,2065,2058
2070,2101,2092,2033,2020,2044,2046,2052
2056,2084,2060,2018,2025,2036,2042,2047
2052,2073,2040,2019,2038,2046,2072,2056
2062,2074,2051,2027,2044,2053,2075,2060
2066,2066,2035,2021,2031,2043,2056,2061
2061,2071,2028,2025,2030,2037,2055,2054
2064,2077,2043,2030,2026,2038,2062,2060
2068,2083,2064,2038,2025,2042,2047,2067
2071,2097,2089,2048,2024,2037,2053,2064
2067,2096,2101,2044,2026,2044,2040,2065
2066,2092,2090,2049,2032,2040,2045,2077
2066,2084,2072,2045,2031,2048,2046,2083
2061,2077,2067,2044,2033,2045,2049,2083
2051,2070,2059,2043,2035,2046,2050,2093
2056,2070,2057,2052,2046,2062,2053,2105
2057,2077,2076,2059,2078,2069,2058,2105
2060,2076,2084,2065,2087,2063,2048,2110
2059,2071,2080,2068,2088,2056,2022,2096
2043,2054,2059,2063,2080,2047,2014,2097
2039,2057,2060,2070,2086,2040,2027,2096
2057,2075,2060,2071,2085,2044,2049,2098
2057,2082,2061,2071,2083,2050,2048,2089
2063,2079,2058,2072,2083,2050,2054,2083
2057,2072,2048,2058,1987,2040,2042,2079
2052,2061,2046,2044,1917,2029,2052,2079
2057,2068,2042,2048,1982,2026,2038,2065
2063,2070,2043,2049,2010,2008,2022,2061
2052,2066,2042,2040,2010,2025,2042,2051
2046,2059,2041,2025,1980,2040,2031,2045
2040,2053,2031,2012,1953,2052,2039,2042
2044,2051,2039,2005,1931,2052,2033,2034
2034,2054,2041,1987,1930,2050,2050,2038
2046,2060,2044,2019,1972,2047,2052,2046
2058,2064,2039,2043,2032,2059,2056,2045
2055,2054,2032,2046,2060,2080,2065,2045
2049,2056,2032,2064,2083,2098,2074,2050
2058,2070,2045,2064,2075,2082,2052,2043
2056,2065,2058,2073,2088,2064,2057,2041
2050,2067,2049,2075,2084,2051,2065,2052
2054,2062,2045,2076,2083,2036,2067,2056
2057,2059,2039,2084,2125,2031,2068,2063
2055,2055,2038,2094,2134,2035,2062,2061
2048,2053,2032,2089,2126,2038,2052,2066
2049,2046,2033,2084,2116,2053,2070,2068
2046,2044,2040,2090,2111,2060,2065,2075
2047,2045,2051,2090,2096,2069,2049,2078
2041,2052,2052,2070,2041,2061,2054,2081
2042,2046,2048,2050,1958,2056,2058,2089
2040,2045,2061,2049,1910,2048,2046,2089
2035,2053,2074,2034,1856,2049,2055,2078
2032,2038,2061,2025,1894,2064,2040,2085
2036,2030,2058,2024,1936,2065,2036,2092
2045,2048,2047,2024,1951,2063,2052,2091
2047,2047,2053,2036,1983,2035,2063,2093
2056,2053,2058,2046,1989,2013,2055,2089
2060,2053,2047,2036,1963,2016,2067,2082
2055,2053,2050,2022,1964,2018,2063,2076
2053,2058,2053,2030,1985,2027,2060,2069
2049,2060,2058,2035,1995,2042,2036,2065
2052,2056,2033,2014,1968,2052,2030,2051
2045,2051,2018,1992,1939,2052,2042,2053
2038,2042,2012,1978,1947,2040,2040,2036
2036,2042,2028,1987,1965,2031,2034,2039
2047,2055,2039,1994,1998,2023,2023,2048
2057,2068,2060,2021,2081,2044,2068,2063
2064,2066,2058,2033,2143,2068,2048,2056
2055,2051,2040,2040,2155,2086,2032,2044
2057,2048,2033,2055,2155,2093,2049,2047
2059,2059,2035,2059,2114,2082,2043,2053
2058,2060,2031,2055,2072,2067,2049,2056
2057,2057,2041,2058,2070,2078,2049,2058
2054,2057,2040,2059,2087,2085,2065,2056
2059,2059,2042,2063,2081,2078,2064,2058
2053,2053,2042,2059,2042,2065,2054,2064
2057,2050,2045,2050,1997,2043,2069,2072
2059,2052,2056,2039,1971,2051,2061,2079
2051,2054,2066,2038,1975,2058,2065,2086
2057,2051,2069,2051,2008,2072,2068,2097
2054,2053,2070,2056,2080,2096,2070,2095
2052,2052,2068,2067,2137,2084,2048,2097
2050,2053,2062,2046,2112,2042,2034,2101
2054,2050,2056,2039,2074,2028,2049,2091
2047,2036,2050,2039,2041,2027,2038,2095
2039,2042,2052,2042,2021,2021,2038,2098
2048,2048,2057,2050,2056,2027,2027,2086
2054,2050,2049,2042,2037,2026,2054,2081
2046,2047,2050,2035,2012,2010,2045,2077
2049,2051,2050,2039,2017,2028,2035,2068
2050,2047,2046,2047,2045,2040,2055,2053
2049,2050,2047,2050,2056,2041,2068,2051
2058,2046,2051,2047,2052,2039,2051,2049
2050,2046,2047,2029,2006,2026,2038,2046
2049,2052,2057,2032,2017,2043,2060,2051
2057,2062,2072,2057,2025,2050,2047,2049
2064,2072,2078,2051,2018,2046,2052,2047
2066,2067,2062,2053,2039,2047,2053,2046
2058,2056,2051,2057,2045,2053,2049,2042
2056,2051,2044,2053,2038,2052,2046,2035
2042,2036,2029,2051,2045,2046,2059,2033
2040,2035,2026,2045,2012,2049,2062,2038
2051,2041,2026,2037,1976,2047,2061,2046
2047,2041,2029,2043,2002,2053,2054,2040
2051,2042,2028,2050,2042,2060,2066,2049
2047,2042,2025,2054,2062,2063,2058,2055
2044,2038,2023,2047,2073,2056,2065,2055
2047,2039,2009,2045,2068,2055,2060,2056
2045,2036,2002,2043,2054,2042,2044,2054
2038,2031,1996,2041,2063,2052,2062,2065
2041,2029,1993,2046,2065,2062,2060,2071
2041,2038,1999,2048,2049,2063,2068,2088
2043,2039,1993,2036,2028,2047,2094,2085
2047,2032,1986,2031,2059,2037,2057,2080
2040,2032,2001,2038,2094,2042,2052,2087
2035,2028,2008,2036,2070,2034,2039,2076
2023,2015,2006,2024,2043,2029,2028,2073
2023,2016,2017,2028,2009,2024,2040,2081
2036,2027,2052,2043,1974,2012,2067,2081
2046,2041,2081,2044,1951,1991,2046,2082
2050,2048,2098,2036,1943,1989,2041,2065
2047,2045,2093,2030,1962,1998,2035,2053
2043,2044,2085,2043,2021,2041,2034,2051
2039,2049,2089,2075,2091,2067,2041,2047
2049,2046,2098,2105,2131,2077,2060,2051
2056,2063,2099,2099,2126,2064,2058,2044
2055,2057,2104,2091,2083,2057,2061,2044
2053,2056,2093,2082,2058,2051,2065,2036
2050,2049,2078,2073,2019,2050,2057,2040
2050,2059,2085,2084,2034,2067,2064,2042
2054,2070,2088,2078,2046,2063,2072,2042
2056,2073,2082,2054,2024,2046,2061,2029
2057,2068,2079,2043,1996,2029,2035,2037
2055,2065,2071,2026,2000,2036,2040,2034
2057,2061,2057,2015,2004,2039,2057,2034
2052,2057,2033,2000,2000,2032,2044,2039
2051,2046,2026,2012,1993,2021,2040,2033
2044,2036,2016,2026,2022,2018,2038,2034
2036,2017,2011,2045,2059,2033,2053,2046
2042,2017,2013,2052,2092,2054,2067,2049
2047,2022,2014,2062,2104,2074,2068,2054
2055,2038,2014,2069,2136,2090,2071,2064
2059,2039,2020,2073,2125,2092,2067,2071
2053,2039,2008,2057,2129,2074,2065,2079
2050,2031,1992,2038,2095,2045,2054,2084
2050,2029,1991,2029,2040,2038,2069,2080
2047,2027,2004,2029,2016,2044,2073,2083
2051,2028,2008,2027,2018,2042,2054,2084
2034,2010,1999,2010,2023,2030,2038,2080
2024,2009,2007,2012,2073,2037,2041,2092
2044,2042,2045,2040,2105,2061,2066,2091
2060,2068,2090,2050,2162,2059,2066,2102
2072,2085,2111,2057,2178,2057,2049,2086
2069,2078,2099,2049,2187,2045,2045,2080
2064,2080,2100,2059,2204,2048,2048,2062
2064,2077,2095,2070,2214,2062,2022,2056
2061,2064,2074,2050,2154,2058,2035,2049
2051,2058,2059,2023,2072,2039,2040,2042
2043,2050,2038,1994,1949,2026,2056,2040
2042,2042,2034,1994,1914,2031,2033,2037
2042,2045,2033,2008,1884,2037,2052,2030
2051,2044,2033,2019,1898,2036,2050,2034
2047,2040,2019,2023,1933,2037,2047,2036
2048,2035,2010,2019,1936,2028,2048,2031
2044,2030,2005,2015,1946,2032,2037,2034
2044,2030,2010,2024,1983,2054,2077,2045
2057,2049,2031,2038,2006,2061,2067,2044
2054,2041,2033,2043,1998,2040,2049,2035
2046,2039,2031,2044,1992,2024,2047,2034
2042,2043,2044,2050,2003,2023,2048,2032
2048,2048,2062,2050,2044,2032,2055,2044
2054,2058,2070,2053,2071,2039,2051,2054
2054,2057,2078,2054,2073,2044,2052,2059
2050,2054,2079,2057,2065,2049,2068,2062
2050,2059,2085,2057,2053,2046,2047,2065
2047,2051,2089,2063,2058,2046,2054,2074
2046,2056,2098,2066,2056,2042,2047,2085
2049,2063,2109,2072,2055,2043,2064,2087
2047,2063,2117,2084,2050,2057,2063,2084
2047,2064,2113,2072,2049,2053,2052,2086
2045,2057,2101,2066,2050,2055,2045,2089
2050,2057,2089,2063,2058,2060,2046,2090
2058,2058,2086,2057,2051,2055,2040,2080
2055,2059,2085,2050,2028,2038,2030,2076
2047,2062,2082,2050,2022,2032,2036,2069
2050,2053,2072,2050,2018,2043,2049,2061
2050,2058,2083,2053,2029,2049,2055,2060
2061,2058,2088,2060,2035,2047,2050,2049
2052,2058,2090,2058,2041,2047,2050,2048
2056,2052,2086,2059,2055,2061,2085,2046
2055,2052,2076,2068,2052,2062,2083,2044
2056,2048,2080,2069,2043,2060,2081,2047
2053,2038,2078,2068,2051,2045,2069,2027
2039,2034,2066,2069,2058,2038,2068,2028
2054,2043,2072,2076,2068,2047,2062,2033
2055,2048,2068,2074,2059,2037,2060,2025
2046,2039,2050,2065,2056,2044,2052,2025
2034,2031,2046,2070,2066,2062,2072,2020
2043,2040,2049,2076,2065,2064,2056,2024
2045,2045,2056,2079,2058,2072,2067,2034
2042,2043,2056,2064,2049,2081,2083,2034
2044,2032,2043,2052,2048,2083,2044,2041
2040,2035,2030,2039,2051,2098,2056,2054
2047,2032,2021,2031,2046,2093,2044,2049
2047,2031,2013,2020,2044,2080,2042,2044
2046,2029,2020,2026,2038,2050,2053,2047
2034,2032,2025,2040,2054,2031,2052,2051
2040,2040,2040,2056,2079,2044,2050,2066
2041,2050,2043,2061,2076,2051,2068,2066
2043,2043,2032,2055,2070,2046,2046,2072
2050,2044,2032,2053,2078,2042,2061,2084
2051,2047,2020,2028,2074,2029,2051,2080
2042,2028,1999,2020,2064,2026,2033,2083
2036,2037,2005,2025,2061,2033,2026,2086
2048,2033,2011,2022,2058,2028,2033,2078
2050,2032,2008,2015,2060,2024,2029,2073
2051,2044,2019,2018,2066,2032,2026,2072
2050,2047,2040,2030,2039,2030,2040,2065
2049,2053,2052,2034,2021,2014,2047,2054
2053,2062,2061,2031,2010,2008,2029,2050
2053,2062,2069,2048,1993,2012,2047,2045
2053,2063,2091,2060,1983,2013,2036,2034
2054,2059,2115,2087,2011,2042,2043,2038
2063,2065,2117,2115,2065,2052,2039,2037
2062,2064,2117,2124,2098,2059,2019,2025
2059,2055,2096,2102,2073,2042,2033,2024
2054,2051,2080,2085,2051,2034,2046,2027
2049,2054,2077,2099,2091,2050,2033,2010
2046,2043,2067,2095,2098,2049,2028,2019
2046,2053,2063,2097,2076,2062,2051,2016
2045,2054,2058,2088,2053,2072,2051,2016
2052,2054,2052,2075,2030,2087,2047,2015
2042,2042,2037,2046,1977,2105,2039,2021
2033,2035,2022,2012,1920,2080,2040,2023
2032,2027,2025,2003,1907,2035,2030,2032
2040,2035,2041,2007,1926,1985,2036,2042
2052,2050,2053,2007,1973,1950,2065,2070
2062,2059,2052,2021,2043,1969,2052,2076
2062,2060,2061,2030,2099,2024,2072,2083
2063,2055,2054,2046,2136,2070,2062,2083
2055,2055,2049,2060,2134,2088,2062,2082
2046,2054,2051,2062,2128,2082,2064,2077
2047,2048,2046,2056,2137,2067,2077,2077
2044,2035,2027,2054,2153,2057,2053,2070
2034,2022,2012,2046,2144,2053,2036,2067
2029,2024,2021,2052,2128,2058,2049,2075
2046,2039,2029,2050,2089,2060,2054,2068
2039,2041,2036,2037,2040,2049,2059,2066
2038,2038,2056,2038,2013,2040,2054,2052
2049,2041,2068,2046,2002,2043,2043,2054
2047,2047,2081,2041,2019,2044,2063,2053
2047,2050,2079,2047,2048,2055,2060,2046
2047,2051,2085,2056,2061,2062,2052,2037
2046,2045,2083,2076,2063,2059,2060,2027
2039,2043,2076,2080,2062,2052,2059,2028
2043,2046,2064,2071,2059,2050,2065,2030
2044,2040,2037,2053,2054,2046,2049,2025
2044,2028,2021,2038,2053,2045,2043,2025
2039,2034,2023,2055,2060,2045,2058,2023
2034,2028,2014,2050,2051,2040,2053,2008
2033,2026,2017,2035,2043,2031,2051,2010
2034,2030,2030,2038,2051,2036,2061,2016
2039,2041,2035,2030,2052,2034,2060,2015
2038,2039,2047,2022,2053,2037,2026,2018
2041,2045,2060,2015,2068,2035,2043,2026
2042,2050,2058,2004,2071,2042,2029,2031
2048,2060,2071,2015,2070,2050,2043,2029
2055,2049,2078,2024,2055,2062,2029,2037
2048,2057,2073,2037,2061,2064,2037,2052
2049,2058,2064,2040,2058,2066,2045,2054
2053,2053,2058,2034,2052,2066,2053,2057
2056,2047,2067,2036,2047,2059,2037,2068
2055,2052,2079,2048,2053,2065,2041,2074
2056,2048,2078,2045,2068,2061,2018,2079
2047,2039,2056,2045,2063,2058,2032,2078
2043,2027,2039,2044,2052,2051,2039,2070
2032,2022,2031,2040,2056,2047,2023,2070
2035,2031,2033,2040,2051,2052,2039,2084
2037,2036,2029,2033,2050,2052,2065,2080
2043,2042,2039,2031,2042,2046,2059,2074
2048,2046,2040,2032,2045,2047,2063,2063
2047,2039,2043,2026,2047,2048,2067,2065
2040,2035,2030,2016,2042,2045,2041,2054
2040,2034,2032,2015,2041,2045,2034,2050
2047,2036,2038,2024,2045,2054,2051,2048
2050,2036,2043,2024,2054,2053,2040,2040
2052,2036,2040,2021,2054,2056,2041,2033
2047,2040,2040,2022,2057,2060,2053,2032
2051,2048,2042,2018,2051,2061,2039,2029
2053,2039,2043,2020,2051,2055,2048,2025
2047,2039,2045,2021,2037,2048,2042,2022
2048,2042,2041,2016,2026,2035,2026,2016
2046,2028,2029,2014,2027,2038,2050,2024
2045,2035,2027,2023,2049,2055,2058,2033
2051,2041,2029,2027,2052,2053,2046,2028
2049,2038,2031,2026,2041,2065,2041,2024
2044,2036,2026,2013,2003,2068,2043,2021
2039,2030,2028,2018,1991,2074,2042,2019
2035,2028,2028,2020,1987,2071,2040,2016
2033,2034,2034,2030,1988,2045,2039,2028
2044,2048,2056,2051,2019,2029,2060,2050
2053,2053,2069,2075,2060,2051,2061,2064
2051,2058,2072,2084,2074,2061,2066,2078
2053,2052,2066,2080,2061,2082,2058,2083
2045,2045,2060,2066,2043,2081,2078,2078
2045,2036,2044,2057,2043,2078,2059,2076
2035,2030,2033,2045,2045,2072,2061,2074
2040,2015,2012,2034,2050,2058,2044,2063
2031,2008,2005,2038,2098,2055,2050,2067
2034,2015,2010,2044,2155,2064,2057,2065
2036,2030,2011,2050,2203,2067,2056,2063
2049,2033,2014,2053,2195,2065,2057,2063
2045,2035,2013,2070,2212,2066,2047,2057
2041,2030,2022,2070,2217,2053,2034,2052
2036,2027,2024,2064,2186,2046,2039,2038
2031,2014,2002,2053,2148,2048,2037,2035
2039,2017,1995,2042,2063,2044,2028,2034
2036,2017,1978,2007,1849,2022,2026,2020
2029,2013,1964,1993,1827,2021,2025,2021
2026,2020,1990,2001,1864,2034,2013,2028
2048,2050,2025,2027,1894,2044,2043,2032
2049,2058,2040,2037,1955,2022,2036,2028
2050,2053,2042,2026,1974,2003,2040,2025
2040,2031,2039,2024,1983,2006,2014,2020
2035,2026,2048,2027,2005,2010,2023,2023
2044,2043,2074,2045,2036,2024,2069,2033
2053,2057,2093,2052,2038,2031,2064,2037
2054,2057,2093,2041,2029,2035,2069,2035
2050,2057,2113,2036,2081,2033,2067,2041
2052,2074,2126,2047,2132,2060,2082,2046
2062,2078,2129,2064,2146,2080,2077,2046
2061,2080,2129,2067,2119,2071,2081,2049
2053,2074,2112,2068,2075,2066,2058,2050
2051,2062,2096,2058,2057,2055,2035,2043
2038,2049,2076,2048,2059,2071,2031,2054
2040,2040,2060,2046,2090,2085,2036,2065
2041,2041,2056,2044,2118,2086,2052,2062
2036,2043,2057,2048,2123,2084,2048,2078
2043,2051,2066,2048,2108,2082,2057,2075
2035,2045,2054,2042,2101,2073,2036,2076
2040,2043,2052,2039,2104,2064,2032,2080
2046,2052,2062,2045,2102,2069,2030,2086
2051,2049,2060,2046,2111,2070,2047,2078
2049,2046,2060,2038,2089,2069,2046,2066
2054,2057,2057,2023,1960,2055,2050,2056
2052,2060,2059,2030,1972,2060,2038,2056
2051,2052,2059,2036,2009,2057,2032,2050
2055,2050,2050,2038,2025,2056,2044,2041
2044,2045,2046,2035,2029,2056,2044,2045
2048,2047,2047,2036,2042,2058,2045,2039
2041,2040,2050,2035,2039,2054,2039,2032
2041,2036,2043,2038,2035,2046,2049,2028
2035,2034,2040,2026,2024,2037,2052,2032
2035,2027,2036,2023,2025,2035,2032,2022
2035,2029,2034,2028,2034,2039,2037,2021
2032,2025,2027,2027,2033,2030,2030,2012
2031,2025,2017,2028,2041,2035,2048,2014
2047,2033,2026,2043,2054,2052,2052,2022
2038,2032,2027,2039,2054,2052,2061,2027
2038,2025,2026,2031,2046,2048,2055,2029
2040,2029,2024,2033,2050,2042,2063,2030
2042,2031,2030,2047,2054,2049,2051,2037
2047,2040,2034,2054,2058,2052,2065,2041
2050,2039,2028,2057,2058,2056,2063,2045
2048,2036,2023,2054,2065,2056,2064,2052
2047,2029,2016,2058,2067,2058,2059,2053
2040,2027,2014,2063,2067,2061,2058,2060
2031,2017,2013,2071,2062,2056,2054,2059
2035,2022,2043,2084,2058,2058,2071,2067
2036,2016,2060,2093,2052,2057,2064,2065
2039,2020,2060,2106,2039,2051,2059,2072
2032,2015,2060,2109,2031,2048,2045,2062
2023,2015,2052,2104,2022,2043,2054,2065
2032,2029,2054,2101,2001,2066,2069,2069
2041,2045,2046,2102,2005,2093,2049,2065
2038,2051,2048,2107,2018,2090,2052,2071
2045,2060,2043,2097,2044,2085,2057,2057
2039,2063,2047,2105,2079,2083,2063,2052
2045,2064,2043,2089,2081,2073,2055,2051
2051,2069,2040,2076,2093,2074,2062,2049
2048,2056,2022,2059,2098,2060,2050,2039
2040,2048,2021,2031,2083,2042,2052,2036
2034,2030,2023,2006,2060,2009,2047,2032
2037,2036,2050,1980,2064,1996,2053,2032
2048,2077,2085,1981,2062,2014,2051,2047
2069,2096,2099,1972,2036,2022,2069,2053
2065,2079,2084,1965,2043,2042,2064,2052
2064,2063,2086,1982,2031,2059,2058,2050
2048,2052,2101,2003,2013,2075,2036,2046
2046,2060,2103,2031,2030,2088,2060,2045
2058,2069,2096,2035,2028,2085,2062,2045
2060,2066,2078,2028,2050,2070,2047,2047
2055,2059,2054,2027,2092,2070,2070,2039
2048,2049,2044,2027,2089,2065,2067,2047
2054,2048,2041,2020,2033,2044,2057,2039
2054,2046,2024,2017,1992,2023,2052,2051
2048,2051,2024,2025,2004,2024,2042,2046
2054,2054,2032,2031,2026,2036,2033,2060
2059,2056,2044,2038,2047,2044,2048,2065
2057,2060,2048,2032,2064,2041,2033,2058
2054,2046,2043,2029,2076,2016,2023,2063
2046,2040,2033,2014,2060,2000,2017,2060
2037,2038,2034,2013,2054,2011,2029,2069
2037,2032,2027,2000,2043,2010,2006,2062
2021,2018,2021,2000,2050,2019,2018,2068
2020,2027,2026,2014,2055,2029,2025,2076
