CH1,CH2,CH3,CH4,CH5,CH6,CH7,CH8
2040,2043,2047,2045,2056,2032,2059,2067
2037,2046,2050,2050,2051,2037,2042,2078
2048,2051,2055,2056,2049,2033,2043,2078
2042,2044,2050,2057,2053,2043,2038,2076
2040,2036,2047,2050,2039,2029,2044,2071
2041,2038,2048,2046,2042,2028,2044,2078
2040,2046,2053,2057,2048,2036,2050,2078
2046,2049,2049,2058,2040,2042,2056,2070
2043,2047,2049,2046,2049,2044,2054,2060
2039,2040,2047,2043,2044,2045,2047,2060
2039,2041,2051,2038,2045,2056,2065,2064
2034,2042,2056,2042,2052,2054,2053,2059
2046,2056,2079,2056,2055,2061,2056,2052
2047,2069,2092,2058,2064,2060,2051,2049
2053,2062,2088,2050,2054,2060,2041,2035
2051,2057,2080,2047,2056,2060,2032,2038
2049,2053,2084,2050,2056,2062,2052,2042
2040,2048,2088,2052,2060,2050,2046,2031
2049,2045,2079,2045,2061,2047,2057,2036
2046,2047,2065,2045,2055,2044,2050,2042
2051,2039,2046,2041,2050,2036,2034,2039
2046,2037,2044,2049,2043,2035,2044,2037
2053,2044,2055,2056,2055,2041,2049,2043
2052,2055,2050,2064,2049,2038,2048,2046
2050,2053,2041,2059,2045,2032,2048,2039
2051,2054,2046,2054,2047,2040,2034,2042
2054,2047,2047,2055,2043,2043,2052,2043
2054,2048,2051,2051,2052,2048,2050,2050
2051,2047,2050,2042,2053,2057,2058,2050
2041,2050,2054,2039,2047,2057,2037,2062
2042,2055,2065,2038,2048,2055,2048,2068
2044,2059,2068,2033,2046,2057,2054,2072
2051,2056,2060,2025,2052,2061,2065,2076
2049,2047,2056,2024,2056,2053,2066,2080
2049,2044,2055,2036,2060,2044,2076,2084
2046,2042,2046,2041,2056,2058,2072,2087
2045,2042,2055,2038,2053,2065,2042,2078
2040,2032,2044,2029,2063,2071,2043,2081
2037,2025,2038,2031,2073,2082,2053,2090
2043,2038,2051,2040,2075,2082,2068,2084
2049,2041,2053,2041,2068,2072,2054,2079
2044,2044,2057,2036,2060,2070,2055,2079
2047,2049,2070,2036,2057,2068,2048,2073
2054,2061,2079,2045,2060,2072,2046,2070
2059,2064,2075,2044,2065,2069,2057,2059
2056,2053,2064,2039,2064,2062,2059,2059
2051,2053,2049,2029,2057,2048,2040,2050
2051,2050,2035,2024,2048,2031,2052,2048
2053,2046,2036,2020,2042,2028,2033,2041
2054,2044,2036,2033,2047,2031,2058,2045
2054,2045,2038,2042,2052,2036,2068,2043
2050,2052,2046,2044,2051,2052,2064,2035
2044,2051,2045,2037,2054,2042,2051,2024
2043,2034,2034,2038,2041,2023,2042,2021
2043,2033,2047,2040,2039,2040,2017,2028
2053,2044,2064,2056,2059,2064,2031,2042
2055,2053,2074,2056,2068,2064,2052,2040
2056,2052,2074,2065,2057,2069,2075,2043
2058,2049,2075,2062,2056,2063,2072,2056
2058,2057,2075,2065,2056,2066,2069,2058
2061,2053,2071,2070,2062,2060,2059,2059
2052,2047,2062,2065,2059,2053,2054,2061
2053,2046,2060,2059,2053,2046,2057,2054
2047,2044,2050,2060,2046,2040,2048,2064
2047,2035,2047,2057,2043,2037,2046,2061
2037,2031,2038,2054,2047,2042,2053,2065
2034,2027,2039,2053,2059,2042,2053,2067
2033,2029,2036,2045,2061,2036,2060,2074
2034,2034,2033,2034,2051,2035,2035,2076
2032,2034,2032,2022,2047,2040,2040,2078
2031,2021,2032,2019,2052,2039,2031,2081
2036,2036,2034,2014,2064,2054,2055,2091
2048,2040,2028,2020,2069,2057,2063,2091
2045,2043,2029,2022,2055,2052,2053,2080
2049,2043,2037,2029,2044,2037,2042,2075
2052,2047,2047,2032,2035,2027,2024,2070
2051,2055,2056,2031,2037,2034,2035,2065
2051,2061,2060,2041,2040,2037,2037,2049
2054,2060,2056,2033,2040,2041,2046,2054
2049,2056,2043,2031,2042,2041,2041,2048
2047,2042,2031,2020,2041,2044,2037,2048
2048,2043,2036,2021,2051,2036,2054,2046
2057,2044,2038,2023,2044,2031,2046,2054
2058,2038,2027,2024,2054,2033,2054,2049
2052,2039,2036,2025,2056,2035,2044,2040
2050,2037,2050,2034,2053,2033,2041,2033
2039,2033,2040,2030,2042,2030,2043,2027
2029,2033,2039,2031,2035,2025,2055,2040
2047,2048,2046,2036,2027,2031,2053,2046
2055,2047,2042,2036,2041,2037,2054,2047
2052,2051,2047,2041,2051,2034,2055,2051
2049,2052,2056,2047,2056,2035,2056,2057
2050,2052,2058,2049,2052,2032,2057,2060
2053,2060,2065,2050,2054,2041,2044,2072
2056,2062,2062,2054,2054,2056,2059,2074
2057,2055,2062,2052,2057,2072,2064,2085
2059,2059,2064,2045,2060,2077,2057,2082
2058,2060,2060,2047,2054,2072,2056,2084
2049,2046,2049,2039,2059,2060,2044,2090
2049,2043,2047,2041,2051,2058,2050,2091
2055,2043,2047,2042,2048,2057,2053,2087
2041,2041,2040,2041,2049,2057,2058,2091
2048,2044,2031,2027,2042,2049,2057,2084
2042,2029,2026,2028,2041,2046,2046,2083
2035,2035,2034,2032,2049,2051,2054,2079
2044,2039,2030,2033,2050,2049,2037,2077
2041,2040,2034,2034,2046,2044,2057,2078
2040,2038,2027,2033,2042,2039,2066,2068
2047,2039,2023,2031,2039,2031,2050,2069
2051,2041,2024,2035,2032,2024,2054,2068
2056,2046,2033,2039,2044,2035,2044,2060
2059,2044,2035,2045,2042,2024,2037,2061
2056,2042,2031,2040,2041,2010,2037,2049
2049,2038,2037,2031,2042,2012,2050,2042
2050,2043,2035,2044,2038,2019,2045,2046
2049,2041,2032,2042,2040,2024,2038,2046
2046,2048,2033,2048,2049,2029,2042,2041
2041,2047,2040,2044,2050,2039,2052,2041
2036,2046,2042,2045,2037,2038,2018,2034
2036,2038,2043,2036,2035,2039,2022,2040
2039,2041,2059,2043,2046,2057,2044,2049
2055,2055,2079,2055,2057,2065,2047,2051
2064,2064,2086,2056,2060,2069,2052,2046
2053,2062,2079,2056,2055,2074,2058,2054
2051,2051,2074,2056,2068,2070,2058,2053
2047,2049,2071,2056,2069,2063,2064,2059
2048,2056,2065,2057,2065,2055,2064,2066
2050,2051,2056,2054,2059,2059,2065,2072
2050,2047,2050,2059,2059,2067,2053,2074
2054,2044,2042,2056,2058,2067,2038,2078
2045,2043,2056,2053,2063,2069,2050,2077
2046,2048,2061,2060,2078,2063,2057,2084
2044,2047,2064,2055,2076,2047,2054,2089
2045,2045,2059,2041,2060,2048,2055,2090
2043,2042,2040,2045,2050,2062,2048,2089
2042,2033,2018,2032,2051,2074,2044,2083
2032,2019,2005,2027,2049,2076,2032,2081
2036,2026,2001,2029,2044,2078,2028,2078
2043,2026,1994,2028,2036,2029,2039,2080
2041,2022,1992,2020,2034,1996,2052,2080
2053,2041,2003,2028,2036,2004,2053,2079
2053,2043,2002,2020,2040,2024,2036,2065
2057,2041,1998,2020,2032,2031,2048,2056
2048,2037,2010,2030,2041,2033,2042,2058
2046,2029,2016,2027,2041,2031,2036,2042
2033,2031,2009,2029,2041,2034,2039,2041
2033,2024,2006,2032,2046,2029,2034,2043
2027,2018,2005,2034,2054,2034,2039,2047
2031,2023,2018,2041,2057,2038,2038,2044
2049,2039,2039,2053,2063,2042,2031,2046
2060,2057,2053,2065,2072,2049,2025,2042
2065,2057,2055,2059,2058,2041,2019,2029
2046,2047,2042,2059,2055,2039,2030,2026
2047,2048,2043,2054,2062,2044,2064,2041
2048,2056,2043,2055,2063,2041,2061,2037
2046,2052,2057,2043,2051,2031,2052,2043
2047,2057,2054,2026,2041,2028,2042,2049
2051,2055,2044,2009,2038,2030,2041,2054
2051,2055,2056,2016,2049,2035,2051,2058
2065,2072,2065,2017,2059,2043,2059,2077
2075,2091,2089,2030,2065,2052,2036,2070
2074,2097,2100,2038,2073,2049,2054,2071
2062,2081,2096,2047,2070,2050,2055,2076
2063,2077,2091,2044,2074,2055,2062,2075
2055,2063,2077,2048,2063,2050,2050,2082
2059,2061,2074,2043,2056,2043,2053,2080
2047,2049,2057,2036,2049,2042,2047,2084
2047,2056,2054,2026,2042,2042,2047,2081
2041,2044,2048,2030,2041,2049,2034,2082
2040,2051,2050,2032,2051,2055,2053,2082
2050,2053,2053,2034,2054,2052,2041,2078
2045,2056,2052,2037,2047,2054,2044,2066
2044,2049,2044,2040,2045,2055,2052,2064
2051,2058,2052,2042,2047,2058,2050,2063
2051,2062,2059,2047,2054,2060,2034,2058
2049,2064,2056,2046,2045,2056,2039,2052
2045,2056,2057,2045,2046,2059,2041,2049
2047,2065,2064,2043,2049,2051,2036,2056
2042,2060,2055,2041,2043,2051,2048,2042
2055,2057,2061,2040,2043,2048,2045,2041
2054,2059,2060,2047,2045,2048,2041,2042
2056,2056,2053,2049,2053,2046,2055,2041
2055,2050,2044,2051,2056,2057,2053,2040
2046,2055,2047,2051,2058,2047,2028,2037
2044,2046,2036,2054,2048,2046,2037,2028
2049,2054,2039,2053,2055,2055,2061,2037
2056,2061,2035,2043,2047,2053,2061,2037
2047,2051,2023,2035,2043,2056,2052,2037
2048,2043,2018,2039,2046,2054,2056,2040
2051,2044,2015,2040,2042,2052,2047,2051
2047,2039,2019,2044,2053,2046,2049,2054
2048,2037,2025,2050,2054,2046,2044,2060
2056,2054,2047,2066,2060,2049,2054,2067
2062,2061,2052,2067,2059,2048,2039,2072
2051,2053,2044,2063,2058,2050,2033,2068
2044,2041,2037,2065,2056,2052,2055,2066
2035,2047,2040,2063,2059,2047,2047,2078
2037,2043,2039,2064,2060,2048,2044,2083
2037,2043,2045,2064,2064,2056,2055,2087
2038,2036,2034,2065,2057,2051,2050,2085
2039,2037,2036,2062,2058,2050,2048,2085
2043,2044,2032,2055,2057,2057,2051,2086
2045,2047,2026,2040,2050,2057,2031,2083
2053,2049,2028,2039,2043,2049,2045,2077
2053,2052,2048,2037,2035,2045,2047,2077
2054,2050,2051,2033,2031,2043,2044,2069
2050,2052,2056,2022,2034,2043,2044,2066
2055,2062,2059,2020,2038,2044,2044,2056
2060,2064,2052,2024,2036,2046,2055,2060
2063,2059,2047,2017,2043,2051,2061,2057
2058,2054,2036,2024,2049,2052,2066,2055
2061,2055,2034,2025,2046,2052,2050,2046
2058,2052,2035,2020,2054,2056,2049,2046
2052,2053,2031,2020,2052,2051,2050,2045
2057,2054,2032,2030,2043,2050,2056,2049
2055,2052,2028,2037,2042,2048,2046,2045
2051,2050,2033,2037,2045,2045,2047,2040
2058,2051,2051,2045,2049,2049,2053,2045
2050,2057,2055,2050,2048,2055,2052,2044
2044,2057,2060,2052,2058,2056,2055,2043
2052,2065,2058,2052,2055,2060,2052,2054
2052,2069,2061,2051,2057,2060,2041,2059
2052,2066,2065,2058,2054,2054,2038,2057
2049,2071,2064,2055,2052,2050,2036,2067
2057,2064,2072,2055,2064,2054,2052,2070
2058,2067,2070,2056,2067,2054,2029,2077
2053,2065,2064,2053,2062,2057,2046,2081
2056,2064,2065,2056,2054,2054,2049,2088
2054,2066,2064,2055,2053,2057,2052,2092
2053,2063,2061,2056,2057,2065,2055,2097
2053,2056,2055,2045,2053,2057,2068,2096
2046,2053,2040,2037,2043,2055,2055,2093
2041,2048,2042,2038,2036,2048,2057,2090
2052,2057,2046,2036,2047,2056,2074,2091
2056,2053,2048,2039,2046,2052,2050,2090
2056,2057,2049,2034,2039,2047,2044,2083
2049,2055,2042,2037,2037,2038,2066,2078
2049,2052,2048,2036,2041,2039,2058,2062
2050,2049,2039,2038,2040,2035,2034,2053
2046,2050,2042,2034,2046,2040,2044,2050
2051,2049,2041,2034,2047,2046,2040,2045
2040,2053,2049,2047,2050,2059,2041,2045
2038,2058,2060,2063,2055,2059,2050,2041
2048,2061,2066,2071,2060,2064,2042,2046
2050,2059,2066,2067,2058,2056,2032,2041
2042,2058,2056,2069,2051,2047,2018,2045
2045,2060,2058,2069,2050,2030,2010,2037
2042,2052,2052,2068,2048,2019,2026,2033
2038,2047,2042,2064,2047,2031,2029,2043
2045,2053,2050,2076,2058,2045,2062,2042
2043,2052,2059,2075,2060,2047,2044,2041
2047,2060,2058,2075,2060,2045,2049,2047
2051,2062,2055,2077,2063,2048,2032,2048
2047,2057,2037,2075,2062,2046,2048,2045
2041,2051,2028,2064,2058,2044,2046,2058
2048,2054,2028,2057,2053,2044,2037,2063
2049,2053,2030,2043,2048,2049,2041,2065
2038,2047,2026,2034,2053,2054,2040,2070
2036,2042,2017,2021,2058,2062,2042,2074
2042,2039,2029,2028,2067,2065,2052,2081
2041,2046,2033,2031,2067,2067,2057,2086
2050,2049,2045,2042,2073,2069,2065,2086
2048,2052,2055,2046,2070,2068,2054,2088
2049,2043,2046,2043,2064,2063,2049,2088
2038,2043,2028,2032,2055,2059,2043,2081
2044,2043,2033,2033,2044,2050,2035,2085
2050,2051,2045,2030,2037,2046,2028,2081
2049,2060,2066,2029,2047,2052,2047,2078
2051,2068,2078,2031,2056,2052,2057,2070
2060,2065,2077,2027,2060,2060,2056,2068
2059,2062,2063,2030,2052,2050,2053,2061
2051,2054,2059,2025,2047,2041,2047,2057
2056,2055,2052,2027,2049,2047,2059,2062
2052,2053,2058,2033,2048,2046,2057,2052
2053,2051,2065,2043,2052,2040,2032,2045
2050,2057,2066,2047,2051,2037,2040,2048
2048,2055,2071,2057,2055,2043,2049,2051
2054,2056,2071,2060,2053,2046,2054,2050
2057,2056,2070,2063,2062,2052,2046,2046
2050,2058,2070,2053,2058,2043,2034,2030
2046,2046,2063,2050,2061,2044,2041,2033
2045,2053,2072,2055,2063,2050,2052,2037
2058,2060,2064,2058,2059,2049,2064,2050
2051,2055,2061,2053,2055,2045,2057,2049
2052,2052,2051,2050,2055,2049,2067,2050
2051,2047,2042,2033,2058,2056,2066,2058
2053,2047,2036,2033,2048,2060,2071,2067
2053,2050,2030,2029,2048,2062,2063,2069
2055,2050,2012,2025,2046,2058,2068,2067
2060,2045,2007,2019,2051,2056,2061,2079
2057,2047,2016,2021,2058,2061,2050,2085
2051,2047,2022,2028,2049,2066,2070,2084
2053,2044,2026,2028,2058,2068,2055,2082
2053,2043,2029,2035,2058,2066,2054,2086
2051,2041,2037,2038,2055,2069,2026,2084
2051,2046,2038,2034,2052,2061,2039,2081
2039,2040,2032,2030,2048,2065,2039,2078
2039,2032,2027,2029,2053,2055,2054,2079
2048,2041,2040,2035,2057,2042,2024,2076
2038,2037,2042,2031,2044,2012,2003,2069
2046,2044,2044,2034,2050,2006,2023,2069
2042,2051,2055,2032,2046,2020,2032,2067
2062,2052,2066,2041,2051,2040,2048,2068
2059,2060,2068,2041,2052,2052,2050,2061
2064,2056,2066,2050,2049,2060,2043,2052
2062,2058,2065,2049,2050,2065,2047,2045
2051,2056,2059,2045,2044,2062,2048,2034
2049,2056,2063,2047,2051,2056,2038,2035
2052,2056,2059,2050,2049,2053,2050,2035
2054,2056,2053,2051,2047,2047,2038,2032
2055,2046,2042,2055,2040,2023,2035,2034
2058,2052,2044,2056,2036,2003,2031,2034
2056,2045,2043,2053,2033,2011,2013,2033
2053,2046,2050,2048,2035,2009,2028,2034
2064,2054,2058,2055,2035,2024,2046,2035
2055,2056,2052,2056,2032,2032,2050,2032
2054,2049,2052,2053,2041,2044,2054,2034
2052,2052,2056,2058,2041,2047,2050,2033
2052,2052,2055,2055,2044,2045,2045,2039
2044,2046,2050,2053,2042,2041,2064,2038
2047,2044,2049,2053,2042,2041,2045,2049
2045,2048,2045,2058,2041,2044,2052,2062
2047,2043,2045,2054,2044,2045,2063,2064
2043,2041,2043,2046,2054,2045,2069,2064
2040,2046,2039,2042,2070,2049,2047,2076
2043,2050,2040,2034,2062,2045,2040,2077
2040,2052,2042,2033,2061,2038,2052,2076
2040,2046,2050,2029,2048,2036,2048,2072
2033,2038,2037,2022,2037,2032,2023,2077
2036,2032,2036,2025,2042,2034,2026,2074
2032,2042,2040,2033,2049,2045,2046,2081
2047,2041,2044,2040,2052,2049,2046,2079
2049,2047,2038,2044,2049,2051,2052,2080
2051,2048,2042,2038,2048,2047,2050,2071
2049,2042,2041,2041,2042,2034,2045,2065
2049,2050,2061,2047,2038,2036,2031,2061
2054,2056,2062,2046,2038,2034,2035,2064
2056,2051,2049,2042,2043,2034,2040,2061
2051,2052,2056,2044,2046,2032,2055,2056
2054,2054,2055,2046,2047,2037,2057,2054
2058,2055,2055,2045,2051,2038,2044,2051
2047,2050,2048,2050,2058,2044,2038,2047
2039,2045,2036,2043,2056,2041,2046,2041
2042,2036,2031,2043,2061,2035,2036,2032
2039,2036,2035,2046,2058,2043,2024,2032
2037,2038,2039,2050,2065,2061,2037,2033
2039,2045,2052,2054,2072,2077,2054,2037
2047,2058,2056,2051,2076,2082,2065,2041
2050,2054,2055,2051,2081,2097,2063,2043
2047,2054,2051,2052,2069,2098,2088,2046
2047,2051,2048,2057,2078,2088,2065,2040
2044,2043,2044,2052,2076,2056,2060,2047
2047,2039,2045,2052,2064,2037,2057,2043
2045,2038,2046,2054,2059,2045,2054,2050
2041,2042,2037,2056,2062,2043,2045,2054
2045,2028,2034,2052,2059,2041,2038,2058
2033,2022,2023,2040,2050,2035,2046,2067
2035,2020,2016,2045,2054,2040,2050,2072
2037,2018,2009,2049,2070,2045,2046,2077
2033,2018,2003,2041,2064,2049,2051,2078
2025,2012,1993,2025,2046,2033,2009,2068
2022,2002,1981,2021,2047,2038,2028,2068
2025,2013,1987,2038,2054,2045,2041,2070
2037,2024,1989,2045,2056,2050,2052,2067
2035,2022,1999,2046,2051,2053,2039,2056
2039,2020,1997,2037,2046,2060,2046,2058
2040,2020,1997,2029,2043,2071,2042,2057
2044,2029,2005,2030,2042,2073,2041,2052
2044,2032,2014,2028,2039,2077,2044,2041
2044,2035,2030,2043,2034,2080,2038,2038
2051,2039,2041,2054,2050,2072,2048,2041
2053,2050,2061,2060,2057,2019,2050,2051
2057,2061,2069,2064,2059,2007,2034,2051
2069,2072,2073,2059,2060,2014,2048,2046
2069,2080,2079,2060,2056,2033,2054,2038
2062,2085,2091,2068,2058,2044,2043,2034
2061,2072,2066,2041,2052,2026,2033,2031
2042,2054,2045,2018,2036,2027,2034,2040
2049,2064,2061,2023,2042,2038,2040,2046
2059,2081,2074,2038,2034,2042,2041,2049
2059,2089,2071,2036,2039,2051,2058,2058
2066,2096,2068,2049,2052,2054,2064,2070
2065,2088,2080,2064,2066,2061,2065,2066
2068,2081,2070,2067,2068,2062,2072,2067
2058,2073,2065,2068,2074,2070,2069,2074
2059,2072,2065,2072,2076,2073,2076,2066
2059,2064,2060,2074,2076,2073,2063,2075
2061,2069,2054,2072,2072,2068,2069,2084
2052,2061,2053,2069,2054,2071,2073,2086
2054,2060,2037,2067,2052,2063,2070,2089
2054,2054,2042,2066,2034,2052,2058,2091
2051,2048,2041,2073,2018,2045,2060,2086
2046,2050,2051,2065,2006,2033,2045,2075
2044,2043,2061,2060,2009,2022,2031,2080
2040,2051,2082,2063,2012,2022,2036,2080
2047,2058,2094,2061,2014,2020,2038,2075
2046,2057,2092,2054,2014,2021,2050,2074
2045,2060,2085,2044,2040,2034,2042,2070
2048,2063,2090,2051,2054,2045,2027,2065
2057,2070,2091,2050,2049,2044,2068,2055
2051,2067,2095,2046,2047,2049,2075,2052
2054,2064,2081,2040,2055,2051,2041,2050
2057,2070,2084,2051,2055,2050,2048,2048
2059,2070,2075,2045,2046,2047,2035,2041
2051,2063,2070,2047,2025,2038,2028,2042
2049,2061,2061,2036,2018,2042,2040,2045
2052,2059,2058,2033,2036,2045,2042,2037
2049,2060,2048,2033,2045,2045,2049,2033
2049,2050,2045,2017,2049,2043,2034,2034
2040,2049,2040,2020,2063,2050,2043,2039
2043,2057,2039,2036,2084,2064,2065,2039
2051,2055,2052,2042,2126,2069,2052,2045
2051,2060,2050,2051,2158,2071,2030,2048
2055,2057,2048,2050,2156,2077,2057,2055
2061,2060,2046,2055,2141,2072,2057,2055
2054,2058,2049,2052,2131,2064,2067,2060
2054,2054,2043,2039,2086,2059,2065,2053
2050,2052,2044,2046,2112,2071,2062,2064
2055,2048,2044,2053,2104,2073,2064,2070
2051,2048,2047,2047,2017,2058,2066,2077
2047,2036,2033,2013,1838,2012,2067,2069
2044,2032,2034,1998,1817,2001,2055,2078
2043,2040,2043,2020,1920,2022,2056,2086
2045,2037,2047,2032,1962,2027,2055,2082
2035,2032,2039,2032,1984,2023,2060,2079
2031,2030,2042,2035,2009,2031,2060,2086
2043,2037,2046,2048,2033,2039,2058,2083
2043,2037,2045,2051,2031,2036,2044,2082
2047,2041,2042,2063,2026,2037,2062,2076
2057,2061,2059,2064,2031,2037,2066,2075
2060,2065,2051,2061,2010,2034,2049,2060
2056,2056,2033,2061,2030,2037,2046,2061
2053,2046,2018,2066,2108,2037,2045,2043
2039,2036,2007,2060,2141,2041,2059,2033
2044,2040,2007,2065,2129,2046,2068,2038
2041,2041,2016,2064,2101,2049,2073,2043
2048,2041,2020,2061,2090,2045,2064,2044
2044,2044,2017,2054,2082,2041,2060,2041
2043,2048,2018,2042,2073,2037,2038,2040
2046,2049,2027,2042,2084,2052,2056,2031
2043,2038,2025,2039,2109,2059,2046,2027
2041,2040,2038,2039,2059,2053,2044,2033
2044,2047,2052,2035,1967,2054,2065,2043
2044,2052,2059,2043,2004,2062,2054,2048
2046,2049,2065,2049,2007,2056,2046,2050
2044,2054,2064,2045,2020,2053,2065,2055
2049,2052,2069,2053,2072,2036,2056,2065
2048,2050,2080,2054,2116,2042,2067,2067
2053,2057,2098,2074,2186,2075,2073,2075
2057,2072,2115,2098,2221,2108,2087,2079
2058,2080,2111,2101,2212,2123,2089,2089
2060,2076,2100,2099,2163,2111,2080,2092
2058,2058,2083,2091,2137,2107,2073,2091
2056,2059,2068,2080,2072,2098,2077,2099
2052,2062,2064,2067,1957,2080,2065,2096
2060,2064,2064,2043,1892,2072,2072,2088
2053,2054,2054,2045,1952,2067,2067,2088
2054,2054,2060,2046,1975,2040,2062,2090
2056,2061,2054,2039,2034,2012,2051,2077
2053,2051,2036,2039,2085,2002,2016,2060
2047,2040,2030,2028,2031,1987,2018,2063
2041,2029,2027,2018,1934,1970,2009,2049
2053,2042,2034,2019,1909,1988,2033,2060
2050,2046,2045,2021,1928,2018,2015,2049
2047,2048,2043,2013,1944,2030,2014,2039
2041,2038,2043,1997,1956,2033,2003,2023
2039,2036,2042,1997,1947,2032,2014,2018
2047,2046,2042,2013,1970,2012,2032,2021
2056,2043,2056,2025,2046,2000,2012,2035
2068,2053,2074,2052,2102,2031,2047,2040
2065,2060,2096,2076,2111,2051,2058,2041
2058,2057,2098,2077,2103,2046,2049,2033
2049,2041,2076,2078,2091,2041,2044,2037
2049,2045,2063,2082,2098,2047,2048,2040
2047,2044,2042,2079,2090,2039,2038,2036
2045,2040,2032,2074,2067,2041,2051,2042
2052,2049,2040,2072,2071,2052,2052,2056
2058,2061,2063,2085,2076,2064,2069,2054
2058,2068,2079,2090,2046,2050,2065,2060
2063,2074,2089,2098,2024,2042,2054,2065
2060,2068,2087,2088,2006,2042,2039,2070
2067,2063,2085,2090,2030,2045,2035,2071
2058,2060,2069,2083,2096,2054,2051,2075
2051,2055,2067,2074,2094,2062,2024,2082
2054,2058,2056,2048,2000,2047,2055,2083
2046,2052,2052,2047,2034,2044,2043,2084
2061,2058,2056,2073,2085,2043,2033,2084
2058,2056,2056,2071,2020,2027,2026,2070
2047,2046,2050,2065,1994,2020,2033,2073
2047,2045,2035,2039,2002,2014,2033,2070
2037,2037,2010,2003,1983,1996,2022,2070
2035,2028,1999,1970,1968,2000,2026,2062
2032,2032,2001,1929,2014,2024,2032,2064
2047,2043,1991,1947,2104,2067,2047,2068
2050,2040,1981,1958,2150,2107,2064,2065
2053,2035,1980,1956,2152,2137,2071,2065
2049,2036,1977,1958,2148,2171,2078,2054
2054,2036,1988,1982,2196,2187,2071,2048
2056,2043,1987,2014,2248,2181,2053,2047
2051,2035,1992,2031,2286,2147,2059,2045
2041,2037,1996,2037,2218,2085,2051,2038
2042,2038,2011,2058,2200,2049,2051,2044
2055,2048,2025,2083,2137,2062,2058,2034
2045,2035,2011,2055,2057,2042,2032,2024
2037,2025,2017,2048,2069,2033,2030,2028
2048,2047,2045,2054,2069,2030,2033,2035
2054,2055,2064,2047,1976,2016,2042,2032
2054,2051,2065,2024,1776,1976,2044,2028
2049,2049,2066,2009,1766,1974,2040,2031
2042,2047,2070,2027,1891,2002,2052,2044
2045,2047,2079,2064,2000,2016,2058,2056
2046,2052,2081,2060,2002,2005,2051,2059
2044,2050,2059,2052,1992,1993,2024,2056
2044,2044,2046,2045,1990,1988,2021,2060
2044,2036,2032,2037,1971,1988,2031,2066
2042,2027,2015,2022,1981,2000,2016,2070
2044,2031,2017,2030,2039,2045,2028,2084
2044,2041,2028,2050,2106,2071,2059,2083
2055,2053,2049,2066,2134,2091,2046,2093
2050,2047,2054,2068,2127,2085,2069,2082
2041,2049,2057,2061,2087,2065,2054,2079
2044,2059,2055,2051,2065,2064,2061,2082
2044,2053,2043,2048,2060,2071,2060,2075
2037,2040,2038,2044,2067,2064,2066,2070
2042,2036,2035,2043,2078,2064,2060,2063
2043,2048,2046,2050,2083,2058,2047,2055
2038,2050,2047,2037,2043,2035,2044,2045
2040,2057,2056,2042,2000,2035,2040,2036
2042,2063,2070,2063,2005,2030,2033,2032
2039,2057,2080,2067,2031,2013,2019,2025
2042,2063,2083,2069,2035,1997,2005,2028
2038,2059,2082,2063,2053,1989,2016,2028
2040,2055,2071,2072,2083,2004,2041,2032
2045,2061,2073,2070,2076,2015,2036,2031
2047,2056,2063,2047,1982,2004,2034,2021
2034,2040,2048,2027,1962,1989,2015,2021
2035,2038,2056,2045,2032,1991,2025,2032
2056,2057,2070,2062,2073,2012,2036,2038
2055,2064,2072,2066,2088,2029,2043,2044
2054,2062,2074,2070,2081,2033,2057,2037
2050,2057,2067,2064,2064,2038,2052,2041
2034,2050,2059,2059,2058,2051,2056,2030
2031,2037,2052,2057,2052,2064,2074,2026
2027,2048,2058,2046,2047,2077,2081,2033
2036,2047,2053,2048,2046,2092,2078,2052
2054,2055,2059,2058,2053,2095,2067,2056
2058,2056,2060,2063,2057,2062,2053,2064
2059,2047,2061,2054,2052,2029,2043,2067
2046,2045,2054,2068,2064,2040,2042,2067
2039,2051,2046,2085,2110,2064,2047,2077
2037,2049,2037,2086,2088,2069,2051,2076
2043,2036,2024,2064,2057,2074,2050,2076
2050,2032,2024,2065,2035,2069,2052,2082
2053,2046,2028,2070,2043,2075,2046,2086
2069,2052,2024,2065,2041,2072,2049,2079
2076,2049,2014,2058,2038,2080,2057,2067
2065,2044,2010,2054,2032,2079,2051,2053
2063,2029,2012,2054,2042,2083,2044,2038
2039,2026,2017,2057,2043,2070,2046,2035
2032,2026,2019,2062,2053,2045,2030,2036
2031,2028,2022,2068,2071,2032,2031,2042
2024,2038,2036,2079,2096,2042,2033,2035
2033,2048,2054,2089,2116,2040,2063,2032
2042,2046,2070,2085,2091,2042,2058,2032
2045,2041,2062,2073,2052,2048,2037,2031
2046,2047,2060,2070,2031,2041,2041,2035
2051,2050,2070,2054,2002,2034,2014,2033
2050,2045,2062,2024,1957,2028,2020,2036
2052,2052,2064,2018,1953,2031,2024,2043
2059,2065,2071,2019,1949,2039,2043,2048
2064,2072,2081,2027,1950,2046,2049,2046
2066,2072,2078,2038,1967,2048,2029,2050
2066,2066,2072,2033,1972,2052,2030,2050
2060,2069,2075,2033,1985,2060,2055,2054
2055,2067,2071,2021,1992,2050,2051,2049
2051,2060,2070,1996,1961,2031,2024,2054
2048,2063,2078,2008,2000,2039,2052,2055
2054,2068,2088,2027,2067,2050,2054,2057
2053,2073,2089,2034,2091,2054,2062,2074
2059,2069,2085,2050,2106,2055,2058,2079
2052,2066,2074,2056,2118,2064,2040,2084
2054,2065,2076,2063,2101,2071,2032,2085
2056,2063,2068,2058,2066,2070,2028,2087
2045,2049,2055,2047,2059,2062,2052,2088
2041,2052,2055,2047,2091,2064,2055,2082
2052,2065,2064,2056,2110,2076,2048,2080
2054,2064,2066,2060,2123,2078,2059,2076
2065,2074,2062,2062,2111,2078,2063,2082
2067,2068,2062,2057,2077,2057,2043,2072
2063,2064,2064,2051,2023,2040,2045,2070
2068,2061,2062,2055,2033,2036,2034,2060
2067,2067,2065,2055,2076,2039,2037,2062
2067,2062,2058,2043,2039,2036,2024,2048
2065,2066,2054,2045,2090,2056,2035,2039
2060,2057,2059,2056,2085,2064,2044,2035
2051,2056,2050,2060,2085,2071,2036,2036
2057,2054,2048,2058,2081,2070,2038,2038
2054,2056,2051,2045,2038,2067,2045,2032
2044,2046,2041,2028,1979,2052,2031,2029
2035,2043,2038,2026,2017,2054,2021,2028
2033,2043,2041,2040,2039,2049,2026,2040
2046,2068,2064,2052,2028,2016,2020,2050
2060,2079,2070,2057,2020,1990,2037,2056
2064,2078,2069,2055,2058,2000,2047,2061
2065,2073,2065,2049,2125,2042,2060,2055
2060,2069,2063,2070,2214,2098,2079,2061
2065,2067,2066,2078,2264,2123,2083,2064
2059,2061,2060,2072,2259,2123,2072,2061
2051,2060,2053,2076,2238,2131,2085,2065
2060,2055,2050,2079,2201,2121,2080,2069
2054,2054,2048,2065,2132,2101,2052,2075
2055,2046,2040,2050,2090,2079,2046,2077
2050,2045,2038,2047,2039,2055,2022,2072
2041,2049,2034,2035,1950,2012,2021,2075
2043,2048,2031,2040,1978,2029,2046,2072
2041,2038,2035,2049,1990,2051,2043,2072
2040,2043,2039,2060,2028,2084,2054,2077
2049,2057,2046,2064,2076,2110,2063,2082
2054,2062,2045,2064,2116,2123,2055,2079
2054,2058,2043,2067,2146,2134,2028,2077
2053,2051,2036,2074,2177,2139,2055,2069
2048,2056,2041,2053,2046,2088,2027,2067
2058,2062,2042,2018,1910,2035,2051,2053
2057,2052,2040,2018,1966,2022,2039,2045
2056,2050,2041,2017,1948,2003,2032,2037
2043,2053,2037,2020,1915,1978,2034,2039
2045,2061,2046,2047,1947,1974,2041,2033
2045,2051,2046,2064,1990,1988,2029,2028
2039,2049,2038,2062,1994,1998,2018,2021
2034,2045,2030,2068,2022,2032,2018,2014
2033,2043,2038,2080,2060,2065,2034,2027
2038,2039,2034,2070,2047,2065,2036,2024
2039,2037,2032,2060,2054,2061,2060,2034
2052,2051,2032,2068,2055,2064,2031,2040
2057,2040,2032,2066,2076,2069,2049,2049
2048,2050,2039,2076,2093,2077,2053,2041
2049,2057,2050,2077,2109,2070,2061,2046
2052,2046,2043,2073,2130,2071,2078,2048
2050,2041,2042,2074,2133,2089,2077,2053
2039,2045,2052,2073,2095,2079,2074,2062
2047,2052,2044,2068,2073,2080,2075,2067
2051,2049,2040,2075,2100,2092,2066,2074
2054,2049,2040,2082,2087,2100,2069,2076
2049,2041,2032,2059,2057,2085,2067,2081
2044,2043,2029,2048,2033,2062,2063,2073
2041,2041,2028,2047,2028,2033,2043,2068
2042,2041,2037,2056,2041,2034,2031,2075
2040,2041,2036,2063,2050,2043,2066,2079
2037,2043,2042,2076,2065,2041,2080,2084
2046,2057,2049,2076,2056,2030,2060,2079
2051,2050,2049,2078,2058,2018,2038,2075
2048,2051,2058,2087,2090,2010,2036,2064
2040,2050,2058,2079,2071,1991,2030,2058
2046,2042,2049,2053,1978,1966,2027,2048
2035,2045,2047,2045,2007,1955,2012,2039
2037,2047,2051,2052,2068,1992,2024,2034
2040,2049,2052,2069,2080,2020,2030,2034
2042,2054,2058,2081,2077,2024,2030,2034
2048,2060,2068,2083,2060,2013,2031,2034
2053,2061,2065,2079,2047,2008,2005,2029
2046,2055,2055,2064,2032,2004,2010,2026
2049,2056,2049,2060,2027,2013,2013,2032
2044,2055,2047,2056,2022,2012,2015,2034
2041,2049,2038,2046,2037,2015,2006,2023
2037,2046,2044,2043,2040,2018,2022,2039
2046,2056,2049,2048,2049,2023,2031,2044
2048,2052,2049,2050,2043,2026,2018,2037
2043,2052,2055,2050,2041,2030,2019,2040
2040,2051,2054,2057,2061,2040,2035,2044
2043,2058,2067,2072,2089,2046,2025,2049
2044,2054,2063,2083,2095,2031,2035,2055
2050,2053,2052,2080,2084,2017,2042,2054
2038,2039,2038,2067,2075,2018,2033,2043
2037,2042,2043,2077,2088,2045,2036,2058
2045,2039,2041,2083,2079,2053,2049,2065
2044,2041,2040,2082,2014,2057,2057,2078
2049,2045,2019,2057,1966,2042,2060,2076
2048,2036,2011,2042,1957,2031,2039,2071
2043,2035,2009,2028,1920,2037,2048,2069
2037,2029,2005,2024,1930,2050,2034,2070
2030,2024,1997,2032,1976,2080,2056,2077
2045,2036,2000,2037,1990,2091,2060,2078
2043,2032,1999,2025,2011,2092,2066,2076
2042,2027,2006,2021,2029,2072,2050,2072
2047,2043,2012,2016,2052,2068,2052,2067
2054,2043,2023,2041,2136,2079,2050,2061
2060,2054,2034,2077,2180,2091,2053,2066
2058,2057,2054,2100,2178,2095,2045,2062
2061,2054,2052,2094,2127,2103,2045,2051
2061,2057,2047,2075,2051,2089,2039,2042
2048,2052,2036,2048,2018,2077,2036,2029
2036,2038,2025,2045,2057,2049,2036,2020
2030,2040,2018,2043,2071,2037,2030,2027
2032,2041,2024,2043,2073,2041,2022,2014
2029,2038,2028,2044,2081,2046,2035,2020
2032,2036,2025,2040,2057,2029,2018,2021
2035,2043,2031,2038,2058,2027,2021,2023
2051,2070,2063,2060,2083,2060,2036,2039
2060,2081,2073,2067,2111,2076,2048,2039
2052,2086,2078,2074,2114,2088,2045,2044
2053,2084,2073,2075,2104,2088,2037,2044
2048,2072,2056,2058,2032,2075,2038,2045
2048,2066,2056,2044,1991,2051,2039,2046
2041,2066,2054,2052,2011,2041,2047,2050
2046,2068,2054,2058,2022,2037,2060,2054
2047,2058,2052,2054,2031,2038,2048,2050
2048,2050,2044,2046,2040,2032,2054,2045
2043,2049,2041,2050,2026,2032,2048,2046
2040,2045,2040,2050,2051,2040,2060,2058
2038,2047,2038,2048,2069,2040,2052,2060
2028,2045,2039,2050,2115,2050,2051,2059
2027,2034,2029,2049,2164,2066,2032,2066
2031,2030,2029,2056,2189,2080,2048,2074
2035,2039,2030,2059,2172,2095,2056,2067
2039,2045,2032,2054,2145,2096,2051,2057
2037,2049,2028,2046,2098,2078,2045,2063
2041,2049,2025,2042,2043,2061,2029,2053
2045,2039,2020,2025,1909,2035,2011,2041
2044,2043,2013,2030,1895,1999,2022,2037
2040,2049,2025,2045,1954,1982,2020,2047
2049,2057,2033,2055,1985,2010,2028,2046
2059,2062,2034,2053,1974,2044,2061,2048
2060,2063,2033,2054,1993,2057,2046,2049
2058,2064,2032,2046,2004,2054,2040,2042
2055,2064,2022,2048,2010,2038,2038,2031
2050,2057,2030,2056,2040,2024,2045,2028
2042,2051,2037,2076,2076,2051,2052,2023
2035,2039,2033,2073,2072,2040,2029,2019
2032,2032,2035,2054,2048,2021,2036,2025
2040,2038,2039,2058,2057,2026,2031,2036
2043,2039,2037,2066,2092,2052,2045,2038
2048,2044,2048,2066,2090,2048,2054,2037
2045,2050,2070,2068,2060,2046,2066,2047
2051,2055,2094,2081,2035,2045,2053,2047
2054,2057,2098,2087,2009,2039,2043,2055
2048,2054,2097,2088,1997,2041,2041,2050
2042,2050,2093,2098,2027,2036,2033,2050
2049,2048,2086,2100,2048,2051,2033,2054
2045,2045,2077,2095,2037,2045,2049,2057
2044,2039,2063,2083,2030,2040,2038,2062
2036,2032,2049,2066,2010,2038,2039,2068
2034,2046,2053,2085,2025,2051,2050,2081
2041,2058,2064,2102,2060,2059,2055,2071
2048,2056,2063,2099,2102,2056,2061,2064
2037,2047,2052,2092,2158,2052,2041,2066
2034,2043,2047,2069,2147,2043,2037,2063
2036,2046,2025,2033,2095,2027,2036,2067
2038,2042,2022,2017,2032,2022,2033,2054
2038,2042,2029,2020,2000,2022,2026,2058
2055,2049,2047,2023,1992,2031,2033,2047
2053,2050,2047,2022,1997,2033,2036,2041
2053,2050,2048,2025,2005,2038,2046,2037
2050,2055,2053,2026,2014,2044,2046,2039
2053,2052,2052,2028,2031,2060,2066,2040
2052,2045,2052,2039,2059,2080,2042,2039
2051,2051,2046,2046,2070,2083,2027,2025
2046,2046,2042,2055,2088,2076,2045,2021
2045,2035,2040,2049,2084,2064,2047,2027
2044,2047,2043,2055,2068,2029,2040,2034
2043,2053,2049,2060,2066,2020,2036,2025
2039,2048,2041,2055,2063,2022,2040,2028
2043,2050,2043,2064,2066,2026,2046,2026
2043,2052,2040,2060,2064,2014,2035,2021
2038,2043,2036,2050,2058,2008,2033,2019
2036,2037,2028,2053,2058,2010,2039,2022
2041,2041,2025,2048,2061,2025,2038,2030
2037,2040,2026,2057,2060,2029,2038,2031
2041,2032,2025,2057,2059,2038,2049,2034
2037,2030,2020,2054,2065,2053,2073,2038
2035,2031,2019,2058,2068,2060,2060,2041
2029,2022,2021,2059,2067,2070,2060,2042
2028,2020,2016,2055,2071,2075,2030,2052
2033,2024,2022,2055,2071,2081,2051,2060
2039,2037,2018,2059,2068,2062,2054,2066
2046,2040,2013,2064,2074,2042,2038,2070
2045,2033,2002,2049,2054,2041,2018,2057
2038,2017,1993,2042,2023,2033,2033,2053
2034,2023,2004,2044,2001,2030,2027,2054
2032,2030,2010,2048,1997,2021,2031,2045
2027,2030,2010,2040,1995,2025,2042,2038
2033,2031,2014,2041,2005,2039,2047,2053
2047,2047,2032,2058,2043,2060,2049,2057
2060,2053,2046,2069,2076,2069,2051,2053
2070,2064,2054,2081,2105,2071,2073,2046
2067,2075,2059,2091,2114,2076,2048,2049
2058,2077,2058,2084,2106,2072,2062,2043
2062,2076,2057,2080,2089,2060,2061,2035
2060,2065,2045,2064,2074,2050,2070,2037
2044,2051,2026,2040,2048,2040,2060,2032
2038,2033,2020,2030,2008,2030,2057,2031
2027,2033,2035,2034,2009,2030,2059,2028
2034,2042,2059,2041,1999,2027,2038,2027
2033,2035,2060,2046,2006,2034,2027,2024
2038,2040,2060,2050,2010,2054,2049,2030
2052,2061,2069,2059,2001,2058,2036,2039
2054,2065,2073,2064,1994,2065,2057,2043
2065,2073,2086,2071,1997,2066,2060,2041
2058,2074,2096,2055,1956,2023,2023,2046
2052,2071,2090,2047,1995,2004,2021,2038
2044,2066,2087,2046,2045,2027,2037,2040
2043,2066,2085,2048,2052,2042,2023,2041
2044,2062,2083,2041,2040,2036,2025,2054
2052,2061,2068,2047,2041,2027,2019,2056
2052,2063,2069,2048,2042,2014,2018,2068
2050,2061,2068,2067,2076,2007,2036,2076
2054,2064,2068,2076,2122,2013,2045,2077
2056,2064,2067,2069,2124,2023,2056,2080
2049,2056,2059,2069,2121,2039,2064,2080
2043,2051,2050,2068,2102,2043,2061,2080
2043,2047,2046,2056,2089,2048,2047,2078
2047,2050,2047,2064,2084,2046,2041,2072
2046,2045,2042,2060,2070,2040,2047,2064
2043,2045,2039,2052,2056,2037,2058,2058
2040,2049,2041,2050,2052,2032,2063,2062
2046,2052,2040,2054,2050,2038,2060,2058
2055,2063,2043,2056,2050,2056,2068,2055
2064,2060,2048,2059,2042,2064,2052,2051
2061,2057,2051,2044,2024,2076,2066,2048
2061,2058,2050,2044,2012,2095,2065,2038
2051,2052,2042,2045,2000,2112,2041,2025
2042,2048,2036,2038,1995,2106,2053,2020
2040,2041,2027,2036,2010,2088,2057,2021
2046,2044,2035,2049,2026,2024,2048,2021
2045,2055,2050,2062,2042,1973,2035,2009
2034,2043,2038,2052,2023,1990,2030,2003
2038,2037,2034,2045,2037,2030,2052,2013
2042,2043,2042,2055,2088,2075,2063,2025
2044,2043,2040,2062,2099,2092,2075,2027
2050,2044,2036,2066,2112,2107,2080,2032
2048,2047,2041,2070,2143,2114,2081,2037
2048,2051,2048,2077,2144,2107,2076,2041
2051,2057,2044,2071,2124,2095,2078,2046
2054,2054,2048,2067,2083,2076,2072,2045
2051,2056,2048,2062,2046,2062,2051,2053
2055,2055,2050,2064,2049,2061,2065,2060
2054,2053,2050,2073,2101,2092,2073,2062
2060,2054,2046,2072,2118,2093,2057,2065
2059,2051,2041,2065,2092,2065,2050,2067
2054,2047,2046,2057,2049,2025,2039,2069
2048,2048,2039,2051,2028,2013,2025,2062
2054,2050,2040,2042,2016,2024,2009,2060
2041,2044,2037,2043,2025,2040,2000,2054
2037,2043,2039,2039,2049,2052,2039,2058
2045,2052,2043,2049,2051,2068,2045,2058
2049,2055,2043,2050,2046,2068,2051,2056
2055,2054,2047,2040,2033,2059,2058,2055
2053,2054,2043,2038,2041,2044,2053,2043
2045,2054,2040,2040,2044,2029,2032,2042
2046,2050,2041,2045,2040,2025,2037,2036
2045,2048,2039,2048,2038,2030,2035,2029
2041,2047,2035,2047,2037,2041,2053,2024
2041,2041,2037,2046,2036,2052,2065,2029
2045,2044,2041,2047,2039,2051,2059,2024
2044,2042,2043,2046,2042,2046,2051,2019
2042,2048,2046,2045,2044,2051,2061,2021
2046,2048,2050,2047,2046,2057,2080,2019
2041,2053,2045,2049,2044,2051,2058,2015
2034,2041,2041,2045,2043,2047,2064,2016
2035,2040,2040,2051,2046,2047,2045,2020
2044,2051,2052,2056,2041,2054,2059,2021
2046,2053,2050,2053,2044,2049,2065,2026
2043,2046,2044,2051,2046,2057,2054,2030
2043,2051,2042,2047,2051,2059,2067,2034
2045,2049,2046,2049,2052,2070,2064,2036
2039,2046,2038,2051,2054,2069,2076,2034
2040,2043,2038,2049,2044,2067,2066,2040
2036,2046,2040,2048,2042,2061,2071,2044
2041,2040,2042,2044,2037,2056,2080,2050
2041,2036,2041,2038,2034,2053,2060,2061
2041,2042,2032,2033,2044,2056,2068,2063
2038,2041,2030,2037,2050,2051,2067,2063
2040,2042,2027,2041,2057,2047,2052,2079
2043,2047,2031,2035,2046,2035,2030,2067
2034,2036,2026,2035,2040,2033,2023,2062
2030,2035,2022,2034,2046,2046,2036,2068
2045,2049,2031,2040,2049,2060,2058,2069
2050,2058,2040,2047,2051,2060,2055,2071
2049,2048,2037,2049,2048,2052,2063,2060
2052,2059,2046,2052,2045,2056,2057,2056
2054,2052,2044,2035,2042,2051,2017,2051
2050,2054,2042,2042,2042,2050,2031,2043
2055,2051,2042,2045,2037,2054,2021,2044
2048,2055,2043,2041,2045,2047,2017,2034
2046,2054,2045,2053,2051,2050,2044,2029
2045,2050,2048,2046,2044,2053,2041,2029
2048,2052,2043,2047,2039,2045,2032,2021
2049,2056,2042,2049,2043,2040,2038,2033
2051,2052,2040,2040,2040,2040,2039,2030
2047,2050,2038,2039,2034,2018,2012,2020
2043,2043,2026,2034,2029,2013,2025,2025
2044,2040,2028,2036,2041,2049,2044,2028
2040,2052,2037,2041,2047,2062,2047,2028
2042,2048,2038,2047,2055,2069,2060,2029
2040,2045,2041,2050,2052,2067,2046,2024
2041,2044,2041,2049,2057,2070,2054,2025
2039,2049,2046,2043,2060,2076,2063,2030
2043,2042,2047,2046,2056,2078,2055,2037
2042,2042,2046,2051,2056,2070,2064,2038
2047,2043,2045,2049,2060,2071,2027,2047
2053,2049,2048,2052,2057,2078,2047,2057
2051,2050,2045,2049,2062,2086,2064,2053
2054,2046,2040,2047,2058,2074,2064,2062
2047,2037,2042,2046,2058,2055,2046,2057
2040,2042,2038,2044,2060,2048,2023,2053
2039,2039,2030,2038,2046,2016,2018,2053
2037,2026,2030,2039,2039,2002,2030,2052
2032,2033,2035,2045,2048,2022,2038,2056
2049,2044,2043,2046,2052,2029,2040,2060
2056,2047,2045,2046,2049,2030,2047,2052
2057,2049,2043,2047,2044,2032,2046,2056
2055,2051,2044,2049,2045,2040,2049,2041
2057,2052,2045,2051,2045,2048,2036,2037
2057,2048,2048,2052,2056,2057,2027,2034
2057,2051,2051,2056,2056,2065,2045,2029
2062,2046,2054,2057,2057,2086,2067,2032
2056,2053,2048,2055,2061,2088,2058,2031
2054,2045,2053,2051,2056,2096,2058,2024
2055,2043,2046,2057,2059,2088,2052,2020
2047,2047,2043,2057,2057,2080,2049,2015
2047,2041,2039,2048,2047,2064,2037,2014
2041,2036,2039,2044,2042,2000,2030,2011
2036,2029,2038,2043,2037,1983,2015,2010
2037,2039,2044,2051,2057,2006,2035,2021
2040,2040,2043,2053,2059,2024,2038,2025
2039,2039,2031,2044,2055,2037,2062,2031
2047,2036,2028,2047,2048,2029,2048,2030
2047,2044,2028,2047,2045,2024,2049,2031
2050,2042,2038,2045,2047,2026,2040,2036
2053,2048,2040,2046,2046,2016,2042,2041
2052,2056,2046,2043,2051,2023,2041,2048
2057,2054,2048,2047,2044,2031,2035,2062
2056,2058,2050,2043,2038,2031,2052,2056
2054,2055,2055,2052,2050,2044,2044,2063
2048,2042,2048,2045,2060,2059,2048,2061
2040,2041,2049,2046,2058,2064,2037,2061
2041,2041,2055,2048,2057,2062,2064,2067
2048,2043,2051,2044,2054,2051,2052,2062
2037,2041,2050,2045,2046,2043,2060,2064
2043,2049,2053,2049,2051,2042,2059,2073
2043,2045,2050,2042,2037,2040,2067,2072
2042,2042,2045,2041,2040,2045,2067,2068
2045,2043,2046,2044,2044,2053,2077,2058
2059,2050,2049,2049,2048,2055,2088,2059
2057,2054,2054,2049,2038,2043,2084,2061
2069,2064,2050,2052,2046,2054,2083,2061
2064,2063,2055,2053,2052,2058,2076,2055
2058,2058,2049,2048,2048,2057,2057,2047
2056,2056,2046,2049,2049,2053,2043,2030
2058,2055,2045,2053,2060,2050,2041,2018
2055,2053,2043,2060,2052,2057,2043,2012
2049,2053,2040,2052,2053,2060,2033,2002
2048,2053,2046,2060,2067,2035,2037,1995
2041,2036,2029,2051,2045,2000,2010,1990
2036,2031,2027,2045,2043,2006,2038,1997
2041,2040,2035,2055,2047,2019,2031,2018
2039,2041,2040,2052,2054,2023,2057,2027
2050,2048,2046,2053,2052,2040,2063,2037
2055,2052,2043,2054,2053,2044,2072,2037
2060,2050,2050,2056,2060,2045,2070,2040
2056,2044,2045,2063,2068,2071,2054,2049
2051,2043,2039,2059,2069,2073,2070,2052
2048,2041,2043,2061,2074,2083,2060,2056
2042,2040,2045,2065,2073,2106,2048,2052
2042,2036,2034,2064,2073,2130,2056,2053
2039,2035,2035,2069,2087,2107,2055,2059
2035,2039,2037,2067,2074,2030,2040,2062
2038,2038,2049,2068,2064,2008,2043,2064
2038,2040,2045,2062,2056,2046,2046,2063
2027,2031,2033,2044,2045,2051,2034,2063
2037,2030,2026,2046,2039,2054,2045,2059
2038,2040,2038,2040,2039,2051,2035,2049
2030,2036,2032,2044,2040,2032,2015,2043
2035,2030,2024,2038,2029,2056,2006,2040
2042,2039,2029,2036,2038,2068,2005,2039
2051,2054,2044,2041,2042,2082,2024,2049
2059,2072,2058,2050,2046,2079,2041,2040
2066,2068,2054,2044,2040,2047,2034,2039
2064,2065,2061,2041,2045,2041,2038,2039
2066,2067,2059,2043,2047,2056,2059,2042
2067,2065,2065,2049,2058,2075,2043,2036
2065,2065,2069,2049,2061,2070,2038,2023
2060,2066,2063,2049,2056,2054,2059,2031
2060,2056,2058,2046,2047,2040,2064,2020
2056,2059,2055,2043,2037,2032,2027,2023
2047,2043,2048,2037,2029,2022,2016,2004
2028,2039,2051,2035,2032,2026,2026,2012
2032,2041,2058,2043,2037,2030,2020,2010
2038,2040,2056,2045,2045,2032,2038,2018
2039,2042,2050,2045,2039,2033,2039,2023
2043,2040,2047,2041,2034,2035,2020,2029
2041,2042,2047,2050,2045,2038,2046,2037
2043,2045,2042,2046,2051,2045,2026,2046
2045,2045,2034,2039,2040,2048,2024,2054
2048,2041,2040,2040,2052,2062,2056,2058
2038,2038,2043,2041,2053,2065,2060,2062
2037,2034,2047,2048,2057,2058,2049,2057
2036,2034,2042,2045,2058,2052,2042,2066
2031,2032,2035,2044,2054,2039,2020,2066
2033,2033,2039,2046,2048,2016,2007,2063
2031,2033,2030,2035,2037,2012,2002,2058
2027,2028,2029,2026,2038,2016,1991,2058
2031,2033,2031,2034,2037,2037,2013,2062
2043,2052,2039,2037,2033,2053,2012,2066
2057,2058,2040,2037,2039,2058,2047,2076
2063,2065,2046,2040,2046,2072,2057,2072
2069,2067,2042,2039,2051,2075,2072,2071
2064,2061,2041,2040,2040,2056,2056,2052
2058,2062,2039,2035,2037,2058,2048,2039
2050,2054,2036,2037,2041,2073,2048,2036
2050,2050,2036,2037,2038,2088,2053,2036
2052,2051,2039,2038,2049,2091,2060,2038
2050,2047,2041,2040,2051,2089,2049,2038
2053,2049,2039,2036,2043,2085,2054,2030
2056,2047,2042,2038,2042,2084,2057,2033
2056,2045,2041,2042,2047,2079,2046,2037
2055,2045,2050,2042,2050,2054,2057,2032
2049,2036,2048,2042,2054,2042,2058,2029
2056,2038,2046,2040,2060,2035,2080,2035
2067,2056,2058,2050,2059,2033,2093,2041
2064,2053,2056,2050,2063,2023,2091,2043
2055,2049,2052,2049,2065,2022,2077,2041
2049,2052,2059,2049,2063,2030,2072,2043
2044,2051,2058,2050,2062,2032,2081,2052
2053,2049,2049,2046,2045,2040,2064,2059
2052,2048,2051,2047,2047,2040,2050,2059
2055,2042,2048,2045,2046,2019,2038,2059
2056,2043,2055,2043,2037,2021,2042,2058
2045,2042,2059,2040,2028,2035,2031,2058
2043,2041,2057,2037,2031,2043,2021,2070
2044,2048,2062,2040,2030,2059,2026,2080
2057,2056,2066,2041,2036,2068,2042,2081
2058,2054,2071,2046,2040,2040,2017,2064
2055,2045,2057,2030,2025,1988,2012,2058
2043,2036,2050,2025,2018,1992,2024,2061
2048,2051,2061,2032,2038,2022,2038,2068
2059,2050,2060,2043,2074,2048,2050,2066
2059,2054,2058,2038,2104,2060,2046,2056
2058,2048,2047,2038,2107,2070,2054,2051
2062,2050,2054,2039,2121,2086,2057,2078
2059,2049,2048,2032,2106,2075,2052,2070
2059,2042,2046,2029,2086,2066,2051,2059
2057,2043,2042,2029,2074,2057,2030,2053
2056,2049,2051,2034,2069,2059,2054,2051
2064,2051,2051,2036,1986,2045,2065,2042
2054,2044,2047,2020,1889,2018,2033,2036
2052,2046,2044,2022,1928,2028,2042,2031
2056,2038,2048,2028,1966,2032,2036,2030
2047,2039,2050,2026,1985,2021,2021,2019
2048,2036,2045,2023,1999,2019,2016,2018
2047,2040,2048,2036,2022,2034,2027,2021
2065,2050,2064,2045,2045,2055,2055,2019
2063,2050,2064,2058,2066,2064,2053,2028
2062,2057,2060,2053,2061,2053,2067,2029
2058,2052,2062,2052,2056,2043,2058,2041
2062,2055,2055,2042,2057,2034,2058,2043
2061,2046,2052,2040,2050,2047,2037,2052
2064,2046,2052,2039,2056,2060,2039,2066
2057,2043,2054,2042,2069,2068,2060,2070
2060,2044,2054,2046,2070,2057,2042,2069
2052,2039,2043,2043,2064,2052,2047,2076
2054,2036,2040,2041,2072,2057,2039,2068
2053,2032,2041,2041,2070,2049,2049,2081
2056,2035,2046,2038,2058,2048,2034,2085
2061,2037,2032,2040,2031,2061,2059,2084
2063,2035,2022,2037,2041,2062,2057,2081
2063,2033,2023,2032,2062,2060,2071,2074
2058,2037,2021,2029,2058,2066,2061,2075
2057,2030,2025,2033,2012,2068,2068,2066
2062,2032,2030,2039,1989,2064,2068,2072
2053,2037,2025,2039,2006,2054,2074,2069
2056,2039,2024,2038,2026,2058,2066,2056
2050,2040,2027,2038,2011,2039,2068,2040
2043,2039,2023,2028,1992,2006,2059,2026
2039,2039,2028,2039,2033,2002,2026,2022
2039,2041,2036,2057,2041,2013,2051,2028
2051,2041,2037,2056,2026,2017,2057,2029
2058,2040,2034,2043,2004,2026,2056,2030
2051,2040,2028,2050,2021,2050,2080,2030
2053,2042,2036,2055,2020,2052,2063,2023
2051,2044,2038,2061,2015,2053,2043,2012
2046,2040,2052,2064,1993,2012,2027,1996
2038,2030,2059,2043,1964,2000,2024,1997
2040,2034,2052,2040,1949,1982,2031,2010
2035,2036,2061,2025,1945,1993,2010,2010
2034,2033,2055,2020,1964,2032,2017,2015
2047,2041,2061,2038,2007,2108,2055,2029
2055,2043,2062,2052,2047,2163,2064,2043
2064,2050,2069,2045,2045,2165,2066,2050
2060,2050,2064,2032,2016,2156,2060,2043
2059,2052,2061,2018,2000,2109,2052,2044
2049,2050,2062,2022,2020,1992,2021,2040
2045,2046,2056,2013,1988,1903,2006,2041
2041,2041,2057,2020,2019,1932,2030,2045
2050,2049,2054,2035,2071,1988,2054,2064
2051,2040,2038,2037,2121,2016,2065,2056
2045,2033,2033,2027,2118,2048,2064,2064
2037,2028,2028,2011,2093,2052,2064,2065
2041,2030,2034,2016,2076,2046,2066,2070
2045,2048,2050,2025,2080,2047,2065,2061
2054,2053,2062,2033,2081,2049,2061,2061
2060,2060,2068,2029,2076,2048,2045,2056
2061,2061,2070,2033,2070,2049,2052,2052
2054,2061,2067,2032,2058,2042,2057,2044
2060,2066,2064,2026,2053,2035,2051,2035
2060,2064,2057,2028,2054,2041,2054,2038
2058,2057,2046,2027,2054,2046,2060,2037
2053,2054,2035,2028,2065,2061,2055,2033
2055,2048,2034,2027,2059,2067,2059,2026
2053,2046,2038,2031,2068,2077,2054,2024
2052,2049,2034,2034,2064,2082,2058,2023
2053,2046,2031,2037,2064,2090,2052,2021
2053,2040,2024,2030,2055,2095,2052,2013
2042,2026,2006,2022,2036,2094,2040,2014
2036,2026,2002,2020,2026,2087,2028,2008
2046,2032,2005,2027,2026,2069,2026,2005
2041,2039,1995,2022,2008,2025,2018,2007
2048,2032,1998,2026,2022,2005,2016,2018
2053,2051,2006,2042,2052,2017,2050,2029
2059,2054,2013,2053,2082,2050,2067,2031
2052,2043,2016,2050,2071,2059,2066,2035
2051,2031,2012,2043,2060,2055,2059,2035
2045,2023,2007,2036,2058,2047,2039,2035
2042,2015,2014,2042,2057,2039,2039,2042
2039,2028,2023,2043,2039,2031,2042,2046
2046,2029,2030,2045,2011,2019,2050,2059
2042,2037,2048,2044,1993,2013,2047,2065
2047,2045,2069,2047,1985,2012,2040,2064
2038,2041,2066,2039,1996,2020,2036,2060
2039,2027,2053,2043,2021,2036,2037,2059
2036,2031,2062,2051,2057,2042,2042,2060
2047,2052,2080,2064,2083,2060,2060,2067
2058,2062,2095,2077,2096,2074,2050,2064
2064,2069,2109,2080,2074,2073,2064,2056
2055,2065,2102,2069,2046,2067,2046,2049
2056,2068,2092,2056,2032,2067,2028,2047
2054,2070,2093,2054,2013,2080,2045,2042
2056,2069,2085,2052,1989,2086,2068,2039
2065,2067,2080,2046,2038,2074,2060,2034
2060,2061,2072,2044,2078,2068,2051,2032
2051,2058,2058,2028,2096,2056,2055,2036
2050,2060,2052,2031,2092,2039,2066,2041
2048,2063,2062,2030,2075,2039,2059,2036
2058,2065,2066,2021,2055,2055,2055,2036
2064,2067,2068,2021,2091,2071,2081,2038
2067,2060,2052,2007,2051,2065,2072,2029
2055,2052,2038,2006,2028,2069,2062,2035
2062,2055,2049,2028,1947,2070,2064,2042
2068,2064,2054,2035,1944,2067,2071,2042
2074,2066,2062,2038,1972,2059,2079,2050
2071,2070,2058,2046,2000,2051,2061,2041
2072,2056,2056,2042,1980,2047,2054,2039
2065,2054,2054,2037,1972,2051,2067,2035
2052,2053,2049,2030,1976,2074,2050,2041
2050,2048,2040,2034,2012,2107,2067,2053
2046,2045,2042,2024,2027,2099,2058,2059
2044,2040,2042,2026,2024,2061,2042,2062
2049,2039,2047,2036,2047,2039,2047,2066
2048,2048,2050,2048,2101,2061,2056,2078
2066,2054,2057,2050,2110,2034,2040,2076
2059,2054,2053,2042,2084,2036,2050,2081
2056,2040,2041,2030,2064,2038,2032,2065
2048,2032,2033,2023,2052,2039,2024,2068
2045,2046,2045,2024,2043,2035,2023,2066
2049,2044,2043,2032,2043,2031,2023,2062
2048,2053,2049,2038,2048,2047,2045,2053
2043,2053,2045,2042,2063,2057,2052,2054
2051,2054,2046,2045,2062,2061,2056,2051
2044,2047,2044,2036,2051,2042,2040,2039
2049,2041,2042,2032,2038,2037,2048,2041
2043,2046,2040,2042,2044,2041,2041,2041
2050,2049,2036,2039,2048,2044,2034,2038
2049,2046,2041,2040,2047,2043,2053,2029
2048,2042,2039,2036,2045,2040,2030,2030
2046,2046,2037,2034,2044,2043,2019,2025
2049,2041,2039,2040,2040,2041,2058,2017
2053,2043,2040,2037,2042,2053,2041,2016
2051,2037,2027,2036,2037,2047,2049,2015
2053,2032,2024,2036,2038,2049,2038,2009
2040,2034,2025,2038,2052,2046,2046,2025
2050,2048,2022,2043,2056,2044,2053,2026
2049,2038,2022,2040,2059,2042,2025,2023
2056,2034,2019,2034,2048,2031,2042,2028
2060,2038,2011,2037,2057,2025,2043,2029
2054,2039,2007,2034,2045,2022,2042,2035
2053,2033,2008,2030,2047,2018,2034,2035
2051,2034,2005,2037,2045,2034,2037,2038
2048,2034,2007,2034,2039,2031,2044,2045
2045,2034,2014,2029,2025,2036,2041,2048
2046,2035,2019,2032,2022,2054,2022,2056
2042,2031,2020,2029,2022,2072,2036,2054
2040,2023,2019,2024,2025,2100,2044,2062
2049,2031,2029,2037,2054,2112,2064,2075
2051,2036,2038,2042,2070,2109,2065,2079
2041,2031,2039,2047,2074,2107,2066,2082
2040,2034,2044,2054,2069,2105,2059,2083
2053,2043,2061,2055,2081,2082,2054,2085
2049,2050,2077,2063,2066,2061,2055,2077
2048,2050,2079,2054,2048,2040,2062,2066
2051,2046,2080,2047,2025,2021,2066,2063
2053,2049,2079,2040,2015,1999,2037,2054
2045,2054,2074,2038,2003,2006,2063,2054
2051,2059,2074,2046,2002,2022,2067,2069
2063,2065,2072,2053,2016,2029,2082,2072
2069,2070,2077,2051,2029,2046,2063,2057
2066,2061,2066,2042,2039,2060,2062,2045
2055,2053,2056,2031,2039,2069,2051,2031
2050,2045,2044,2015,2024,2039,2019,2018
2045,2037,2041,2014,2007,2020,2013,2019
2045,2038,2041,2023,2004,1989,2023,2019
2046,2035,2039,2040,2010,1999,2047,2014
2053,2041,2035,2044,2025,2027,2054,2024
2057,2050,2044,2045,2052,2029,2035,2015
2043,2045,2040,2038,2059,2026,2040,2022
2045,2047,2033,2034,2046,2061,2052,2023
2049,2046,2032,2032,2039,2080,2059,2024
2039,2039,2035,2035,2030,2057,2051,2020
2039,2034,2039,2044,2038,2001,2041,2026
2035,2038,2048,2059,2054,1951,2032,2040
2046,2045,2058,2073,2082,1971,2063,2053
2051,2045,2058,2070,2082,2013,2084,2072
2054,2039,2051,2056,2066,2033,2089,2076
2047,2043,2053,2040,2041,2027,2077,2079
2045,2038,2047,2043,2018,2015,2073,2072
2043,2038,2048,2045,2031,2009,2074,2076
2049,2043,2051,2050,2062,2031,2081,2076
2051,2033,2040,2048,2069,2048,2076,2071
2047,2028,2040,2042,2069,2041,2080,2077
2048,2035,2045,2047,2061,2054,2069,2066
2048,2034,2034,2041,2056,2060,2062,2060
2045,2032,2043,2046,2050,2064,2060,2051
2048,2032,2056,2058,2037,2064,2038,2031
2042,2030,2057,2058,2028,2091,2012,2033
2039,2025,2056,2049,2030,2120,2045,2038
2035,2021,2049,2040,2036,2104,2055,2025
2047,2024,2045,2035,2028,2069,2037,2018
2045,2024,2048,2036,2026,2066,2051,2021
2041,2037,2041,2034,2040,2078,2043,2018
2048,2041,2044,2041,2045,2083,2048,2017
2049,2036,2043,2042,2056,2104,2038,2018
2047,2034,2036,2041,2047,2131,2059,2017
2044,2031,2030,2039,2044,2143,2047,2020
2035,2016,2024,2033,2036,2100,2045,2010
2036,2020,2025,2036,2035,1983,2036,2026
2053,2035,2033,2038,2038,1950,2041,2020
2049,2037,2030,2031,2043,1999,2043,2032
2057,2040,2030,2028,2039,2010,2039,2034
2052,2040,2028,2016,2038,1986,2032,2024
2050,2041,2019,2011,2032,1996,2039,2027
2046,2036,2017,2014,2038,2013,2051,2037
2044,2035,2021,2011,2043,2033,2049,2059
2052,2045,2038,2028,2059,2058,2080,2066
2061,2053,2045,2035,2044,2051,2077,2069
2061,2053,2053,2037,2046,2046,2075,2069
2049,2045,2049,2031,2039,2037,2090,2067
2044,2049,2047,2034,2048,2045,2076,2073
2045,2045,2046,2036,2041,2051,2069,2069
2041,2044,2048,2042,2052,2062,2054,2066
2032,2034,2037,2034,2052,2068,2065,2070
2038,2039,2033,2036,2062,2051,2052,2078
2047,2044,2033,2042,2061,2075,2052,2080
2042,2043,2040,2045,2070,2090,2078,2075
2043,2046,2048,2053,2068,2077,2072,2068
2054,2053,2052,2056,2060,2068,2085,2062
2056,2060,2057,2053,2024,2078,2076,2065
2059,2060,2062,2057,2031,2081,2070,2052
2058,2060,2062,2051,2052,2069,2039,2045
2061,2052,2055,2054,2043,2042,2051,2042
2060,2051,2055,2058,2031,2021,2054,2040
2060,2055,2053,2051,1988,2018,2047,2029
2060,2051,2050,2047,1976,2018,2040,2025
2057,2046,2040,2046,1990,2014,2030,2019
2047,2040,2030,2031,1990,2011,2037,2014
2038,2034,2019,2019,1988,2008,2013,2007
2036,2027,2010,2033,2058,2022,2016,2008
2035,2031,2010,2038,2039,2022,2014,2014
2037,2034,2024,2043,2038,2024,2028,2029
2046,2036,2033,2044,2041,2021,2042,2041
2050,2037,2040,2037,2038,2020,2041,2038
2045,2040,2044,2035,2037,2019,2040,2039
2041,2042,2050,2039,2039,2020,2047,2046
2045,2045,2056,2043,2030,2033,2042,2054
2046,2048,2053,2044,2036,2040,2057,2055
2052,2049,2053,2046,2025,2036,2045,2056
2052,2047,2063,2042,2027,2048,2031,2062
2050,2053,2063,2041,2029,2068,2034,2069
2060,2065,2077,2052,2030,2084,2054,2070
2058,2070,2084,2053,2035,2098,2049,2078
2060,2068,2084,2049,2023,2100,2051,2088
2055,2062,2078,2041,2037,2081,2052,2079
2044,2055,2059,2029,2058,2009,2042,2078
2037,2041,2049,2019,2095,1988,2049,2081
2047,2056,2063,2036,2133,2019,2047,2079
2050,2065,2069,2043,2149,2039,2059,2073
2055,2065,2073,2050,2144,2045,2056,2078
2052,2064,2069,2054,2122,2052,2055,2072
2059,2067,2063,2050,2097,2050,2057,2062
2060,2059,2063,2039,2051,2040,2044,2059
2055,2054,2060,2034,1945,2041,2062,2054
2054,2051,2055,2037,1943,2044,2062,2050
2052,2050,2045,2051,1996,2056,2038,2049
2048,2045,2042,2049,2026,2045,2043,2043
2047,2046,2040,2055,2038,2059,2057,2043
2048,2046,2034,2051,2047,2058,2050,2039
2048,2038,2025,2050,2044,2050,2037,2039
2048,2038,2025,2042,2030,2037,2045,2034
2043,2024,2015,2029,2007,2027,2050,2028
2035,2016,2029,2042,2001,2020,2051,2034
2034,2032,2048,2051,2007,2033,2054,2027
2041,2037,2058,2067,2014,2038,2053,2033
2036,2035,2056,2068,2029,2037,2059,2032
2037,2032,2051,2063,2028,2033,2053,2030
2032,2035,2043,2065,2034,2031,2043,2032
2032,2039,2042,2064,2080,2053,2043,2039
2029,2035,2037,2059,2108,2062,2048,2039
2038,2038,2032,2048,2086,2057,2056,2045
2037,2051,2047,2045,2072,2059,2059,2056
2042,2058,2061,2055,2064,2062,2057,2062
2042,2062,2062,2056,2058,2054,2054,2065
2050,2059,2063,2054,2046,2039,2039,2072
2048,2062,2057,2045,2032,2032,2040,2079
2047,2061,2053,2045,2034,2038,2031,2083
2051,2056,2045,2041,2039,2048,2056,2074
2046,2052,2040,2033,2041,2055,2040,2075
2050,2057,2056,2032,2047,2054,2036,2077
2052,2052,2045,2017,2036,2038,2029,2067
2047,2052,2040,2009,2028,2028,2011,2067
2051,2056,2041,2010,2026,2026,2031,2066
2049,2058,2044,2013,2011,2027,2054,2060
2057,2052,2039,2017,2001,2028,2041,2058
2052,2055,2044,2020,2000,2018,2041,2049
2053,2056,2052,2017,2003,2022,2039,2042
2057,2054,2058,2028,2031,2025,2048,2038
2057,2065,2072,2051,2056,2027,2047,2036
2055,2061,2079,2054,2070,2022,2042,2038
2055,2062,2084,2059,2074,2045,2060,2033
2060,2060,2080,2057,2074,2061,2059,2034
2056,2056,2069,2056,2063,2079,2074,2028
2049,2055,2070,2050,2059,2105,2049,2025
2043,2047,2068,2044,2044,2113,2047,2015
2050,2051,2069,2038,2030,2112,2064,2022
2053,2056,2072,2031,2004,2083,2064,2022
2052,2056,2070,2031,2000,2060,2037,2022
2054,2056,2059,2023,1993,2033,2015,2025
2050,2053,2057,2027,2018,1996,2014,2032
2052,2050,2055,2043,2053,2008,2046,2041
2052,2055,2067,2064,2079,2050,2038,2057
2052,2055,2064,2066,2077,2062,2052,2061
2056,2057,2063,2055,2068,2074,2044,2060
2049,2050,2058,2048,2064,2078,2052,2054
2037,2047,2054,2040,2050,2059,2052,2062
2034,2044,2052,2036,2041,2047,2058,2067
2038,2051,2046,2037,2039,2036,2050,2077
2049,2060,2060,2039,2035,2026,2052,2074
2052,2054,2051,2033,2036,2022,2034,2060
2042,2054,2046,2039,2033,2023,2026,2054
2044,2056,2055,2046,2042,2040,2042,2060
2058,2065,2055,2054,2051,2051,2060,2066
2056,2058,2054,2045,2048,2041,2074,2054
2051,2054,2052,2043,2043,2049,2065,2057
2043,2051,2045,2046,2042,2056,2064,2045
2037,2036,2039,2045,2046,2058,2063,2046
2039,2040,2040,2052,2056,2058,2067,2041
2040,2040,2039,2050,2053,2059,2071,2049
2048,2046,2043,2045,2041,2058,2073,2049
2054,2050,2046,2045,2042,2053,2060,2049
2052,2047,2051,2056,2042,2037,2070,2045
2049,2051,2050,2054,2043,2037,2049,2037
2049,2048,2059,2053,2044,2040,2021,2038
2048,2047,2059,2054,2049,2038,2033,2024
2052,2047,2059,2052,2041,2052,2029,2024
2046,2039,2052,2051,2045,2063,2053,2024
2042,2046,2059,2057,2061,2070,2060,2023
2048,2058,2060,2066,2055,2064,2022,2017
2046,2057,2063,2068,2059,2060,2037,2023
2056,2061,2066,2060,2064,2057,2042,2022
2050,2056,2058,2061,2057,2042,2041,2031
2048,2059,2064,2056,2047,2030,2028,2028
2045,2056,2066,2062,2047,2038,2022,2034
2045,2050,2064,2061,2043,2038,2041,2045
2048,2048,2058,2060,2045,2050,2043,2056
2053,2052,2058,2057,2047,2056,2057,2056
2042,2051,2052,2055,2045,2054,2036,2060
2044,2044,2052,2051,2045,2045,2038,2070
2041,2040,2050,2054,2044,2036,2050,2066
2042,2041,2057,2056,2041,2034,2031,2073
2043,2050,2049,2055,2038,2041,2027,2076
2039,2041,2051,2041,2034,2054,2047,2081
2043,2043,2053,2058,2042,2070,2045,2071
2046,2050,2068,2065,2035,2088,2048,2065
2040,2051,2065,2067,2042,2082,2057,2060
2048,2053,2061,2062,2052,2088,2060,2062
2054,2051,2064,2060,2053,2097,2069,2060
2058,2051,2064,2059,2052,2090,2065,2055
2054,2050,2061,2057,2050,2074,2060,2046
2061,2054,2062,2058,2050,2044,2049,2044
2058,2054,2061,2057,2063,2017,2049,2044
2064,2058,2063,2069,2070,1992,2050,2041
2059,2060,2058,2069,2074,1957,2045,2038
2058,2058,2054,2065,2066,1950,2027,2042
2061,2056,2049,2061,2072,1960,2054,2037
2066,2050,2049,2058,2058,1970,2053,2030
2056,2051,2043,2050,2055,1970,2040,2023
2038,2038,2028,2038,2040,1974,2038,2028
2042,2037,2025,2021,2028,1968,2027,2016
2052,2044,2043,2017,2005,1984,2045,2020
2046,2047,2035,2011,1975,1999,2038,2022
2040,2042,2024,2012,1999,2021,2052,2026
2048,2041,2025,2010,2015,2063,2014,2030
2044,2040,2024,2014,2030,2114,2015,2033
2044,2042,2022,2024,2041,2119,2050,2045
2046,2039,2026,2018,2043,2111,2049,2052
2052,2038,2021,2025,2034,2096,2060,2053
2041,2041,2027,2033,2039,2107,2084,2063
2041,2041,2033,2044,2051,2109,2100,2072
2051,2042,2036,2050,2057,2117,2098,2080
2049,2044,2038,2048,2054,2098,2083,2086
2050,2038,2030,2044,2048,2081,2079,2076
2043,2034,2029,2044,2033,2078,2083,2069
2032,2022,2009,2030,2028,2082,2081,2074
2032,2024,2011,2030,2034,2111,2084,2071
2043,2037,2019,2040,2040,2148,2046,2074
2054,2041,2017,2039,2045,2134,2029,2066
2044,2038,2019,2041,2044,2049,2016,2054
2036,2034,2012,2025,2031,1957,2032,2051
2038,2027,2005,2025,2013,1966,2029,2034
2034,2026,2000,2026,2023,2007,2023,2027
2031,2028,1992,2034,2036,2031,2042,2026
2034,2024,1996,2039,2054,2047,2071,2028
2036,2026,2004,2041,2044,2056,2074,2027
2038,2024,2006,2038,2019,2052,2054,2028
2036,2021,2008,2036,2016,2052,2036,2017
2035,2025,2016,2042,2039,2059,2042,2015
2034,2032,2032,2044,2052,2058,2046,2014
2041,2049,2041,2055,2049,2042,2041,2013
2033,2046,2036,2053,2030,2015,2033,2015
2033,2048,2036,2046,2008,2018,2018,2022
2046,2060,2050,2060,2038,2024,2023,2028
2049,2061,2060,2068,2071,2038,2032,2038
2053,2061,2075,2077,2075,2044,2041,2044
2056,2067,2080,2079,2062,2046,2036,2049
2057,2066,2082,2080,2045,2046,2058,2053
2064,2063,2081,2080,2056,2052,2064,2059
2059,2067,2073,2074,2050,2057,2053,2067
2054,2059,2068,2062,2016,2048,2050,2058
2049,2059,2067,2045,2020,2050,2050,2061
2053,2064,2080,2054,2041,2070,2056,2074
2054,2065,2095,2055,2024,2086,2043,2069
2049,2061,2096,2041,2006,2072,2063,2074
2048,2059,2084,2041,1983,2056,2039,2066
2049,2056,2073,2034,1977,2044,2028,2057
2037,2044,2058,2027,1986,2024,2031,2064
2037,2040,2060,2034,2017,2030,2040,2075
2038,2054,2070,2043,2059,2054,2047,2076
2047,2053,2062,2039,2068,2073,2061,2081
2050,2051,2053,2040,2078,2111,2076,2077
2044,2049,2044,2033,2086,2121,2087,2070
2049,2043,2036,2028,2074,2100,2053,2065
2050,2048,2040,2028,2045,2063,2063,2057
2051,2050,2056,2035,2031,2003,2055,2064
2053,2049,2059,2040,2054,2010,2059,2060
2059,2057,2064,2046,2068,2031,2043,2053
2057,2054,2060,2045,2068,2060,2043,2049
2054,2053,2056,2031,2070,2053,2047,2049
2051,2047,2044,2029,2105,2065,2035,2040
2049,2042,2043,2035,2122,2055,2026,2036
2044,2039,2039,2043,2134,2036,2037,2036
2041,2037,2037,2061,2191,2055,2031,2040
2037,2035,2041,2068,2176,2071,2032,2037
2038,2048,2045,2050,2046,2062,2043,2037
2040,2043,2047,2046,2020,2054,2036,2053
2044,2048,2056,2037,2025,2048,2028,2054
2048,2056,2065,2043,2042,2029,2030,2051
2051,2058,2065,2045,2051,2030,2043,2053
2040,2055,2054,2051,2051,2032,2045,2047
2041,2050,2049,2043,2041,2042,2024,2044
2038,2043,2041,2033,2024,2055,2032,2052
2038,2040,2045,2037,2009,2023,2032,2055
2040,2042,2042,2042,2032,1985,2030,2059
2037,2036,2047,2044,2041,2001,2033,2068
2044,2044,2049,2047,2046,2032,2054,2074
2040,2043,2048,2044,2041,2046,2058,2076
2039,2049,2046,2042,2033,2052,2048,2075
2041,2038,2044,2036,2038,2065,2048,2080
2034,2034,2042,2042,2049,2076,2058,2084
2048,2048,2050,2046,2057,2069,2053,2079
2049,2052,2047,2047,2058,2060,2066,2077
2049,2050,2052,2045,2043,2033,2049,2072
2045,2050,2054,2039,2027,1999,2042,2062
2044,2049,2054,2042,2033,2011,2029,2054
2045,2053,2051,2043,2044,2021,2062,2057
2055,2055,2057,2046,2034,2018,2055,2054
2054,2059,2056,2045,2025,2004,2041,2049
2051,2059,2053,2044,2040,1996,2028,2053
2055,2061,2052,2046,2038,2007,2036,2047
2057,2056,2053,2040,2046,2026,2035,2042
2046,2053,2053,2042,2050,2040,2045,2035
2047,2049,2050,2041,2051,2042,2040,2033
2043,2054,2048,2039,2042,2040,2050,2023
2034,2032,2034,2033,2045,2046,2051,2021
2027,2028,2035,2035,2045,2059,2055,2035
2046,2046,2039,2041,2051,2061,2074,2043
2040,2044,2035,2044,2047,2059,2063,2046
2040,2048,2038,2045,2048,2064,2066,2056
2040,2045,2042,2048,2055,2069,2075,2051
2046,2043,2040,2043,2052,2039,2024,2051
2037,2037,2038,2035,2011,2027,2043,2051
2034,2035,2035,2024,1949,2013,2022,2051
2034,2032,2026,2019,1906,2003,2032,2048
2029,2035,2026,2012,1891,1993,2018,2044
2026,2027,2020,2001,1898,1980,2024,2038
2023,2025,2028,2014,1973,1975,2042,2069
2042,2043,2052,2069,2084,2010,2039,2079
2048,2053,2065,2091,2136,2049,2054,2092
2059,2051,2068,2087,2157,2075,2056,2090
2049,2040,2047,2079,2148,2097,2062,2090
2044,2037,2050,2078,2115,2101,2061,2090
2053,2050,2054,2069,2084,2078,2077,2083
2050,2050,2061,2072,2065,2073,2061,2074
2054,2053,2064,2073,2072,2081,2084,2076
2049,2053,2068,2063,2053,2081,2070,2073
2050,2057,2066,2060,2023,2062,2078,2065
2051,2058,2067,2057,2018,2053,2069,2055
2054,2053,2072,2062,2027,2060,2057,2055
2056,2052,2068,2062,2022,2068,2057,2045
2056,2055,2056,2059,2040,2066,2052,2041
2048,2051,2056,2055,2038,2065,2064,2037
2049,2042,2047,2050,2009,2055,2049,2040
2045,2040,2040,2055,2026,2054,2047,2036
2040,2043,2047,2053,2036,2041,2047,2031
2039,2048,2057,2064,2054,2046,2042,2032
2039,2045,2050,2067,2076,2044,2028,2022
2044,2046,2047,2069,2060,2052,2054,2036
2038,2053,2042,2050,2031,2035,2037,2035
2038,2055,2042,2034,1993,2042,2043,2044
2036,2048,2038,2018,1922,2039,2038,2051
2039,2042,2032,2010,1946,2033,2049,2050
2041,2047,2032,2035,2009,2024,2044,2052
2045,2052,2044,2049,2053,2011,2038,2060
2052,2053,2046,2056,2092,2019,2049,2065
2051,2054,2042,2055,2119,2032,2053,2070
2051,2050,2040,2053,2141,2052,2054,2064
2049,2053,2036,2059,2144,2074,2056,2069
2036,2047,2031,2064,2139,2081,2066,2074
2038,2041,2024,2060,2143,2100,2060,2080
2033,2039,2022,2056,2143,2099,2059,2076
2034,2032,2016,2049,2120,2062,2054,2069
2025,2022,2018,2026,2072,2022,2030,2073
2026,2024,2023,2018,2043,1997,2044,2079
2038,2036,2031,2012,2000,1976,2030,2066
2032,2024,2021,2014,2005,1970,2011,2051
2025,2022,2017,2025,2064,2009,2021,2049
2027,2036,2026,2058,2122,2055,2021,2044
2040,2047,2040,2046,1975,2064,2048,2049
2039,2052,2043,2023,1916,2092,2054,2035
2045,2047,2047,2020,1929,2097,2032,2022
2034,2040,2047,2027,1943,2094,2037,2018
2032,2040,2051,2023,1946,2074,2041,2018
2028,2034,2046,2019,1975,2017,2027,2044
2042,2049,2067,2071,2052,1983,2030,2069
2054,2057,2088,2094,2082,2021,2072,2057
2052,2051,2089,2096,2080,2047,2063,2046
2051,2049,2090,2102,2099,2068,2048,2044
2044,2045,2082,2096,2105,2071,2069,2042
2038,2050,2086,2106,2099,2064,2066,2042
2041,2056,2108,2126,2083,2062,2058,2041
2048,2055,2115,2137,2074,2066,2058,2043
2044,2059,2123,2142,2073,2069,2066,2047
2047,2061,2116,2135,2069,2049,2045,2047
2048,2067,2117,2132,2063,2045,2040,2050
2047,2068,2112,2127,2052,2055,2046,2046
2044,2065,2099,2120,2039,2050,2048,2045
2046,2065,2091,2114,2023,2034,2062,2055
2050,2068,2080,2096,2010,2027,2061,2061
2047,2067,2065,2080,2007,2036,2063,2068
2043,2063,2052,2069,2028,2065,2078,2074
2041,2060,2030,2046,2036,2084,2045,2076
2042,2055,2016,2022,2036,2078,2036,2068
2041,2043,1998,2010,2051,2072,2031,2057
2029,2029,1983,1991,2045,2052,2029,2061
2031,2033,1974,1989,2103,2048,2031,2069
2035,2034,1978,1993,2159,2059,2056,2081
2038,2032,1975,1988,2182,2053,2073,2074
2037,2038,1977,1991,2176,2054,2065,2067
2045,2043,1990,1994,2114,2055,2040,2071
2047,2032,1990,1980,2022,2043,2068,2064
2049,2043,1986,1984,2025,2022,2046,2058
2052,2039,1992,1998,2016,2005,2065,2047
2042,2032,1992,1996,1970,1982,2063,2038
2042,2035,1995,2018,1999,1999,2043,2033
2038,2037,2000,2035,2027,2001,2056,2030
2042,2042,2006,2028,2030,2006,2057,2023
2044,2045,2008,2030,2042,2052,2081,2032
2050,2054,2015,2038,2069,2097,2093,2048
2054,2056,2024,2050,2095,2097,2088,2046
2052,2053,2024,2039,2056,2051,2066,2046
2042,2047,2031,2038,2081,2035,2072,2044
2047,2048,2030,2038,2106,2052,2071,2033
2043,2042,2021,2009,1997,2028,2034,2033
2033,2040,2029,2000,1949,2042,2031,2029
2037,2037,2042,2029,1989,2053,2029,2028
2033,2037,2050,2043,2027,2037,2046,2036
2043,2055,2065,2061,2082,2028,2047,2050
2043,2054,2078,2079,2138,2054,2055,2051
2044,2061,2091,2068,2103,2056,2078,2059
2056,2055,2095,2043,2008,2031,2072,2067
2052,2064,2104,2050,2035,2047,2074,2076
2057,2056,2103,2056,2056,2063,2084,2085
2052,2066,2097,2045,2013,2070,2079,2089
2054,2072,2080,2037,2008,2064,2072,2100
2055,2072,2080,2033,2030,2077,2085,2104
2043,2054,2066,2027,2015,2079,2077,2104
2042,2052,2061,2027,1976,2079,2095,2104
2065,2070,2070,2034,1965,2065,2081,2096
2068,2063,2051,2020,1972,2026,2066,2076
2046,2053,2042,1990,1867,1996,2035,2060
2045,2051,2046,2000,1903,2016,2046,2059
2043,2057,2059,2021,1973,2077,2055,2053
2046,2054,2059,2023,2006,2048,2031,2038
2029,2044,2056,2031,2060,2014,2017,2025
2018,2048,2058,2049,2118,2084,2026,2024
2031,2058,2057,2060,2206,2137,2058,2031
2037,2060,2062,2061,2216,2064,2065,2032
2050,2066,2064,2063,2181,1963,2047,2033
2050,2071,2064,2072,2121,1976,2047,2034
2048,2068,2061,2068,2090,2008,2054,2028
2044,2062,2059,2063,2074,2023,2046,2028
2040,2056,2051,2057,2066,2043,2042,2037
2042,2055,2052,2069,2114,2069,2078,2048
2053,2061,2062,2080,2158,2090,2082,2057
2048,2065,2065,2101,2149,2091,2087,2064
2049,2068,2068,2098,2090,2070,2088,2062
2053,2060,2058,2060,1953,2020,2059,2060
2053,2049,2046,2020,1891,2000,2050,2051
2054,2052,2046,2039,1999,2014,2057,2056
2053,2052,2049,2054,2045,2045,2051,2055
2043,2052,2045,2060,2032,2038,2058,2054
2040,2042,2043,2054,2010,2030,2050,2060
2031,2044,2040,2042,2013,2039,2053,2072
2030,2043,2042,2051,2052,2063,2061,2080
2028,2039,2038,2057,2060,2053,2062,2084
2024,2045,2032,2050,2109,2039,2033,2082
2024,2037,2036,2052,2112,2040,2042,2076
2021,2033,2029,2042,2050,2051,2036,2073
2030,2033,2030,2027,2032,2075,2044,2073
2036,2048,2039,2030,2012,2091,2045,2075
2044,2048,2042,2042,2082,2100,2048,2074
2050,2054,2047,2049,2150,2129,2064,2080
2053,2058,2056,2052,2166,2123,2058,2088
2061,2070,2059,2045,2134,2123,2057,2084
2072,2069,2056,2057,2112,2153,2062,2088
2078,2066,2061,2065,2126,2167,2083,2087
2069,2054,2052,2057,2110,2124,2064,2074
2060,2045,2042,2048,2076,2053,2049,2059
2050,2033,2032,2032,1959,1978,2030,2045
2051,2031,2029,2023,1871,1936,2009,2032
2043,2021,2030,2005,1776,1913,1998,2016
2038,2018,2040,2019,1797,1930,2015,2018
2042,2035,2050,2045,1902,1965,2039,2020
2040,2034,2048,2045,1965,2003,2057,2023
2034,2028,2038,2037,1976,2035,2068,2041
2043,2032,2036,2046,2015,2035,2064,2036
2036,2036,2035,2045,1962,2026,2052,2036
2034,2033,2032,2047,2025,2051,2052,2039
2045,2042,2047,2074,2168,2084,2050,2046
2054,2057,2060,2099,2170,2061,2038,2044
2053,2060,2060,2089,2092,2033,2035,2036
2053,2064,2062,2083,2046,2035,2043,2048
2052,2061,2062,2073,2059,2052,2052,2057
2046,2054,2067,2067,2088,2076,2081,2065
2043,2052,2058,2067,2122,2074,2059,2069
2042,2055,2054,2067,2098,2061,2052,2072
2035,2052,2049,2060,2078,2049,2046,2076
2034,2050,2047,2061,2117,2072,2046,2078
2037,2046,2047,2065,2183,2088,2039,2074
2035,2045,2046,2066,2181,2088,2053,2078
2045,2044,2049,2060,2152,2069,2051,2080
2057,2060,2047,2057,2100,2021,2036,2081
2061,2058,2049,2054,2044,1992,2047,2076
2052,2064,2053,2058,2039,2014,2057,2070
2053,2068,2051,2056,2036,2031,2053,2064
2050,2059,2039,2033,1960,2012,2033,2043
2041,2060,2034,2017,1868,1997,2030,2038
2043,2059,2040,2045,1986,2015,2040,2028
2042,2052,2043,2063,2053,2038,2059,2035
2042,2049,2047,2083,2103,2044,2064,2039
2051,2065,2054,2092,2149,2050,2072,2053
2055,2064,2056,2082,2158,2062,2069,2053
2055,2061,2057,2075,2156,2074,2063,2043
2045,2043,2044,2054,2118,2070,2043,2042
2040,2035,2043,2053,2082,2034,2030,2027
2030,2030,2034,2032,1971,1967,2009,2022
2024,2026,2039,2015,1857,1950,2010,2018
2039,2040,2041,2046,1921,1983,2008,2033
2044,2044,2048,2060,1961,2013,2036,2034
2039,2043,2039,2041,1979,2030,2053,2039
2039,2049,2051,2067,2022,2036,2052,2052
2047,2058,2058,2081,2063,2047,2057,2063
2054,2056,2061,2085,2084,2068,2055,2065
2049,2058,2068,2085,2121,2092,2060,2066
2042,2056,2059,2081,2122,2103,2061,2061
2038,2050,2048,2055,2080,2095,2063,2057
2038,2038,2038,2058,2106,2095,2061,2057
2031,2042,2042,2059,2101,2094,2055,2066
2028,2050,2038,2058,2061,2080,2050,2079
2027,2049,2038,2051,2028,2068,2052,2087
2044,2060,2041,2047,1998,2057,2051,2088
2045,2048,2045,2054,1919,2073,2060,2087
2045,2052,2054,2041,1851,2067,2055,2096
2058,2067,2059,2062,1909,2054,2068,2096
2059,2066,2059,2072,1958,2058,2055,2088
2060,2065,2058,2064,2010,2074,2067,2079
2057,2062,2058,2064,2062,2100,2052,2079
2050,2063,2055,2076,2143,2099,2053,2073
2051,2065,2059,2079,2212,2052,2056,2071
2061,2069,2064,2094,2272,2006,2057,2075
2058,2065,2061,2066,2228,1997,2060,2062
2050,2058,2060,2038,2087,2004,2044,2055
2054,2057,2053,2049,2118,2038,2053,2054
2047,2055,2050,2064,2145,2072,2039,2040
2044,2046,2042,2040,1993,2050,2040,2033
2044,2042,2040,2030,1880,2024,2052,2030
2045,2040,2033,1995,1802,2006,2008,2019
2034,2032,2024,1959,1692,1997,2026,2012
2031,2029,2036,2010,1835,2044,2042,2015
2039,2045,2053,2064,2009,2075,2041,2025
2044,2047,2060,2080,2082,2077,2038,2028
2044,2051,2050,2063,2065,2054,2036,2031
2045,2049,2050,2062,2062,2060,2049,2044
2045,2049,2050,2061,2080,2097,2053,2046
2044,2053,2053,2058,2099,2120,2059,2048
2049,2047,2047,2061,2118,2128,2056,2047
2046,2049,2041,2054,2120,2117,2058,2046
2042,2035,2027,2040,2060,2048,2031,2036
2022,2024,2026,2025,1897,1956,2035,2062
2031,2038,2047,2055,1890,1981,2052,2070
2041,2046,2049,2050,1963,2016,2068,2076
2048,2050,2042,2049,2035,2036,2063,2075
2048,2041,2036,2059,2137,2045,2043,2069
2037,2040,2045,2084,2204,2057,2037,2078
2046,2052,2062,2122,2276,2092,2058,2085
2059,2067,2072,2151,2405,2123,2063,2088
2062,2072,2074,2151,2453,2136,2088,2091
2067,2078,2074,2137,2452,2130,2076,2076
2056,2072,2066,2109,2381,2086,2067,2055
2054,2060,2057,2053,2106,2039,2044,2053
2041,2056,2048,2017,1876,1999,2047,2025
2034,2041,2038,1986,1839,1982,2021,2014
2033,2036,2046,2019,1768,1986,2011,2014
2026,2035,2051,1989,1509,1957,2011,2008
2020,2024,2052,2010,1633,1967,1998,2014
2032,2032,2064,2076,1852,1970,2031,2031
2042,2041,2074,2084,1971,1974,2028,2020
2038,2035,2054,2053,1972,1977,2022,2010
2029,2031,2054,2053,2018,1993,2018,2002
2024,2024,2046,2057,2076,2030,2010,2005
2024,2026,2051,2077,2129,2067,2029,2009
2031,2042,2058,2080,2075,2052,2042,2020
2037,2052,2060,2082,2068,2049,2044,2029
2051,2063,2071,2081,2062,2046,2036,2042
2061,2065,2068,2079,2080,2063,2059,2052
2053,2067,2073,2091,2096,2106,2061,2047
2059,2065,2065,2098,2128,2134,2071,2052
2056,2063,2062,2102,2156,2130,2061,2052
2060,2070,2055,2075,2113,2071,2047,2046
2049,2055,2039,2048,1993,2019,2039,2039
2036,2049,2033,2032,1919,2004,2036,2050
2034,2044,2016,2031,2015,2030,2057,2059
2042,2038,2006,2046,2084,2059,2069,2076
2033,2034,2004,2071,2086,2067,2057,2075
2035,2035,2002,2076,2056,2016,2033,2081
2036,2026,1990,2066,2050,1981,2001,2082
2038,2022,1987,2050,2026,1999,2020,2082
2047,2034,1994,2041,2030,2032,2027,2068
2040,2030,1986,2025,2069,2064,2027,2064
2039,2034,1988,2024,2081,2097,2018,2050
2043,2028,1988,2007,2032,2134,2020,2039
2039,2030,1996,2002,1977,2135,2034,2026
2033,2029,1999,1994,1891,2146,2034,2018
2032,2026,2006,1988,1874,2106,2016,2006
2019,2026,2022,2001,1902,1956,1995,2011
2019,2029,2036,2012,1986,1900,2012,2024
2028,2043,2064,2047,2091,2003,2043,2036
2043,2065,2095,2080,2133,2076,2070,2028
2040,2062,2116,2076,2101,2096,2064,2029
2037,2061,2126,2067,2052,2064,2039,2034
2043,2057,2110,2046,2035,2042,2017,2031
2040,2051,2096,2034,2055,2037,2044,2026
2048,2056,2092,2048,2064,2045,2061,2027
2046,2065,2087,2052,2067,2055,2045,2040
2052,2056,2076,2058,2112,2073,2058,2051
2062,2055,2074,2076,2132,2079,2054,2056
2052,2053,2071,2063,2104,2069,2068,2054
2059,2051,2062,2062,2095,2078,2066,2058
2063,2048,2065,2061,2091,2084,2060,2049
2056,2051,2065,2061,2083,2064,2036,2044
2054,2049,2059,2050,2048,2038,1998,2041
2055,2046,2051,2033,2029,2049,2025,2049
2050,2042,2052,2043,2068,2057,2026,2064
2050,2044,2064,2067,2078,2059,2024,2058
2048,2046,2068,2069,2080,2071,2033,2048
2029,2036,2075,2077,2081,2076,2043,2050
2025,2032,2069,2078,2073,2067,2059,2065
2038,2036,2067,2078,2098,2066,2036,2062
2033,2027,2063,2076,2124,2061,2042,2065
2035,2036,2064,2078,2116,2060,2046,2065
2047,2039,2057,2074,2117,2043,2050,2064
2046,2034,2064,2079,2112,2045,2048,2063
2045,2037,2061,2078,2096,2038,2031,2053
2047,2035,2056,2068,2065,2022,2023,2051
2047,2033,2048,2059,1986,2007,2028,2032
2040,2030,2043,2056,1910,2005,2019,2009
2034,2033,2040,2060,1957,2028,2046,2001
2026,2035,2030,2059,2007,2034,2025,1991
2015,2034,2015,2045,2008,2028,2025,1997
2022,2025,1999,2029,2000,2019,2032,2008
2031,2022,1994,2019,1999,2036,2033,2020
2047,2033,2008,2016,2012,2046,2061,2029
2059,2045,2013,2015,2004,2058,2059,2034
2056,2047,2012,2016,2011,2061,2056,2037
2053,2044,2012,2025,2066,2085,2062,2038
2059,2048,2020,2035,2080,2080,2057,2027
2056,2055,2031,2035,2062,2087,2056,2023
2048,2058,2036,2033,2047,2088,2060,2030
2044,2052,2041,2034,2053,2101,2074,2022
2050,2045,2044,2026,2061,2107,2065,2029
2042,2050,2036,2019,2080,2109,2074,2035
2041,2046,2031,2017,2126,2126,2073,2038
2049,2057,2050,2022,2128,2124,2083,2057
2062,2063,2055,2027,2101,2104,2079,2061
2065,2070,2065,2022,2072,2075,2061,2064
2055,2061,2070,2014,2048,2079,2050,2069
2049,2058,2067,2019,2055,2082,2046,2071
2046,2060,2070,2034,2024,2049,2041,2066
2048,2051,2074,2028,1939,1986,2008,2061
2039,2053,2078,2039,1927,1985,2027,2046
2035,2053,2080,2038,1968,1999,2004,2043
2025,2047,2078,2031,1995,1996,2010,2053
2028,2060,2093,2033,2016,2007,2005,2057
2033,2052,2080,2044,2074,2030,2021,2073
2044,2059,2090,2080,2157,2068,2038,2072
2050,2067,2096,2090,2157,2076,2057,2065
2055,2063,2083,2071,2082,2058,2056,2047
2047,2056,2070,2064,2050,2064,2054,2038
2046,2056,2067,2059,2008,2060,2047,2032
2052,2058,2071,2063,2056,2052,2044,2030
2041,2054,2064,2075,2089,2058,2038,2025
2049,2054,2069,2087,2118,2075,2032,2019
2051,2060,2065,2091,2121,2078,2024,2017
2050,2060,2062,2094,2141,2074,2034,2023
2049,2050,2056,2082,2164,2075,2041,2021
2044,2050,2054,2059,2107,2052,2035,2022
2051,2048,2056,2058,2087,2046,2033,2011
2045,2040,2050,2045,2052,2047,2036,2008
2046,2038,2052,2033,1994,2040,2041,2016
2055,2048,2053,2037,2005,2045,2039,2021
2056,2046,2056,2042,2010,2036,2047,2029
2057,2048,2057,2046,2020,2042,2039,2030
2052,2054,2062,2050,2051,2045,2041,2033
2056,2054,2060,2056,2048,2045,2037,2034
2051,2048,2064,2052,2036,2050,2035,2032
2038,2045,2059,2049,2044,2067,2037,2045
2040,2042,2059,2056,2051,2072,2038,2047
2051,2045,2061,2056,2053,2072,2033,2061
2056,2045,2063,2059,2064,2064,2042,2064
2048,2042,2055,2062,2069,2035,2044,2068
2050,2048,2062,2057,2057,2031,2039,2062
2042,2038,2056,2058,2069,2032,2046,2061
2040,2039,2058,2050,2051,2020,2025,2042
2029,2027,2044,2029,2023,2021,2029,2046
2028,2028,2038,2038,2015,2022,2029,2054
2040,2039,2050,2039,2013,2026,2042,2060
2041,2045,2049,2042,2011,2024,2058,2057
2049,2039,2051,2042,2014,2038,2064,2065
2050,2048,2051,2042,2017,2041,2056,2061
2056,2045,2046,2043,2009,2032,2043,2053
2055,2046,2046,2040,1994,2033,2056,2044
2050,2050,2050,2040,1997,2042,2075,2039
2055,2050,2048,2044,1997,2047,2087,2028
2045,2044,2047,2046,2024,2074,2081,2017
2040,2042,2049,2060,2071,2103,2070,2014
2045,2044,2056,2060,2101,2116,2075,2005
2040,2036,2042,2057,2094,2115,2062,2007
2033,2036,2038,2051,2078,2090,2052,2001
2030,2031,2040,2041,2053,2019,2023,2009
2026,2024,2035,2034,2055,2017,2027,2013
2030,2026,2037,2039,2058,2022,2028,2021
2037,2032,2037,2034,2047,2039,2019,2024
2045,2033,2038,2043,2076,2081,2058,2025
2054,2043,2054,2067,2094,2095,2064,2032
2058,2049,2060,2076,2086,2083,2055,2034
2051,2044,2056,2073,2100,2061,2073,2035
2053,2044,2056,2071,2102,2062,2051,2041
2049,2042,2057,2062,2080,2050,2056,2034
2051,2038,2053,2057,2072,2056,2053,2027
2047,2039,2055,2058,2058,2046,2041,2041
2042,2036,2053,2061,2056,2044,2041,2048
2039,2043,2060,2063,2052,2056,2027,2059
2046,2042,2058,2067,2038,2052,2049,2055
2045,2044,2054,2063,2049,2056,2043,2068
2044,2043,2054,2064,2050,2053,2038,2069
2043,2043,2044,2060,2070,2050,2032,2064
2034,2029,2040,2059,2084,2065,2040,2059
2033,2033,2045,2073,2143,2068,2043,2075
2046,2043,2050,2063,2145,2053,2022,2070
2052,2042,2047,2062,2107,2049,2022,2064
2049,2041,2053,2072,2109,2064,2001,2056
2048,2042,2048,2081,2140,2060,1998,2048
2045,2040,2049,2079,2112,1994,2021,2039
2048,2040,2051,2069,2073,1997,2042,2043
2048,2036,2040,2051,2021,2021,2040,2027
2044,2027,2028,2018,1862,2026,2052,2025
2045,2031,2029,2013,1847,2055,2062,2025
2052,2031,2025,2023,1943,2044,2056,2015
2049,2024,2024,2027,1996,1992,2055,2027
2052,2033,2026,2044,2029,1957,2042,2022
2052,2034,2035,2058,2071,1993,2035,2020
2049,2041,2048,2066,2096,2030,2052,2020
2044,2033,2043,2052,2064,2050,2045,2013
2042,2027,2043,2037,2009,2049,2052,2010
2038,2040,2057,2055,2024,2041,2054,2022
2043,2046,2063,2069,2041,2009,2038,2023
2047,2052,2059,2062,2036,2012,2051,2031
2050,2051,2052,2064,2061,2012,2046,2036
2052,2054,2057,2066,2098,2035,2065,2036
2055,2060,2063,2068,2101,2052,2079,2039
2067,2066,2069,2062,2065,2054,2076,2047
2056,2054,2058,2050,2055,2046,2064,2042
2052,2045,2041,2044,2062,2055,2043,2041
2039,2038,2040,2047,2084,2097,2068,2051
2044,2037,2040,2072,2122,2130,2037,2058
2046,2037,2043,2079,2120,2119,2055,2059
2042,2036,2041,2078,2121,2102,2060,2064
2042,2035,2041,2076,2108,2132,2062,2059
2049,2033,2041,2075,2093,2145,2046,2050
2042,2028,2036,2065,2080,2150,2040,2056
2040,2028,2035,2077,2097,2146,2043,2057
2049,2045,2032,2076,2095,2116,2049,2065
2050,2052,2043,2075,2084,2060,2048,2057
2047,2051,2056,2065,2004,2051,2047,2066
2052,2052,2061,2044,1934,2013,2047,2058
2056,2052,2062,2047,2024,1985,2044,2047
2056,2050,2056,2059,2064,1986,2024,2040
2042,2044,2052,2074,2047,1982,2037,2034
2048,2035,2050,2074,2027,1973,2041,2028
2049,2027,2049,2078,2031,1978,2055,2031
2050,2030,2055,2091,2051,1997,2050,2029
2047,2037,2046,2079,2038,2012,2056,2021
2046,2035,2043,2077,1989,2032,2037,2022
2045,2031,2039,2084,1992,2050,2044,2020
2050,2033,2032,2081,2017,2058,2051,2011
2053,2034,2022,2068,2003,2049,2017,2014
2041,2024,2015,2062,2011,2053,2035,2013
2041,2030,2020,2071,2030,2064,2049,2014
2057,2041,2022,2071,2046,2070,2066,2021
2060,2045,2025,2068,2091,2074,2067,2019
2061,2035,2034,2069,2151,2084,2054,2017
2054,2031,2032,2061,2164,2082,2045,2019
2046,2029,2034,2041,2137,2104,2054,2026
2038,2033,2036,2042,2148,2122,2053,2029
2032,2024,2037,2033,2158,2138,2070,2037
2033,2023,2031,2027,2151,2172,2074,2039
2028,2033,2035,2030,2136,2195,2075,2055
2037,2037,2037,2043,2109,2150,2072,2061
2034,2043,2034,2038,1992,2004,2059,2069
2039,2044,2027,2028,1975,1937,2049,2069
2046,2041,2029,2033,1983,1972,2069,2080
2052,2041,2031,2037,1938,2000,2084,2082
2050,2038,2028,2042,1982,2022,2091,2076
2049,2045,2034,2054,1997,2043,2074,2076
2057,2052,2044,2066,2019,2052,2068,2069
2052,2056,2044,2059,2005,2044,2048,2058
2051,2052,2048,2052,1997,2037,2047,2053
2051,2059,2049,2052,1995,2024,2043,2048
2051,2062,2066,2038,1987,2018,2026,2050
2060,2069,2072,2053,2059,2027,2030,2044
2056,2064,2064,2064,2100,2026,2008,2028
2048,2065,2073,2061,2107,2003,2024,2026
2056,2066,2077,2064,2083,1996,2028,2025
2059,2071,2087,2067,2084,2006,2036,2037
2068,2076,2093,2071,2082,2032,2059,2037
2060,2077,2097,2085,2041,2042,2064,2027
2055,2072,2094,2072,1980,2023,2070,2016
2051,2063,2081,2047,1898,1995,2053,2017
2049,2051,2076,2050,1951,1987,2042,2003
2046,2041,2068,2047,1954,1991,2030,1996
2031,2039,2057,2028,1973,2006,2032,2005
2038,2048,2063,2040,2049,2039,2064,2003
2044,2053,2074,2081,2136,2083,2086,2016
2059,2061,2078,2092,2160,2086,2087,2024
2056,2063,2068,2096,2145,2098,2081,2029
2054,2056,2066,2091,2102,2088,2078,2033
2056,2045,2057,2095,2070,2076,2061,2034
2055,2049,2061,2085,2058,2051,2046,2031
2048,2043,2063,2092,2073,2048,2060,2029
2034,2043,2057,2092,2068,2044,2056,2035
2042,2048,2067,2078,2056,2040,2049,2042
2049,2057,2059,2070,2054,2050,2055,2055
2051,2058,2055,2060,2057,2060,2057,2064
2050,2055,2050,2056,2059,2046,2046,2060
2049,2052,2038,2045,2049,2028,2035,2069
2047,2043,2030,2037,2027,2018,2026,2064
2038,2035,2026,2026,2018,2025,2041,2060
2040,2034,2029,2029,2027,2046,2062,2065
2047,2043,2040,2033,2058,2058,2049,2060
2042,2048,2042,2042,2067,2073,2046,2061
2048,2053,2049,2047,2066,2076,2061,2064
2050,2054,2056,2046,2069,2079,2057,2047
2052,2054,2060,2050,2101,2074,2062,2050
2047,2061,2055,2056,2104,2073,2056,2036
2046,2052,2054,2061,2094,2051,2058,2025
2040,2054,2052,2069,2085,2032,2053,2027
2041,2053,2048,2075,2072,2020,2050,2024
2047,2057,2047,2079,2066,2022,2055,2026
2046,2053,2050,2078,2067,2030,2050,2026
2046,2052,2049,2071,2065,2022,2057,2025
2044,2054,2042,2072,2071,2029,2054,2028
2050,2058,2044,2070,2048,2030,2058,2037
2042,2045,2036,2054,2035,2020,2047,2024
2039,2043,2030,2046,2022,2005,2039,2018
2045,2042,2035,2056,2034,2012,2054,2021
2047,2049,2040,2046,2037,2024,2041,2014
2039,2047,2039,2042,2034,2034,2048,2016
2039,2045,2035,2048,2049,2042,2052,2025
2043,2049,2040,2047,2047,2037,2053,2027
2039,2050,2044,2046,2039,2035,2052,2027
2037,2048,2040,2046,2042,2043,2050,2032
2043,2050,2046,2053,2053,2055,2064,2035
2048,2052,2049,2064,2080,2057,2059,2035
2039,2050,2048,2061,2084,2060,2068,2035
2040,2046,2047,2063,2078,2062,2065,2043
2040,2048,2039,2058,2077,2062,2056,2051
2037,2056,2052,2058,2072,2065,2061,2062
2043,2053,2053,2061,2059,2046,2070,2066
2046,2053,2047,2052,2028,2024,2060,2062
2039,2043,2045,2045,2005,2002,2036,2061
2041,2039,2039,2041,1994,2009,2038,2072
2040,2043,2042,2050,2012,2032,2028,2063
2047,2044,2040,2044,2046,2056,2043,2058
2041,2044,2039,2058,2085,2088,2045,2048
2049,2050,2046,2074,2117,2110,2046,2048
2042,2049,2049,2079,2099,2106,2056,2041
2044,2047,2051,2080,2103,2115,2055,2045
2049,2057,2050,2080,2124,2123,2084,2045
2057,2055,2052,2078,2101,2090,2068,2039
2055,2053,2052,2070,2071,2059,2045,2040
2057,2057,2061,2079,2099,2059,2062,2040
2061,2059,2065,2078,2092,2053,2049,2034
2056,2060,2062,2059,2003,2029,2032,2013
2046,2051,2056,2037,1913,2000,2032,2007
2040,2049,2050,2022,1879,1981,2013,2005
2042,2043,2045,2024,1958,2005,2033,1998
2029,2032,2043,2049,2057,2025,2031,2001
2033,2029,2034,2057,2077,2031,2054,2016
2040,2038,2041,2055,2076,2033,2052,2019
2030,2037,2036,2050,2071,2043,2046,2022
2030,2035,2034,2051,2084,2046,2049,2021
2036,2043,2042,2059,2089,2064,2059,2036
2048,2051,2056,2072,2100,2083,2063,2043
2050,2054,2058,2064,2097,2078,2054,2037
2045,2053,2054,2061,2084,2079,2069,2050
2049,2043,2045,2060,2073,2091,2075,2053
2048,2046,2045,2061,2077,2106,2076,2063
2054,2045,2041,2055,2076,2127,2084,2071
2057,2042,2043,2051,2058,2145,2084,2075
2055,2049,2037,2044,2022,2122,2064,2072
2060,2055,2045,2050,2012,2104,2057,2071
2059,2054,2047,2056,2031,2072,2040,2075
2049,2052,2046,2060,2008,2009,2014,2072
2042,2043,2056,2068,2009,2005,2034,2072
2039,2044,2054,2074,2027,2048,2050,2077
2049,2046,2052,2075,2038,2060,2050,2062
2044,2042,2047,2052,2012,1989,2033,2054
2035,2038,2050,2036,1992,1956,2028,2051
2041,2052,2058,2055,2043,1990,2037,2054
2043,2056,2062,2066,2073,2015,2029,2055
2050,2057,2064,2065,2052,2021,2025,2048
2049,2060,2058,2062,2041,2024,2023,2048
2052,2055,2064,2064,2062,2029,2036,2047
2052,2060,2064,2068,2110,2037,2047,2041
2058,2062,2063,2080,2133,2045,2044,2033
2061,2069,2067,2074,2128,2045,2039,2029
2058,2068,2062,2075,2130,2043,2028,2025
2048,2055,2056,2072,2142,2038,2030,2022
2048,2055,2048,2064,2130,2038,2041,2016
2041,2041,2032,2050,2093,2027,2020,2023
2037,2038,2029,2038,2014,2026,2043,2025
2051,2058,2038,2024,1881,2030,2066,2034
2051,2065,2041,2036,1949,2051,2066,2039
2051,2061,2043,2051,2075,2069,2066,2040
2049,2054,2045,2068,2183,2096,2076,2043
2043,2056,2042,2076,2183,2105,2061,2047
2047,2062,2048,2067,2148,2086,2043,2046
2046,2058,2042,2059,2108,2068,2025,2037
2040,2043,2031,2045,2052,2078,2043,2041
2032,2041,2030,2037,1975,2077,2037,2039
2029,2042,2026,2031,1915,2069,2028,2045
2032,2042,2030,2027,1913,2036,2019,2058
2033,2046,2038,2033,1902,1997,2018,2071
2040,2057,2052,2051,1983,1998,2043,2078
2046,2061,2055,2064,2074,1998,2043,2075
2045,2060,2052,2063,2091,1997,2020,2065
2031,2041,2033,2057,2084,2004,2007,2069
2031,2036,2035,2067,2120,2015,2041,2072
2045,2055,2059,2091,2131,2034,2063,2072
2046,2059,2064,2086,2130,2066,2073,2065
2045,2056,2060,2073,2122,2070,2060,2058
2042,2049,2053,2046,2000,2065,2031,2050
2047,2051,2044,2042,1940,2070,2009,2038
2039,2049,2043,2051,1948,2054,2040,2042
2049,2054,2047,2066,1969,2017,2042,2047
2051,2060,2054,2075,2011,2037,2054,2049
2057,2061,2051,2088,2041,2080,2078,2049
2055,2060,2040,2074,2042,2071,2068,2039
2052,2051,2035,2071,2053,2066,2060,2034
2045,2047,2033,2063,2085,2058,2051,2032
2044,2044,2028,2060,2104,2055,2055,2029
2048,2045,2029,2059,2110,2034,2043,2029
2049,2048,2028,2062,2107,2014,2036,2017
2042,2048,2029,2070,2117,2029,2032,2019
2040,2054,2036,2070,2089,2029,2032,2023
2047,2054,2033,2061,2074,2025,2039,2027
2048,2046,2028,2048,2074,2039,2030,2027
2039,2043,2015,2033,2080,2080,2051,2033
2040,2039,2014,2034,2098,2123,2049,2032
2041,2041,2024,2046,2091,2124,2057,2038
2039,2042,2031,2042,2055,2077,2039,2035
2040,2047,2041,2044,2021,2040,2024,2039
2037,2043,2039,2035,2032,2050,2022,2033
2036,2043,2031,2030,2029,2063,2026,2038
2035,2042,2033,2028,2037,2073,2033,2048
2036,2042,2031,2032,2050,2080,2020,2058
2039,2049,2035,2035,2061,2061,2039,2065
2038,2045,2034,2041,2082,2039,2047,2071
2048,2049,2038,2055,2107,2042,2061,2074
2042,2050,2052,2041,2092,2032,2032,2079
2039,2049,2052,2032,2055,2014,2013,2073
2036,2046,2046,2015,1998,1993,2010,2063
2039,2050,2062,2031,1977,2003,2010,2066
2049,2057,2081,2042,1978,2027,2024,2064
2053,2057,2074,2035,1957,2021,2030,2057
2051,2057,2062,2027,1931,2001,2042,2044
2053,2059,2066,2046,1963,2016,2050,2051
2061,2068,2066,2056,1979,2019,2052,2057
2066,2068,2071,2072,2096,2047,2059,2055
2065,2069,2065,2076,2164,2072,2059,2048
2064,2058,2061,2082,2189,2073,2052,2042
2060,2056,2059,2085,2184,2079,2049,2038
2060,2057,2062,2082,2150,2080,2057,2031
2056,2056,2060,2058,2053,2068,2052,2032
2051,2048,2049,2031,1993,2062,2048,2024
2053,2046,2044,2011,1931,2036,2027,2019
2035,2030,2031,1978,1818,2027,2036,2024
2035,2034,2036,1999,1848,2063,2043,2032
2042,2047,2049,2037,1942,2089,2068,2038
2053,2056,2056,2066,2046,2122,2069,2040
2052,2054,2057,2070,2053,2126,2067,2043
2048,2056,2053,2074,2045,2113,2066,2045
2051,2054,2043,2079,2084,2114,2051,2047
2051,2047,2044,2067,2081,2135,2063,2063
2053,2049,2044,2071,2108,2187,2075,2075
2067,2051,2045,2065,2116,2168,2069,2075
2064,2051,2041,2062,2111,2050,2047,2066
2058,2043,2040,2049,2031,1915,2032,2058
2050,2034,2031,2025,2031,1923,2027,2060
2043,2032,2028,2030,2069,1975,2028,2065
2041,2032,2033,2037,2076,2000,2029,2064
2040,2040,2045,2049,2060,2020,2030,2057
2038,2047,2048,2062,2065,2065,2009,2054
2026,2040,2044,2070,2085,2105,2029,2064
2033,2045,2051,2079,2082,2088,2034,2076
2048,2060,2055,2073,2086,2077,2045,2066
2044,2065,2063,2081,2100,2060,2047,2070
2056,2067,2060,2078,2079,2036,2042,2066
2050,2062,2058,2062,2058,2047,2056,2052
2053,2061,2051,2067,2051,2066,2047,2052
2070,2064,2061,2058,2007,2024,2026,2044
2062,2061,2055,2053,1991,1991,2023,2033
2063,2057,2052,2056,2012,2006,2011,2020
2061,2064,2054,2065,2036,2022,2015,2022
2061,2059,2055,2066,2045,2028,2003,2009
2055,2054,2044,2057,2036,2022,1986,2008
2049,2044,2046,2056,2037,2026,2001,2009
2045,2042,2052,2058,2031,2034,2008,2008
2045,2043,2049,2054,2034,2043,2017,2012
2046,2042,2044,2042,2026,2039,2014,2005
2040,2038,2047,2030,2026,2037,2032,2007
2042,2042,2051,2036,2034,2047,2028,2017
2038,2049,2051,2041,2041,2050,2032,2021
2046,2059,2056,2048,2042,2045,2020,2026
2052,2060,2063,2054,2054,2043,2019,2034
2054,2055,2055,2056,2054,2046,2048,2042
2049,2062,2047,2054,2052,2044,2040,2046
2054,2060,2038,2054,2052,2048,2042,2054
2041,2056,2032,2056,2049,2048,2039,2057
2037,2050,2029,2054,2054,2046,2033,2066
2042,2044,2027,2043,2054,2047,2049,2062
2040,2047,2025,2048,2051,2049,2059,2064
2040,2054,2040,2050,2057,2051,2049,2063
2046,2054,2051,2049,2058,2046,2044,2073
2045,2054,2046,2047,2056,2045,2054,2078
2041,2053,2037,2038,2045,2045,2025,2068
2042,2044,2025,2028,2041,2040,2031,2068
2038,2039,2022,2025,2036,2047,2034,2072
2049,2053,2029,2036,2050,2057,2048,2079
2050,2059,2032,2037,2052,2057,2057,2075
2049,2062,2035,2042,2057,2066,2050,2076
2048,2061,2032,2041,2056,2074,2064,2073
2053,2060,2033,2040,2051,2065,2061,2065
2052,2059,2035,2033,2038,2041,2053,2057
2050,2060,2038,2035,2035,2046,2046,2047
2049,2061,2044,2037,2035,2046,2042,2045
2044,2060,2048,2037,2030,2046,2029,2034
2049,2058,2055,2045,2035,2040,2029,2037
2046,2058,2061,2048,2041,2045,2047,2039
2050,2065,2063,2055,2049,2047,2046,2044
2052,2069,2068,2054,2051,2049,2044,2046
2055,2068,2068,2058,2047,2045,2025,2033
2053,2066,2063,2053,2043,2028,2021,2028
2042,2052,2044,2039,2037,2016,2028,2023
2041,2053,2042,2042,2036,2023,2060,2032
2046,2058,2054,2052,2023,2044,2053,2028
2046,2061,2057,2053,2034,2064,2055,2034
2051,2062,2058,2060,2052,2078,2058,2042
2053,2067,2063,2051,2040,2070,2066,2037
2053,2065,2060,2056,2047,2067,2047,2042
2050,2063,2059,2064,2044,2068,2033,2049
2047,2059,2064,2068,2077,2063,2033,2059
2050,2062,2059,2072,2104,2038,2036,2060
2048,2055,2057,2050,2072,1992,2034,2065
2044,2048,2050,2050,2086,2017,2022,2071
2050,2056,2054,2061,2102,2036,2043,2079
2045,2048,2043,2051,2059,2032,2035,2080
2039,2041,2037,2036,2016,2012,2037,2081
2035,2040,2030,2038,1961,2001,2052,2078
2042,2039,2033,2037,1926,2007,2053,2071
2034,2035,2031,2040,1968,2022,2048,2078
2031,2034,2034,2056,2044,2042,2054,2077
2040,2043,2037,2062,2065,2041,2062,2076
2041,2054,2040,2063,2085,2034,2035,2064
2043,2056,2044,2055,2066,2026,2036,2056
2051,2061,2045,2051,2037,2029,2033,2049
2048,2060,2046,2052,2018,2036,2036,2055
2049,2059,2038,2044,2019,2052,2065,2052
2057,2060,2041,2041,2012,2067,2065,2049
2055,2052,2038,2037,1994,2060,2062,2042
2051,2051,2037,2040,1998,2050,2057,2042
2050,2054,2036,2048,2072,2072,2053,2040
2052,2054,2037,2068,2137,2095,2062,2032
2056,2053,2037,2072,2152,2114,2069,2033
2044,2053,2044,2078,2166,2130,2046,2031
2049,2054,2042,2076,2148,2120,2048,2024
2040,2036,2024,2054,2114,2101,2040,2014
2035,2035,2027,2059,2108,2088,2047,2020
2041,2042,2024,2052,2044,2045,2017,2031
2041,2043,2028,2022,1904,1965,2029,2034
2037,2044,2036,2042,1949,1969,2031,2031
2045,2045,2048,2051,2006,2006,2048,2037
2050,2047,2051,2064,2027,2028,2059,2044
2045,2052,2048,2065,2058,2046,2060,2051
2040,2044,2047,2075,2080,2045,2063,2055
2047,2043,2041,2068,2067,2058,2051,2057
2051,2044,2050,2071,2085,2077,2065,2064
2049,2053,2071,2080,2103,2083,2060,2068
2056,2058,2079,2091,2127,2085,2070,2082
2052,2049,2080,2089,2121,2089,2063,2078
2044,2055,2071,2075,2097,2058,2036,2079
2039,2051,2061,2050,1983,2023,2033,2073
2045,2037,2051,2028,1924,2002,2029,2074
2036,2036,2042,2019,1986,1998,2021,2069
2034,2034,2043,2029,2021,2010,2045,2079
2041,2045,2050,2026,2025,2031,2032,2074
2048,2041,2035,2021,2027,2032,2041,2074
2043,2044,2034,2018,2029,2033,2050,2073
2050,2043,2051,2031,2031,2038,2043,2069
2057,2053,2070,2039,2033,2039,2055,2065
2062,2051,2075,2047,2042,2044,2053,2058
2049,2049,2067,2042,2039,2041,2032,2058
2047,2039,2061,2042,2046,2045,2047,2052
2052,2043,2057,2047,2041,2047,2036,2044
2048,2043,2058,2047,2049,2049,2041,2044
2047,2046,2061,2053,2044,2046,2050,2039
2052,2049,2057,2055,2040,2040,2060,2033
2049,2046,2056,2051,2041,2044,2065,2035
2046,2051,2055,2051,2042,2044,2056,2033
2044,2050,2047,2048,2042,2039,2046,2031
2043,2044,2040,2040,2041,2037,2038,2025
2047,2044,2038,2042,2044,2043,2053,2028
2049,2050,2043,2044,2047,2040,2044,2036
2049,2049,2048,2039,2051,2044,2040,2038
2047,2051,2047,2039,2049,2053,2040,2045
2046,2046,2045,2037,2058,2061,2030,2044
2045,2038,2038,2034,2056,2064,2034,2049
2045,2038,2035,2027,2069,2079,2040,2059
2045,2051,2031,2027,2064,2092,2066,2070
2052,2047,2036,2028,2062,2092,2082,2076
2058,2052,2036,2023,2050,2082,2065,2075
2055,2043,2038,2027,2045,2077,2067,2079
2050,2039,2035,2029,2046,2087,2080,2087
2050,2042,2036,2036,2050,2090,2073,2091
2043,2039,2040,2037,2056,2071,2065,2087
2046,2034,2042,2035,2052,2053,2047,2085
2050,2040,2040,2036,2043,2013,2039,2081
2046,2038,2036,2033,2044,1991,2033,2075
2044,2042,2042,2041,2045,1992,2046,2080
2046,2043,2044,2037,2047,1992,2059,2080
2044,2044,2038,2035,2044,2007,2044,2080
2046,2048,2043,2033,2036,2001,2030,2084
2049,2046,2046,2033,2032,1991,2029,2079
2051,2045,2041,2036,2031,1996,2025,2064
2044,2046,2045,2037,2037,2005,2031,2055
2045,2049,2041,2036,2022,2008,2033,2046
2045,2043,2040,2037,2019,2013,2048,2046
2039,2043,2043,2036,2020,2021,2034,2048
2042,2047,2046,2041,2016,2027,2038,2049
